,lambda (Angstroms),Total Flux (erg/s/cm^2/Angstrom)
0,100.11000000000001,0.3480143203549972
1,101.97,0.34704612046342054
2,104.10000000000001,0.3459373746307624
3,104.712855,0.34561836060060813
4,106.04,0.3419895309338179
5,108.01,0.33660293548242703
6,110.02,0.33110697123056093
7,113.89,0.32052518454610845
8,117.89000000000001,0.30958793774979876
9,120.22644299999999,0.3031994656900475
10,120.91,0.30163248385848035
11,124.87,0.2925544757936233
12,126.9,0.2879008451446264
13,128.08,0.28519578272499213
14,131.06,0.2783643440014956
15,131.97,0.27627827241571085
16,134.10999999999999,0.2713724731653234
17,136.92,0.2649308076830395
18,138.038426,0.2623668979666585
19,140.10999999999999,0.2589724442737584
20,143.04000000000002,0.25417205255768505
21,147.04999999999998,0.24760262756045565
22,151.17000000000002,0.2408517718745888
23,155.04999999999998,0.2344942207061124
24,158.489319,0.2288587717602429
25,159.03,0.2281890036755376
26,161.98000000000002,0.22453467746044323
27,166.14000000000001,0.2193815113511814
28,170.01,0.21458755538624077
29,173.17,0.21067309607263804
30,177.2,0.20568101508807182
31,180.07999999999998,0.20211346531281363
32,181.970086,0.19977215129550555
33,182.17000000000002,0.19958322890095115
34,185.98,0.1959827537710156
35,191.19,0.19105929438697766
36,193.85,0.1885457058679833
37,197.91,0.18470905382288658
38,202.05999999999997,0.18078745101801186
39,204.86999999999998,0.17813216930472076
40,208.929613,0.17429581245957468
41,210.12,0.17345010536175925
42,216.01,0.16926642225441055
43,220.02,0.16641806413981994
44,223.09,0.16423728075010846
45,227.23,0.1612967483272793
46,229.85999999999999,0.15943275994429845
47,234.14000000000001,0.1564015341298277
48,239.88329199999998,0.15232820495703128
49,240.14000000000001,0.15218798019776344
50,245.73999999999998,0.14912348841385387
51,252.04000000000002,0.1456802835757055
52,256.73,0.14311172630030616
53,260.3,0.14116333774768877
54,263.92,0.13919454145834007
55,268.83,0.13651417046132286
56,273.82,0.13379035713553553
57,275.42287,0.13291260386140877
58,278.90999999999997,0.1314470148191411
59,284.1,0.1292867308889318
60,290.05,0.12680170730849927
61,296.12,0.12425742816066308
62,300.93,0.12224268861056548
63,307.94,0.11932597069140041
64,316.227766,0.1158666153250931
65,318.03,0.11530603159296259
66,327.7,0.11231216052820106
67,337.65000000000003,0.1092160629455354
68,347.91,0.10602266825376157
69,356.84000000000003,0.10336657587203248
70,363.078055,0.10162002129180109
71,365.99,0.10103422012786516
72,375.38,0.09889984128894044
73,385.01,0.09655353411387708
74,394.89000000000004,0.09472589702616929
75,405.01000000000005,0.09281492280232284
76,414.45000000000005,0.09074188898086925
77,416.86938299999997,0.09015880576650889
78,422.15000000000003,0.08917949271634854
79,429.99999999999994,0.08781635616990878
80,441.03000000000003,0.08635932012440169
81,451.31,0.0847473018381086
82,459.7,0.08307965990503474
83,470.4,0.08138710087358182
84,478.630092,0.08036468316942828
85,480.25,0.08023058416264564
86,490.31,0.07852020435033857
87,499.43,0.07815973424017551
88,506.37,0.07677551443924002
89,512.24,0.07811130879925568
90,520.56,0.07691250943559816
91,530.24,0.07540340250288122
92,540.1,0.07327776062720052
93,549.5408739999999,0.07202366575020464
94,550.14,0.07196369435995417
95,560.36,0.0725792231745188
96,569.47,0.07267967528221782
97,580.0600000000001,0.07164887399907097
98,589.48,0.07104147467355229
99,600.44,0.06882090129269401
100,610.1999999999999,0.06776222520171074
101,620.11,0.06876542244949307
102,630.19,0.06738781381454313
103,630.957344,0.067390514100557
104,640.4300000000001,0.06763060471982417
105,649.34,0.06673427146120534
106,658.3700000000001,0.06533441207115731
107,664.46,0.0661197619011249
108,675.26,0.06593490007249604
109,684.65,0.06374354528816037
110,695.78,0.06457362959810116
111,705.4599999999999,0.061730907329478245
112,715.27,0.06368544808514033
113,724.43596,0.06322574058679606
114,725.22,0.0632032862976878
115,735.31,0.06274708034001152
116,745.54,0.061860268600960125
117,754.17,0.06140918864905265
118,764.6600000000001,0.05961252474459037
119,775.3000000000001,0.060412055360083344
120,784.28,0.05891606595473815
121,795.19,0.059265594706150594
122,804.4,0.05916653223140346
123,815.59,0.05862377942006572
124,825.0300000000001,0.05837716387591664
125,831.763771,0.0560356767885437
126,834.59,0.05509715951415983
127,844.25,0.05731953962758264
128,854.0300000000001,0.05671231123309765
129,865.91,0.05675708895022632
130,875.9300000000001,0.05645404353992575
131,884.04,0.05617590104715753
132,894.2700000000001,0.05583308824801832
133,904.63,0.05512459373197902
134,915.1099999999999,0.054287220708031915
135,925.7,0.07237725238516933
136,934.27,0.09205938227875457
137,945.0899999999999,0.11265457014906874
138,954.992586,0.12620113523718154
139,956.03,0.12762133751601573
140,964.87,0.13424250579891628
141,976.05,0.07135489450964344
142,985.0799999999999,0.11323908192984616
143,994.1899999999999,0.11282742372364978
144,1005.7099999999999,0.1359910935221808
145,1015.01,0.13695625445328657
146,1024.4,0.10001532655469339
147,1033.8799999999999,0.11873229982640124
148,1045.85,0.15908927547643736
149,1055.53,0.15442347468214748
150,1065.3,0.1323772850581586
151,1075.15,0.14422528980777066
152,1085.1,0.1266082625243838
153,1095.14,0.146954036411298
154,1096.4782,0.14621283354255146
155,1105.28,0.14140998837664695
156,1115.5,0.13755936415298853
157,1125.83,0.12457246825960389
158,1136.24,0.1446284838791456
159,1144.12,0.13649538790239138
160,1154.7,0.13832400548690157
161,1165.39,0.1374286414016855
162,1176.17,0.1026573777685116
163,1184.33,0.13188005208699963
164,1195.28,0.1101387204187942
165,1206.3400000000001,0.09493595708086253
166,1214.71,0.08127330912078222
167,1225.94,0.10751480774781905
168,1234.44,0.13049676599624405
169,1245.8600000000001,0.13519061446648095
170,1254.5,0.1309476178625271
171,1258.92541,0.12761471935470337
172,1266.11,0.12228034918603328
173,1274.8899999999999,0.13939000787999545
174,1283.72,0.1423388339583196
175,1295.6000000000001,0.12194424048272397
176,1304.58,0.12104097871413402
177,1313.6200000000001,0.13836780980677843
178,1325.78,0.13268574968360988
179,1334.97,0.12292654292934022
180,1344.22,0.1349728690363049
181,1353.54,0.13120683348137635
182,1366.06,0.120975740525614
183,1375.53,0.12253671712377137
184,1385.07,0.12182815206003549
185,1394.67,0.10141906985753399
186,1404.3400000000001,0.10080116599313924
187,1414.07,0.11340552498997887
188,1423.8700000000001,0.11251819232492524
189,1433.74,0.1137297779979784
190,1440.36,0.11635175368750339
191,1445.43977,0.11671985148260636
192,1447.01,0.11684617925417726
193,1453.69,0.11326665955629253
194,1463.76,0.10674054680813395
195,1473.9099999999999,0.10694667693784504
196,1484.1299999999999,0.10775548458569206
197,1494.4099999999999,0.10756726439194131
198,1504.77,0.1025016770760602
199,1511.72,0.09479225209098552
200,1518.7,0.09836098318511194
201,1525.71,0.09627183035843949
202,1536.28,0.0854582155969662
203,1543.3700000000001,0.08412697564816339
204,1554.07,0.08216743056322828
205,1564.8400000000001,0.0864625029964291
206,1575.6899999999998,0.09041433830749956
207,1586.61,0.09255467113670596
208,1593.94,0.09293055982151208
209,1604.98,0.09103689696752296
210,1616.1100000000001,0.09016328235113716
211,1623.57,0.08742362071248146
212,1634.82,0.09082000041290016
213,1646.16,0.09077789835092218
214,1653.75,0.08718673638880464
215,1659.58691,0.08892084704060085
216,1665.22,0.09062556687845516
217,1672.8999999999999,0.08361676976088206
218,1676.76,0.09183978256376849
219,1684.5,0.09260430953121433
220,1696.1799999999998,0.08839159474823857
221,1704.01,0.08586552784321286
222,1715.8200000000002,0.08169994191111148
223,1723.74,0.08070614113361421
224,1735.68,0.08404067405238726
225,1743.7,0.08239741008325492
226,1755.7800000000002,0.08472102253373888
227,1763.8899999999999,0.08063166469213498
228,1776.11,0.07988099667432984
229,1784.3100000000002,0.08096493496025439
230,1796.6799999999998,0.08325142715499664
231,1804.9699999999998,0.08283323156844963
232,1813.31,0.07751300938608507
233,1825.87,0.07836006451672071
234,1834.3000000000002,0.07639024846188461
235,1847.02,0.07161233448590414
236,1855.54,0.07150275455859646
237,1864.11,0.07231176803547126
238,1877.0300000000002,0.07541447767622066
239,1885.6899999999998,0.0704650872806239
240,1894.3999999999999,0.06783156028920959
241,1903.14,0.07088672534030477
242,1905.46072,0.07040844377856963
243,1916.33,0.06820592878840778
244,1925.1799999999998,0.06640585975792872
245,1934.06,0.06879060642565141
246,1942.99,0.06972524925704371
247,1956.4599999999998,0.0653896877496366
248,1965.49,0.06938185290836812
249,1974.56,0.07085877899803533
250,1983.6799999999998,0.06756726125137216
251,1992.83,0.06600714920291074
252,2006.65,0.06747431084119089
253,2015.9099999999999,0.06578835635280263
254,2025.21,0.06754875279535004
255,2034.56,0.06394270540156707
256,2043.95,0.06503985893871979
257,2053.39,0.060362428639542116
258,2062.87,0.06149305927130013
259,2072.39,0.06561664083399384
260,2077.1600000000003,0.0622640968480746
261,2086.75,0.06380055503990577
262,2096.38,0.061063944162672606
263,2106.06,0.06153440944910906
264,2115.7799999999997,0.061783875666481206
265,2125.5499999999997,0.06191893804752296
266,2135.36,0.059477151359500394
267,2145.22,0.05905620083514744
268,2155.12,0.060506931241730184
269,2165.06,0.059085622579248605
270,2175.06,0.05855661531317056
271,2185.1,0.0571849689780282
272,2187.7616199999998,0.05755420923513686
273,2195.18,0.05860608284175131
274,2205.32,0.05746805057643209
275,2215.5,0.055737451852472565
276,2225.72,0.05436464666987272
277,2236.0,0.05560592679931241
278,2246.32,0.05423246047011179
279,2256.6800000000003,0.05270320768227085
280,2267.1,0.05331285020646945
281,2277.5699999999997,0.05363788215736766
282,2282.82,0.05370193196082665
283,2293.35,0.05124747922376438
284,2303.94,0.05140211179874165
285,2314.57,0.04990180791507861
286,2325.26,0.043726179343455095
287,2335.9900000000002,0.04789805431319127
288,2346.77,0.04743658870962705
289,2357.6,0.048349152532762445
290,2363.04,0.04662498415767995
291,2373.95,0.046587635063534714
292,2384.9,0.044919169510749174
293,2395.91,0.04618289927000316
294,2406.97,0.04500347845595676
295,2412.52,0.0452265048196134
296,2423.66,0.04584199108828637
297,2434.84,0.04450838089831903
298,2446.08,0.04551952602039122
299,2457.37,0.044911880569163024
300,2463.04,0.04456962755689872
301,2474.41,0.043581709188389904
302,2485.83,0.04393372024658069
303,2497.3,0.040019200731471076
304,2503.06,0.04379429068726608
305,2511.88643,0.04201303119321223
306,2514.61,0.04146783960287142
307,2520.4100000000003,0.04265715250329986
308,2526.2200000000003,0.041665517632866966
309,2537.88,0.04164234680855587
310,2543.73,0.040822320854677664
311,2555.4700000000003,0.04168123786347592
312,2567.27,0.041210708247106195
313,2573.18,0.042019975668060004
314,2585.06,0.04161958388479964
315,2596.9900000000002,0.041222573247232615
316,2602.9799999999996,0.04047781850129579
317,2614.99,0.04002097569683813
318,2627.07,0.040353578496351156
319,2633.12,0.040341157125246344
320,2645.2799999999997,0.04119622775786872
321,2657.4900000000002,0.04094794953618446
322,2663.61,0.039345623769050334
323,2675.9100000000003,0.03981641560961409
324,2682.08,0.039517680988173313
325,2694.45,0.038646778432707765
326,2706.8900000000003,0.0386198214812129
327,2713.13,0.03791906246374281
328,2725.66,0.03788985557449598
329,2731.94,0.038284775473580564
330,2744.55,0.036389166417443095
331,2757.2200000000003,0.036294190736137634
332,2763.57,0.03647197623919291
333,2776.3300000000004,0.037099900620135476
334,2782.73,0.03649059726888411
335,2795.57,0.03343470948293603
336,2802.02,0.03442918727737801
337,2814.95,0.036282559553677964
338,2827.9500000000003,0.0362492674339486
339,2834.4599999999996,0.0351477586032226
340,2847.5499999999997,0.034864496545741266
341,2854.11,0.03459999886070861
342,2867.29,0.03512644686547531
343,2873.8999999999996,0.03467166032613599
344,2884.0315,0.03459843681078466
345,2887.16,0.034580216437288355
346,2893.8199999999997,0.03414175712643611
347,2907.17,0.03461956729161968
348,2927.3199999999997,0.03398011581809526
349,2947.6200000000003,0.0334123182790111
350,2968.0499999999997,0.03320791214977517
351,2988.6200000000003,0.03282742369268349
352,3009.3399999999997,0.032507919170032075
353,3030.2000000000003,0.0321899023195249
354,3051.2,0.031818803141161985
355,3072.35,0.031393087897239325
356,3086.53,0.03109569783299236
357,3107.93,0.030678019146470146
358,3129.47,0.030212998132092175
359,3151.16,0.029966261052154473
360,3173.01,0.02950907416895305
361,3187.65,0.0288124021703229
362,3209.75,0.028777521844521918
363,3232.0,0.028286545453161206
364,3246.9199999999996,0.02816203879881955
365,3269.42,0.027925188964859276
366,3292.08,0.027592079327635282
367,3307.28,0.027321818017582118
368,3311.31121,0.027431371502108167
369,3322.55,0.027747860306735626
370,3330.2,0.02754529910349421
371,3337.8799999999997,0.027006166209259684
372,3345.5800000000004,0.026808655521029758
373,3353.29,0.026708890935802136
374,3361.02,0.026702988556579106
375,3368.77,0.026460258383360677
376,3376.5299999999997,0.025854034313144543
377,3384.32,0.026401338551935306
378,3392.1200000000003,0.026630478893728368
379,3399.94,0.02695902144152603
380,3407.77,0.02591862009232599
381,3415.63,0.026051767052132847
382,3423.5,0.026465180114942
383,3431.4,0.026458871486758052
384,3439.31,0.026405628961576406
385,3447.24,0.025703028642399352
386,3455.18,0.025246574426224598
387,3463.1499999999996,0.025017668519056742
388,3471.13,0.02523189871489118
389,3479.1299999999997,0.025003021116730223
390,3487.15,0.024953135724573857
391,3495.19,0.02525583253842209
392,3503.25,0.024806091558274925
393,3511.32,0.024580776681130054
394,3519.4199999999996,0.024660790112992086
395,3527.5299999999997,0.02465226964785641
396,3535.66,0.024952941388725332
397,3543.8199999999997,0.024946001438601154
398,3551.98,0.025027891488476974
399,3560.1699999999996,0.02484195984735969
400,3568.38,0.024397280412247
401,3576.61,0.023586653183138913
402,3584.85,0.023413622057033127
403,3593.11,0.023241903136931932
404,3601.4,0.023770482525837636
405,3609.7000000000003,0.023678318017745642
406,3618.02,0.02371269571565824
407,3626.36,0.024343775619575438
408,3630.28,0.021328337996476567
409,3633.02,0.03002776021910644
410,3635.76,0.02480954244173631
411,3638.5,0.02285449466436618
412,3641.2400000000002,0.01849703688699605
413,3643.98,0.02521667910962592
414,3646.72,0.019793381332255795
415,3649.46,0.02202323355488567
416,3652.2,0.027564185777515536
417,3654.94,0.023439108000145405
418,3657.68,0.02723826022277528
419,3660.4199999999996,0.02096122244540515
420,3663.16,0.01988648466803502
421,3665.9,0.01665635689066489
422,3668.6400000000003,0.01965656911329476
423,3671.38,0.026605161335924634
424,3674.1200000000003,0.0228339735585545
425,3676.86,0.023579335781184374
426,3679.6,0.014253404003814247
427,3682.34,0.022040180226444116
428,3685.08,0.021391302449073987
429,3687.82,0.02173973467170386
430,3690.56,0.02662625689433373
431,3693.2999999999997,0.0265184491169636
432,3696.04,0.02038951133959347
433,3698.7799999999997,0.023828983562223342
434,3701.52,0.029500705784853212
435,3704.27,0.022385544110485385
436,3707.01,0.022343556333115255
437,3709.75,0.021880398555745126
438,3712.49,0.027112660778374997
439,3715.23,0.026659453001004866
440,3717.97,0.03167833522363474
441,3720.71,0.045091607446264614
442,3723.45,0.08529569966889447
443,3726.1899999999996,0.14886198189152433
444,3728.93,0.17925573411415424
445,3731.67,0.1423080863367841
446,3734.4100000000003,0.07645382855941396
447,3737.15,0.03677370078204384
448,3739.8900000000003,0.025242483004673705
449,3742.63,0.027058765227303574
450,3745.37,0.024985257449933445
451,3748.11,0.02493169967256332
452,3750.85,0.027064441895193192
453,3753.59,0.023059434117823057
454,3756.33,0.02578369634045293
455,3759.0699999999997,0.025665038563082804
456,3761.81,0.025906240785712673
457,3764.5499999999997,0.026134783008342544
458,3767.29,0.020503505230972417
459,3770.0299999999997,0.026593677453602287
460,3772.7699999999995,0.024563569676232157
461,3775.51,0.02166473189886203
462,3778.25,0.021106274121491898
463,3780.9900000000002,0.02486944634412177
464,3783.73,0.026669458566751642
465,3786.48,0.02397013689238381
466,3789.22,0.02384965911501368
467,3791.9599999999996,0.021689551337643553
468,3794.7,0.022569643560273425
469,3797.44,0.024113945782903295
470,3800.1800000000003,0.023250238005533167
471,3801.8939600000003,0.02379816238228457
472,3802.92,0.024126881360194002
473,3805.6600000000003,0.024653892633313954
474,3808.4,0.022404533906433908
475,3811.14,0.019523515179553863
476,3813.88,0.029157236452673818
477,3816.62,0.023051367725793772
478,3819.36,0.022649248998913726
479,3822.1,0.01892625027203368
480,3824.8399999999997,0.024002921545153634
481,3827.58,0.025179132818273588
482,3830.3199999999997,0.022998124091393544
483,3833.06,0.0217534853645135
484,3835.7999999999997,0.020179366637633454
485,3838.5399999999995,0.02376449791075341
486,3841.28,0.02544162918387336
487,3844.0200000000004,0.020588580456993313
488,3846.76,0.027656621730113268
489,3849.5,0.021122883003233225
490,3852.2400000000002,0.02484617427635318
491,3854.98,0.024951845549473134
492,3857.7200000000003,0.022374256822593086
493,3860.46,0.024002198095713044
494,3863.2,0.032608989368833
495,3865.94,0.043993420641952954
496,3868.69,0.05053481494891641
497,3871.4300000000003,0.04351917622203636
498,3874.17,0.03370962749515632
499,3876.91,0.026460708768276272
500,3879.65,0.023074430041396227
501,3882.39,0.024237991314516177
502,3885.13,0.031155732587636133
503,3887.87,0.03135362386075609
504,3890.61,0.031882445133876045
505,3893.35,0.029581186406996
506,3896.0899999999997,0.02594897768011595
507,3898.83,0.021414208953235904
508,3901.5699999999997,0.020635770226355862
509,3904.31,0.02070653149947581
510,3907.05,0.022198482772595767
511,3909.7900000000004,0.02521868404571572
512,3912.53,0.024476225318835677
513,3915.27,0.025688606591955633
514,3918.01,0.023544667865075586
515,3920.75,0.025113299138195537
516,3923.4900000000002,0.023980230411315494
517,3926.23,0.024281201684435448
518,3928.97,0.025274772957555404
519,3931.71,0.020395144230675358
520,3934.45,0.021919645503795313
521,3937.19,0.021250436776915266
522,3939.93,0.023619628050035223
523,3942.6699999999996,0.024162909323155173
524,3945.41,0.022997300596275128
525,3948.15,0.02329646186939508
526,3950.9,0.02538396617635854
527,3953.64,0.024397387449478496
528,3956.38,0.02066951872259845
529,3959.12,0.020528519995718406
530,3961.8599999999997,0.02384094126883836
531,3964.6,0.02895033254195831
532,3967.3399999999997,0.03521164381507827
533,3970.0800000000004,0.03562111508819822
534,3972.82,0.033028706361318175
535,3975.5600000000004,0.02370559763443813
536,3978.3,0.021998378907558083
537,3981.04,0.02477590018067804
538,3983.78,0.021533561453797992
539,3986.52,0.019082932726917946
540,3989.26,0.0199593140000379
541,3992.0,0.024345005273157857
542,3994.74,0.02390092654627781
543,3997.48,0.023623227819397765
544,4000.22,0.01960274909251772
545,4002.96,0.02213144036563767
546,4005.7,0.024309121638757626
547,4008.4399999999996,0.02282524291187758
548,4011.18,0.024596404184997537
549,4013.92,0.024154135458117492
550,4016.6600000000003,0.022999366731237446
551,4019.4,0.023164708004357396
552,4022.1400000000003,0.01999253927747735
553,4024.88,0.023377850550597306
554,4027.62,0.02402783182371726
555,4030.36,0.020063953096837214
556,4033.1099999999997,0.021570637403800674
557,4035.8500000000004,0.025581618676920624
558,4038.59,0.02435452995004058
559,4041.3300000000004,0.024452961223160534
560,4044.07,0.02187990249628049
561,4046.81,0.020043573769400445
562,4049.55,0.0223888950425204
563,4052.29,0.025821386315640352
564,4055.03,0.02415485758876031
565,4057.77,0.023544418861880263
566,4060.5099999999998,0.025950310135000217
567,4063.25,0.02400168140812017
568,4065.99,0.022360472681240123
569,4068.73,0.02435044395436008
