,lambda (Angstroms),Total Flux (erg/s/cm^2/Angstrom)
0,102.05000000000001,0.05725642629590294
1,103.95,0.06697605969968423
2,104.712855,0.07087851808928516
3,105.88,0.06589673175848548
4,108.10000000000001,0.05642098910922157
5,110.11,0.04784160049434846
6,113.98,0.03132307614631059
7,117.97999999999999,0.014249665967464463
8,120.22644299999999,0.004661055271917162
9,121.01,0.004506300088983395
10,124.97,0.0037241865676587754
11,127.0,0.003323254636288139
12,127.88000000000001,0.0031494516315719798
13,130.86,0.002560891456506058
14,132.07,0.002321912325093173
15,133.91,0.001958506042571823
16,137.03,0.0013422953898232387
17,138.038426,0.0011431278117320118
18,139.9,0.0011301426687639494
19,143.16,0.001107403009195697
20,147.17,0.0010794318404256833
21,150.94,0.00105313475366547
22,155.17,0.0010236290068840793
23,158.489319,0.0010004755878741047
24,159.14999999999998,0.000993394767113421
25,162.10999999999999,0.0009616710961482136
26,165.89,0.0009211591216977661
27,170.14000000000001,0.0008756099491941124
28,172.91,0.0008459226215074978
29,176.93,0.0008028384941506673
30,179.81,0.000771972269190411
31,181.89000000000001,0.0007496799999741647
32,181.970086,0.0007488216836882064
33,186.13000000000002,0.0007631688445239555
34,190.9,0.0007796202010344023
35,194.0,0.0007903118878717978
36,198.07000000000002,0.0008043490723740168
37,202.21,0.0008186277460126082
38,205.03,0.0008283538689261128
39,208.929613,0.0008418035478048721
40,209.79999999999998,0.0008600333139229528
41,216.17999999999998,0.0009936591828301
42,220.20000000000002,0.0010778561952728457
43,222.75,0.0011312648556530641
44,226.89000000000001,0.0012179754658852196
45,230.04,0.0012839533305604891
46,233.78,0.0013622916377746103
47,239.78,0.0014879659815251248
48,239.88329199999998,0.0014901294293196484
49,245.93,0.0013858087338120004
50,252.24,0.00127695013248412
51,256.93,0.0011960329029942058
52,259.9,0.0011448008443846016
53,264.13,0.0010718287007754675
54,269.04,0.0009871247016903972
55,274.04,0.0009008686774332179
56,275.42287,0.0008770126909770398
57,279.13,0.0009453059545107208
58,284.32,0.0010409187948823451
59,290.28000000000003,0.001150713734009722
60,295.67,0.001250017025209983
61,301.17,0.0013513406652224944
62,308.19,0.001480676583940645
63,316.227766,0.0016287680703695343
64,318.28000000000003,0.0016010878342423817
65,327.95,0.0014706659711857463
66,337.92,0.0013362002043341781
67,348.19000000000005,0.001197691963487678
68,357.12,0.0010772700252585413
69,363.078055,0.0009969349307140608
70,366.28000000000003,0.0010306798948419528
71,374.81,0.0011205741754847665
72,385.31,0.0012312029506721697
73,395.2,0.0013354768926975426
74,405.33,0.0014422771721374847
75,413.82,0.0015317782053778709
76,416.86938299999997,0.001563920814358288
77,421.51,0.0015932890613738135
78,430.34000000000003,0.001649169334181856
79,441.37999999999994,0.0017190980668218086
80,450.62,0.001777619024933509
81,460.06,0.0018373731774372372
82,469.68999999999994,0.001898384785813392
83,478.630092,0.001955067174395842
84,479.53000000000003,0.001947632597117933
85,489.57,0.0018646084724642622
86,499.82,0.0017799970278756037
87,505.61,0.0017327902369538148
88,511.46,0.0016913955011934587
89,519.77,0.0016239600840518246
90,529.43,0.001545803873042416
91,540.52,0.001454449065713809
92,549.5408739999999,0.0013881013942382543
93,550.57,0.0013862826124570625
94,559.52,0.0013694156562734608
95,569.92,0.0013488912050098343
96,580.51,0.0013208879590115834
97,589.9499999999999,0.0013107024232492147
98,599.53,0.001292355611892912
99,610.68,0.0012809442135189278
100,620.6,0.0012713576900059299
101,630.68,0.0012612644072427224
102,630.957344,0.0012607348828374114
103,639.46,0.0012983268872263593
104,649.85,0.0013651147999618604
105,657.37,0.0014141990894489605
106,664.99,0.0014583480083175378
107,674.24,0.0015023928261041965
108,685.1899999999999,0.0015516124433759709
109,694.72,0.0016710802634307665
110,704.39,0.0017077677846196303
111,715.8299999999999,0.0018290888058606443
112,724.43596,0.0018909696902696795
113,725.7900000000001,0.0018985847769403374
114,734.2,0.0019508798747509069
115,744.41,0.0020622015125209324
116,754.77,0.0021491287202875793
117,765.27,0.002239663720051073
118,774.13,0.002352567927851506
119,784.9000000000001,0.0024721681336089185
120,795.82,0.0025670886093629515
121,805.0300000000001,0.0026652929471555013
122,814.3499999999999,0.0027602918429455734
123,825.6800000000001,0.0029448190166903717
124,831.763771,0.002825527574402662
125,835.24,0.00273450654468255
126,844.91,0.003055419149358432
127,854.7,0.0031022458060054716
128,864.5899999999999,0.0032334206726284775
129,874.61,0.003375874512220238
130,884.7299999999999,0.0035774215617879654
131,894.9799999999999,0.0037190855843244478
132,905.34,0.003720863737834492
133,915.8199999999999,0.005265801943315695
134,924.3,0.03244841794927759
135,935.0,0.07311319341670591
136,945.83,0.145244422857103
137,954.58,0.21537457873
138,954.992586,0.21640954558456624
139,965.63,0.2431337395354844
140,974.57,0.03670914966739386
141,985.85,0.20387483251839372
142,994.98,0.22926382727279346
143,1004.18,0.3587461721512686
144,1015.8100000000001,0.35607458562264516
145,1025.21,0.1543444879984784
146,1034.7,0.24800782624812281
147,1044.27,0.5135876074967105
148,1053.93,0.5137230246191093
149,1066.14,0.3995667248328246
150,1076.0,0.4959382994525816
151,1085.96,0.3861305028210177
152,1096.0,0.542501749188397
153,1096.4782,0.5419204119542356
154,1106.15,0.5301479399892945
155,1113.81,0.5115448579031587
156,1124.12,0.4633469662180334
157,1134.52,0.620273173829546
158,1145.02,0.5656191584373234
159,1155.61,0.6184631423417387
160,1166.31,0.648796880942045
161,1174.39,0.4413198622402203
162,1185.26,0.6474990217341763
163,1196.22,0.4278546805247705
164,1204.52,0.2984807712147277
165,1215.6599999999999,0.21188142859859807
166,1224.0900000000001,0.45547012938369924
167,1235.41,0.7274985853608458
168,1243.98,0.8147130739407172
169,1255.49,0.7791372062107664
170,1258.92541,0.7334811201246896
171,1264.19,0.663528080193196
172,1275.89,0.8939229360600678
173,1284.73,0.9515260382705931
174,1293.64,0.7305307515845956
175,1305.6100000000001,0.7313350502791643
176,1314.66,0.9508257858001208
177,1323.77,0.9144682308383432
178,1336.02,0.79911017394682
179,1345.2800000000002,0.9898011427782075
180,1354.6,0.965066721126861
181,1363.99,0.8561947105789914
182,1373.45,0.915135411134599
183,1386.1599999999999,0.9348061272087819
184,1395.77,0.8140810515575544
185,1405.44,0.8561316854235929
186,1415.18,0.8777872303931084
187,1424.9899999999998,0.9145565864661009
188,1434.8700000000001,0.9141516536425704
189,1441.49,0.9761792037142535
190,1445.43977,0.987632028220305
191,1448.15,0.995490591041492
192,1454.83,0.9695287803436211
193,1464.92,0.8919127236158494
194,1475.07,0.8975114748758212
195,1485.29,0.9219976354548273
196,1495.59,0.9470698066841583
197,1505.96,0.8913429872325236
198,1512.91,0.7879551124794993
199,1516.3999999999999,0.8544235770999232
200,1523.4,0.829999609003352
201,1533.95,0.7156937135149484
202,1544.5900000000001,0.7983992300081603
203,1555.29,0.7581662544891158
204,1566.07,0.7766750896203961
205,1573.3,0.8327627521435091
206,1584.21,0.8829574045815675
207,1595.19,0.9002278663386603
208,1606.25,0.8907131387460777
209,1613.66,0.9056795252324217
210,1624.85,0.8576796149466173
211,1636.1100000000001,0.9196024139798471
212,1643.66,0.9370990191042596
213,1655.06,0.869080236775558
214,1659.58691,0.9023362622858292
215,1666.53,0.9533480896262537
216,1670.37,0.855778422938033
217,1678.0800000000002,0.9515807187280896
218,1685.8300000000002,1.0012168534068107
219,1693.6100000000001,0.94547651725203
220,1705.35,0.9052624310750216
221,1713.22,0.8489079824197358
222,1725.09,0.8470604226308867
223,1733.06,0.9097021711972616
224,1745.07,0.8890207475187377
225,1753.12,0.9524912738624415
226,1765.28,0.8746343960164089
227,1773.42,0.8928000098596076
228,1785.72,0.9153988681239004
229,1793.96,0.97831297918876
230,1806.3899999999999,0.975627763841212
231,1814.73,0.8895515721277324
232,1823.11,0.9204302193029171
233,1835.7499999999998,0.882493008120857
234,1844.22,0.8100944427955367
235,1857.0,0.8020189677238018
236,1865.57,0.8277646996201424
237,1874.19,0.9153271801273135
238,1882.8400000000001,0.8323666898009827
239,1895.89,0.7885877772277323
240,1904.6399999999999,0.8520372841230626
241,1905.46072,0.8482205949298696
242,1913.43,0.8111423949547125
243,1926.69,0.7952495775488861
244,1935.5900000000001,0.8375939240864536
245,1944.5200000000002,0.8601224330280803
246,1953.5,0.7982073793098058
247,1967.04,0.881664811008532
248,1976.1200000000001,0.9114808319704549
249,1985.24,0.8535448028044567
250,1994.4,0.8291925235105374
251,2003.6100000000001,0.8630315815567169
252,2012.85,0.8287298020069555
253,2026.81,0.8777901073625107
254,2036.1599999999999,0.8160814899609666
255,2045.56,0.8472194098995209
256,2055.0,0.8114699797101544
257,2064.49,0.8175056868608865
258,2074.02,0.8702945438836976
259,2078.8,0.8096342535971328
260,2083.5899999999997,0.8469495507785877
261,2093.21,0.7980346950135764
262,2102.87,0.8112249891206441
263,2112.58,0.8170227205678103
264,2127.22,0.827587773748708
265,2137.04,0.7742082673440915
266,2146.9,0.7813447108115539
267,2156.81,0.814307791619115
268,2166.77,0.7919948097667748
269,2176.77,0.7827486777865137
270,2186.8199999999997,0.7594591831463511
271,2187.7616199999998,0.762596686671572
272,2196.91,0.7930999438548901
273,2207.05,0.7711802753921595
274,2217.2400000000002,0.7395172568876995
275,2227.47,0.7091018783498558
276,2232.6099999999997,0.7516292140600693
277,2242.91,0.7184347054638045
278,2253.27,0.6955827568174644
279,2263.67,0.7182688481377406
280,2274.12,0.7365868894162875
281,2284.61,0.7536286706614509
282,2295.16,0.7179993118565388
283,2305.75,0.7162692930182433
284,2316.3900000000003,0.6871347241382182
285,2327.09,0.5458958152081179
286,2332.4500000000003,0.6545960707347218
287,2343.22,0.6485360317462002
288,2354.03,0.6836664327242951
289,2364.9,0.6468758936523147
290,2375.81,0.6603099945469506
291,2386.78,0.6305545553915113
292,2392.2799999999997,0.6708845508012727
293,2403.33,0.6435863915790664
294,2414.42,0.6599879723234764
295,2425.56,0.684641803026157
296,2436.76,0.6582878936787622
297,2442.38,0.6955913089883731
298,2453.65,0.6843860695825571
299,2464.98,0.6858546901266658
300,2476.35,0.665558650637391
301,2487.78,0.6951760710980408
302,2493.52,0.6532967063075009
303,2505.0299999999997,0.7128203067013836
304,2510.8,0.6606842718858061
305,2511.88643,0.6662108578279086
306,2516.59,0.6901310385229475
307,2522.39,0.6590600956436898
308,2534.0299999999997,0.6650255944170416
309,2545.73,0.6512788699881941
310,2557.4799999999996,0.6849468262241806
311,2563.38,0.6786134446745908
312,2575.21,0.7120648699743116
313,2587.1,0.7086513720718334
314,2593.06,0.7069496673200444
315,2605.0299999999997,0.6875695384813004
316,2617.05,0.6858669903073904
317,2623.09,0.7017465546193359
318,2635.19,0.7080956755091602
319,2647.36,0.7446863693297522
320,2653.46,0.7429024104394983
321,2665.71,0.7044925733238248
322,2678.01,0.7290725168729851
323,2684.19,0.7239764270464657
324,2696.58,0.7057417357923271
325,2702.79,0.7154792343647082
326,2715.27,0.6990659083072708
327,2727.8,0.7021276629146674
328,2734.09,0.7300475305507828
329,2746.71,0.6688060503548806
330,2753.04,0.6733731025228631
331,2765.75,0.6888719875236621
332,2772.1200000000003,0.7129696242235118
333,2784.92,0.706291874421012
334,2797.77,0.6137014052833462
335,2804.2200000000003,0.6514394110469303
336,2817.17,0.7189775032389325
337,2823.66,0.7238876935343838
338,2836.69,0.6943547547901202
339,2843.23,0.6879211257504054
340,2856.36,0.68933604833581
341,2862.94,0.7150979038279623
342,2876.16,0.705113391610068
343,2882.79,0.7099209277670545
344,2884.0315,0.7091463117500703
345,2896.09,0.701627152244268
346,2909.46,0.7294302464344812
347,2929.6299999999997,0.7175102868096942
348,2949.9399999999996,0.7106611260769514
349,2970.38,0.7153081643153925
350,2990.97,0.715030001366738
351,3011.71,0.7196929372309879
352,3032.5800000000004,0.7210779720664215
353,3046.58,0.7159087612708334
354,3067.7,0.7123425941277743
355,3088.96,0.7136865258767595
356,3110.37,0.706835356438649
357,3131.93,0.703287485813443
358,3146.39,0.7047114713774283
359,3168.2,0.6995419987737296
360,3190.1600000000003,0.6817548249829354
361,3212.27,0.6925109500050456
362,3227.1,0.6843790326408616
363,3249.47,0.6887859556053395
364,3272.0,0.690041877303582
365,3287.1,0.688220657802626
366,3309.88,0.6878831775223758
367,3311.31121,0.6889075772330601
368,3325.16,0.6988179710867269
369,3332.83,0.6938863107336016
370,3340.5099999999998,0.6687064488676299
371,3348.2099999999996,0.6936458839759655
372,3355.93,0.6715465160586085
373,3363.66,0.6699073466284052
374,3371.42,0.651553372659663
375,3379.19,0.6774133971780744
376,3386.98,0.6994472186707932
377,3394.79,0.6929153371378194
378,3402.6099999999997,0.6833023540919991
379,3410.46,0.6615420665076401
380,3418.32,0.6799328774104346
381,3426.2,0.6892453852875365
382,3434.1,0.6875399901389458
383,3442.0099999999998,0.6779859934775089
384,3449.95,0.6763003922775329
385,3457.8999999999996,0.6561289895647106
386,3465.87,0.6572110838261956
387,3473.8599999999997,0.6689861750619881
388,3481.8700000000003,0.6624156632720879
389,3489.9,0.6758330484564951
390,3497.94,0.672290832128056
391,3506.0099999999998,0.6595860112610779
392,3514.09,0.6546171888812534
393,3522.19,0.6678572634757364
394,3530.31,0.6628277350445267
395,3538.4500000000003,0.6700377035876244
396,3546.6,0.6742262706178758
397,3554.78,0.6784273331095882
398,3562.97,0.6779880940884543
399,3568.73,0.4798727226889755
400,3571.4,0.3957180187590088
401,3574.0699999999997,0.642228814829042
402,3576.74,0.9532814108990754
403,3579.3999999999996,0.6533677084819549
404,3582.07,0.16562050455198818
405,3584.7400000000002,-0.00660011237797855
406,3587.41,0.41496529669205473
407,3590.07,0.3734405942749343
408,3592.74,1.1879355903449675
409,3595.41,1.1861711864150009
410,3598.0800000000004,0.7995549824850341
411,3600.75,0.23647967855506738
412,3603.4100000000003,0.14282117613794698
413,3606.08,0.3865582722079803
414,3608.75,0.5525812682780135
415,3611.42,0.9692219643480469
416,3614.08,0.1837667619309264
417,3616.7500000000005,0.31848855800095965
418,3619.42,0.1872631540709929
419,3622.09,0.3235750501410262
420,3624.76,0.47002674621105944
421,3627.42,-0.09478675620606095
422,3630.09,0.5710680398639723
423,3632.7599999999998,0.24350633593400559
424,3635.43,-0.03668133799596114
425,3638.09,-0.19599757041308155
426,3640.76,0.7746307256569517
427,3643.43,1.179873921726985
428,3646.1,0.5522146177970183
429,3648.7599999999998,0.34358421537989786
430,3651.43,0.2465289114499311
431,3654.1,0.5902349075199644
432,3656.7699999999995,0.9666720035899977
433,3659.44,0.8243043996600309
434,3662.1,0.6823412972429105
435,3664.77,0.28418669331294377
436,3667.44,1.060820289382977
437,3670.1099999999997,0.9535885854530103
438,3672.77,0.5036555830358899
439,3675.4399999999996,0.7105037791059232
440,3678.11,0.9437934751759565
441,3680.78,1.0423882712459898
442,3683.45,0.25405506731602295
443,3686.11,0.6842406648989026
444,3688.7799999999997,0.5620049609689359
445,3691.45,0.4245854570389691
446,3694.1200000000003,0.7508026531090024
447,3696.78,0.934618250691882
448,3699.4500000000003,0.39305484676191527
449,3702.12,0.5541099428319486
450,3704.79,0.4931120389019818
451,3707.46,0.4547300349720151
452,3710.12,0.5761448325548947
453,3712.7900000000004,0.756450628624928
454,3715.46,0.8943484246949611
455,3718.13,0.4154263207649945
456,3720.79,0.729067018347874
457,3723.46,1.1754158144179072
458,3726.13,1.3261944104879406
459,3728.7999999999997,1.9403280065579738
460,3731.4700000000003,1.692391602628007
461,3734.13,1.4543392002108868
462,3736.8,0.83527219628092
463,3739.47,0.6046642923509532
464,3742.14,0.6610727884209866
465,3744.7999999999997,0.7034024860038661
466,3747.47,0.9227703820738994
467,3750.1400000000003,0.9163384781439327
468,3752.81,0.6808829742139659
469,3755.4700000000003,0.5168440717968456
470,3758.14,0.8833264678668787
471,3760.81,0.975691863936912
472,3763.48,0.8566611600069454
473,3766.1499999999996,0.9060983560769786
474,3768.8100000000004,0.6233713536598582
475,3771.48,0.4274785497298914
476,3774.15,0.7240892457999247
477,3776.82,0.883180641869958
478,3779.48,0.6047003394528376
479,3782.15,0.8417966355228709
480,3784.8199999999997,0.9778314315929041
481,3787.4900000000002,0.8270903276629374
482,3790.1600000000003,0.6734450237329707
483,3792.82,0.19795832131585026
484,3795.4900000000002,0.6783740173858835
485,3798.16,1.0069955134559168
486,3800.83,0.49578150952595007
487,3801.8939600000003,0.44957432573656164
488,3803.49,0.38025925741912997
489,3806.1600000000003,0.871400037652782
490,3808.8300000000004,0.9716381178864338
491,3811.5,1.0284267981200856
492,3814.17,1.0761214783537376
493,3816.83,0.9087787597850163
494,3819.5,1.0457548400186683
495,3822.1699999999996,1.1770025202523202
496,3824.8399999999997,0.5165716004859721
497,3827.5,0.7180742819172509
498,3830.17,0.6826567621509028
499,3832.84,0.7980991423845546
500,3835.5099999999998,0.6367415226182065
501,3838.18,0.5642253028518585
502,3840.8399999999997,0.8135440842831372
503,3843.5099999999998,0.9852559645167891
504,3846.1800000000003,0.37125864475044096
505,3848.85,0.7136216249840929
506,3851.51,1.1099950064153716
507,3854.18,1.2654006866490235
508,3856.85,1.0516393668826753
509,3859.52,0.7592732471163274
510,3862.18,1.017707728547606
511,3864.8500000000004,0.8383005087812578
512,3867.52,1.2656190890149097
513,3870.19,1.2110507692485617
514,3872.86,1.1364304494822137
515,3875.52,1.1693271309134923
516,3878.19,0.7942484111471443
517,3880.8599999999997,1.1782974913807962
518,3883.53,1.0786171716144481
519,3886.19,1.0844508530457269
520,3888.86,0.7318080332793787
521,3891.53,0.31414261351303063
522,3894.2,0.27397819374668253
523,3896.87,1.0809185739803344
524,3899.5299999999997,0.9369337554116131
525,3902.2000000000003,1.0139349356452652
526,3904.87,0.477380415878917
527,3907.54,0.8361294961125689
528,3910.2,0.8984115775438476
529,3912.87,1.3218036577774996
530,3915.54,1.1771323380111516
531,3918.2099999999996,1.1344630182448034
532,3920.88,1.0666136984784553
533,3923.54,0.9728479799097339
534,3926.21,1.2185770601433858
535,3928.88,1.3476607403770378
536,3931.5499999999997,0.6946617206106898
537,3934.21,0.4695457020419684
538,3936.8799999999997,1.0778527822756203
539,3939.55,0.5247316625092722
540,3942.2200000000003,0.7020525427429242
541,3944.89,0.8022104229765761
542,3947.55,0.7748298044078548
543,3950.22,1.2043521846415066
544,3952.89,1.0996238648751586
545,3955.5600000000004,1.1729585451088105
546,3958.2200000000003,0.8186386265400892
547,3960.8900000000003,1.165809906773741
548,3963.56,1.1370825870073928
549,3966.23,0.7813156672410448
550,3968.9,0.8732203474746968
551,3971.56,0.4302783289059755
552,3974.2300000000005,0.6454998091396275
553,3976.9,0.6635474893732793
554,3979.57,0.5619850696069313
555,3982.23,1.09355335103821
556,3984.9,1.038284031271862
557,3987.5699999999997,0.8074352115055138
558,3990.24,0.8984986917391657
559,3992.8999999999996,1.1685720731704443
560,3995.57,1.0916277534040963
561,3998.2400000000002,1.7157384336377484
562,4000.91,1.0305081138714003
563,4003.58,0.988859994105052
564,4006.24,0.9918882755363307
565,4008.91,1.1097141557699828
566,4011.58,0.9923261360036346
567,4014.2499999999995,1.3921995162372864
568,4016.9100000000003,1.2889001976685652
569,4019.58,1.0788248779022171
570,4022.25,1.310010558135869
571,4024.92,1.374771238369521
572,4027.5899999999997,1.0909989186031728
573,4030.25,0.9435084000344516
574,4032.9199999999996,1.0377972802681035
575,4035.59,1.3092869605017554
576,4038.26,1.1212466407354074
577,4040.92,1.085894322166686
578,4043.59,1.2518970024003377
579,4046.2599999999998,1.1665196826339896
580,4048.93,1.1075443628676416
581,4051.6000000000004,1.0464850431012935
582,4054.26,0.6981548245325723
583,4056.9300000000003,0.7859734047662242
584,4059.6,1.170143084999876
585,4062.27,1.222023765233528
586,4064.93,1.2482694466648068
587,4067.6,1.5340631268984588
