,lambda (Angstroms),Total Flux (erg/s/cm^2/Angstrom)
0,102.00000000000001,0.011956455735218195
1,103.9,0.013995258342098646
2,104.712855,0.014867498414772301
3,106.07000000000001,0.013652444884517865
4,108.05,0.011879770408481118
5,110.05,0.010089248371984395
6,113.91999999999999,0.006624556947880746
7,117.92,0.0030435286378872883
8,120.22644299999999,0.000980376281940605
9,120.95,0.0009509827255054268
10,124.91,0.0007880267390038866
11,126.94,0.0007044380244841574
12,128.12,0.0006559249945367283
13,131.1,0.0005333174149067814
14,132.01,0.0004968502878117306
15,133.85,0.00042129235811404496
16,136.96,0.00029506973918480404
17,138.038426,0.00025087728119743935
18,140.15,0.0002487364050970556
19,143.09,0.00026777149205927053
20,147.10000000000002,0.0003221863723376657
21,150.87,0.00032860797551710456
22,155.1,0.00033692710563620984
23,158.489319,0.00034656121456954573
24,159.07999999999998,0.0003477765728454082
25,162.02999999999997,0.000353878755236998
26,166.19,0.0003654434683722568
27,170.06,0.0003756201228995288
28,172.82,0.00038600473930657555
29,176.85,0.0003980873020313575
30,180.14,0.000407671839342656
31,181.8,0.0004155703368918217
32,181.970086,0.0004161604818484171
33,186.04,0.0004423755679132809
34,190.81,0.00047807852785407463
35,193.91,0.000502855060100712
36,197.97,0.00053238238491405
37,202.12,0.0005659036184055162
38,204.93,0.0005913162560226295
39,208.929613,0.00060839356980886
40,210.19,0.0006184004811317089
41,216.07999999999998,0.000713563580922348
42,220.09,0.0007686164843451773
43,223.15,0.0008024149071566128
44,226.78,0.0008600302783348847
45,229.94,0.0012037758254212039
46,234.21,0.00184641847195873
47,239.88329199999998,0.0022694340278308664
48,240.22000000000003,0.0022918420819826764
49,245.80999999999997,0.0022133819937564725
50,252.11999999999998,0.0023711152412149075
51,256.81,0.002065903233382904
52,259.78000000000003,0.0023578238680820405
53,264.0,0.002483699780011454
54,268.91,0.0025025305969719794
55,273.90999999999997,0.0025164017058930854
56,275.42287,0.0025205344271036698
57,279.0,0.0025570728461686647
58,284.19,0.0026153997780374283
59,290.14000000000004,0.0025678381700642385
60,296.21000000000004,0.0026676012136949505
61,301.03000000000003,0.00268051055311835
62,308.04,0.002774837534312961
63,316.227766,0.0028911747118549095
64,318.13,0.0029054696111909207
65,327.79999999999995,0.0029197165391196427
66,337.76,0.0029036497378962796
67,348.02,0.002880702906515586
68,356.95,0.0028734961088323894
69,363.078055,0.002880870255395915
70,366.09999999999997,0.002899733901798896
71,374.63000000000005,0.0029125827753234304
72,385.13,0.0028445979408577332
73,395.01,0.0029452106642366776
74,405.14,0.0029858885820331056
75,413.62,0.0029800850166741425
76,416.86938299999997,0.002973640287471286
77,422.28000000000003,0.00295812855331231
78,430.14,0.002938234948361138
79,441.17,0.0029529493576981067
80,451.45,0.002925037836209805
81,459.84,0.002889708609041824
82,469.47,0.002873737680838289
83,478.630092,0.0028810421923241205
84,480.4,0.0028770326377987668
85,490.46,0.0027868324880867745
86,499.58000000000004,0.0027820746724432984
87,506.53,0.0027369094258728865
88,512.4,0.002979965775891834
89,519.52,0.002955641139117541
90,530.4,0.0028948211660691846
91,540.26,0.002778828534244111
92,549.5408739999999,0.002853903164281317
93,550.31,0.002861026209527088
94,560.54,0.0029890786742390366
95,569.65,0.003092097550439022
96,580.24,0.0030092404186012446
97,589.67,0.0031731543200903623
98,600.63,0.0031204369362431436
99,610.39,0.003056107207561679
100,620.3100000000001,0.0034882269915247808
101,630.38,0.0035506199435921633
102,630.957344,0.003554621706579011
103,640.63,0.003634510110180516
104,649.54,0.0038257154016825344
105,658.58,0.003907286795080766
106,664.67,0.00410145733775723
107,675.4699999999999,0.004189920418365737
108,684.8700000000001,0.004081653247784253
109,694.39,0.004815466555876197
110,705.6800000000001,0.0045610681744012015
111,715.49,0.005337666555953928
112,724.43596,0.005524654841123319
113,725.4499999999999,0.005545517087872666
114,735.54,0.005759036500571868
115,745.7700000000001,0.006206479636539444
116,754.41,0.00653034112967335
117,764.9,0.006592366037425047
118,775.54,0.0073611860058214315
119,784.52,0.0076287589697499585
120,795.44,0.008136929384683089
121,804.65,0.0085649431082668
122,815.84,0.008937234632360366
123,825.2900000000001,0.009683356452975576
124,831.763771,0.008659054844904148
125,834.84,0.008168080586652667
126,844.51,0.0102953849418339
127,854.2900000000001,0.01061230928450944
128,864.18,0.011439857614679286
129,874.1899999999999,0.0121975224766611
130,884.31,0.013096243326137222
131,894.5500000000001,0.01381328070742531
132,904.91,0.01395995462052537
133,915.39,0.018678205065437402
134,925.99,0.1039713320421614
135,934.56,0.2224840285223996
136,945.38,0.41500259747411217
137,954.13,0.5874463237520684
138,954.992586,0.5922209529809739
139,965.1700000000001,0.648563587049067
140,974.0999999999999,0.10758785241269557
141,985.38,0.5235906665562263
142,994.5,0.5662126035233361
143,1006.02,0.8509696817975804
144,1015.3299999999999,0.8296764903681717
145,1024.72,0.3724324869823343
146,1034.2,0.5753826701455144
147,1046.18,1.1165360796702926
148,1055.86,1.0911346329424003
149,1065.63,0.8470574727635258
150,1075.49,1.0183276991336687
151,1085.44,0.7941687120528294
152,1095.48,1.0737087115210073
153,1096.4782,1.0694176805200706
154,1105.62,1.0301162860911308
155,1115.8500000000001,0.9837470008222157
156,1126.1699999999998,0.8747761734541605
157,1133.98,1.1346850201843437
158,1144.47,1.0277371132956907
159,1155.06,1.0961521596302153
160,1165.75,1.126858159187918
161,1173.83,0.7584064796206811
162,1184.69,1.091102299657786
163,1195.65,0.7445645729180684
164,1203.94,0.5320282951195048
165,1215.0800000000002,0.3828076841815072
166,1226.32,0.7531521264666874
167,1234.82,1.139871850436797
168,1246.25,1.249806503846015
169,1254.8899999999999,1.1880884623285737
170,1258.92541,1.1103947277069508
171,1263.59,1.020589729892474
172,1275.28,1.329983118842716
173,1284.12,1.3958494129676209
174,1296.0,1.0835688082395518
175,1304.99,1.073617107355264
176,1314.03,1.3609494081345785
177,1326.1899999999998,1.2967068127226828
178,1335.3799999999999,1.1424751184928048
179,1344.64,1.3735304265919699
180,1353.9599999999998,1.3269207366874578
181,1366.49,1.1771921535862202
182,1375.96,1.2383514686725152
183,1385.5,1.249799786087854
184,1395.1,1.0662401054995152
185,1404.77,1.1036924272402202
186,1414.51,1.1530657513099685
187,1424.31,1.1826200773760394
188,1434.1899999999998,1.1799164061038745
189,1440.81,1.2469266263648326
190,1445.43977,1.2630787599556346
191,1447.46,1.27012683682146
192,1454.1399999999999,1.2298370233597147
193,1464.22,1.12941130484259
194,1474.3700000000001,1.1320115882802078
195,1484.5900000000001,1.1557168736725676
196,1494.88,1.1771861610196694
197,1505.24,1.1088124503215138
198,1512.1899999999998,0.9836944443994885
199,1515.67,1.0540407415781001
200,1526.18,1.0300490350686777
201,1536.76,0.8909840305139973
202,1543.85,0.9791909285014564
203,1554.5500000000002,0.9244205272977627
204,1565.3300000000002,0.9481137283280601
205,1576.18,1.0276944313130996
206,1583.45,1.0835806343270384
207,1594.43,1.1139169409423135
208,1605.48,1.0885682495123308
209,1616.61,1.086054560316339
210,1624.07,1.0206037686360068
211,1635.3300000000002,1.0961060830702507
212,1646.67,1.1268153997384855
213,1654.27,1.0229696119676377
214,1659.58691,1.0759857557035364
215,1665.73,1.137241013203525
216,1673.4199999999998,0.9859746814270091
217,1677.28,1.1908193685977044
218,1685.0200000000002,1.2440849470177
219,1696.6999999999998,1.1477773289228097
220,1704.53,1.1062749256965263
221,1716.3500000000001,1.0687093361518682
222,1724.27,1.0662559512793057
223,1736.22,1.1504343882455779
224,1744.24,1.1216530237660383
225,1756.3300000000002,1.212997489282543
226,1764.4299999999998,1.0860871411174222
227,1776.6599999999999,1.1346616351841596
228,1784.8700000000001,1.1477933094513642
229,1793.1,1.2556269877971735
230,1805.53,1.2298845226499568
231,1813.87,1.150442223428092
232,1826.44,1.158407786831108
233,1834.8700000000001,1.1037425059629635
234,1843.34,1.0066372332520284
235,1856.12,1.0324568394803932
236,1864.69,1.0811075871624813
237,1873.29,1.1451593409624765
238,1886.28,1.06873599001619
239,1894.98,1.0468327642092081
240,1903.7299999999998,1.0861095485987382
241,1905.46072,1.083188787084263
242,1916.93,1.063827886634298
243,1925.77,1.0372375628781905
244,1934.66,1.020650225978666
245,1943.5900000000001,1.121677878564408
246,1957.07,1.061379335099212
247,1966.1000000000001,1.1691389613981205
248,1975.17,1.1881375771822948
249,1984.29,1.1294511798230527
250,1993.45,1.098666771949077
251,2007.27,1.1113851391086462
252,2016.53,1.0761237049478367
253,2025.84,1.1062742576436102
254,2035.19,1.0786027998246503
255,2044.59,1.1320373288622734
256,2054.02,1.0637918500138464
257,2063.5,1.0637893580220024
258,2073.0299999999997,1.1718068528867416
259,2077.81,1.1451185963760862
260,2087.4,1.174498075468725
261,2097.03,1.1088115440466304
262,2106.71,1.093601999481119
263,2116.44,1.1088024417721907
264,2126.21,1.1268078735485287
265,2136.02,1.0229642948101334
266,2145.88,1.076089702928321
267,2155.79,1.1113510979030918
268,2165.74,1.0613224823631289
269,2175.73,1.0564538563084327
270,2185.7799999999997,1.0540172144816362
271,2187.7616199999998,1.064784085344337
272,2195.86,1.1087893908589268
273,2206.0,1.0736185160301348
274,2216.1800000000003,1.0042726495846612
275,2226.41,0.9770781936183355
276,2236.69,1.0677719481311578
277,2247.01,1.0139701110272985
278,2257.38,0.9584797844025872
279,2262.5899999999997,0.9769175763298055
280,2273.03,1.0125235643759012
281,2283.52,1.051872762901145
282,2294.06,0.9806844719055369
283,2304.65,1.0001911913890766
284,2315.29,0.9520299213517641
285,2325.98,0.7366099617935998
286,2336.71,0.8625737106187539
287,2347.5,0.8135168720188855
288,2352.91,0.9239236058626956
289,2363.77,0.8151122819336344
290,2374.6800000000003,0.8605810684837211
291,2385.64,0.7662550655129557
292,2396.66,0.8297221751171681
293,2407.7200000000003,0.8008017931046987
294,2413.27,0.8256826562901232
295,2424.41,0.9086073910442906
296,2435.6,0.8769357362776059
297,2446.84,0.9322874919900692
298,2452.48,0.92435757403796
299,2463.7999999999997,0.91502974651706
300,2475.17,0.8730193294753081
301,2486.6,0.8843240250085337
302,2492.33,0.8183197259188909
303,2503.8300000000004,0.9560920361229236
304,2511.88643,0.8576943981624173
305,2515.3900000000003,0.8149023404243564
306,2527.0,0.7901431986893859
307,2532.83,0.8091105257940475
308,2544.52,0.8027974775699473
309,2556.26,0.8834836252901409
310,2562.16,0.8482097467168139
311,2573.98,0.9101149879478777
312,2585.8599999999997,0.8968378243120939
313,2597.8,0.8776399558094629
314,2603.7900000000004,0.842618069935865
315,2615.81,0.820797594944104
316,2627.88,0.8909484158966369
317,2633.94,0.9357348243450502
318,2646.1,1.0489617379973122
319,2652.2000000000003,1.0865872432011605
320,2664.44,0.9543198503642925
321,2676.7400000000002,1.012291252660577
322,2682.91,1.0153537521864369
323,2695.29,0.9511597479935915
324,2707.73,0.9928150389338989
325,2713.97,0.9250994327817701
326,2726.5,0.9222041164218063
327,2732.79,0.9775262062139713
328,2745.4,0.8086873833648777
329,2758.07,0.8460772556489367
330,2764.43,0.890695239763113
331,2777.19,0.9426676047469009
332,2783.59,0.8524873856165124
333,2796.44,0.6417220433000292
334,2802.8900000000003,0.6960782201139346
335,2815.82,0.9274342713083215
336,2822.31,1.0129644448776618
337,2835.34,0.9800519879606365
338,2841.88,0.9453140574742708
339,2854.9999999999995,0.8896739932569743
340,2868.17,1.0136077249839717
341,2874.79,1.021392188008476
342,2884.0315,1.0159322627135732
343,2888.0499999999997,1.013558431721521
344,2894.7099999999996,1.0073434206657956
345,2908.0699999999997,1.1241633984879442
346,2928.23,1.071073365021965
347,2948.5299999999997,1.0539313313235832
348,2968.9700000000003,1.0834622973927988
349,2989.55,1.0909882632296117
350,3010.27,1.1087312288340219
351,3031.14,1.1087531941894293
352,3052.15,1.113937159312434
353,3073.2999999999997,1.1294841242030362
354,3087.49,1.1417311006473694
355,3108.8900000000003,1.1444300651229669
356,3130.44,1.1262330293495615
357,3152.14,1.1393699933271533
358,3166.6899999999996,1.1464809691738795
359,3188.64,1.0799719327364665
360,3210.7400000000002,1.128397896050051
361,3232.9999999999995,1.065431859098032
362,3247.92,1.1540518343305517
363,3270.44,1.205825796946928
364,3293.1,1.2005027593309017
365,3308.3,1.1997057340986157
366,3311.31121,1.2022847674029606
367,3323.58,1.2127923397724134
368,3331.24,1.2138060966963697
369,3338.92,1.1521658529856627
370,3346.6099999999997,1.2242446089576242
371,3354.33,1.1728253639775907
372,3362.06,1.1391961186802253
373,3369.81,1.1938688727481968
374,3377.58,1.1437256261815052
375,3385.36,1.1632813792974817
376,3393.1699999999996,1.238925131461463
377,3400.99,1.319485883308113
378,3408.83,1.1961366345200997
379,3416.69,1.2054383850974228
380,3424.57,1.283828135040083
381,3432.46,1.3270048846654117
382,3440.37,1.2596306336560765
383,3448.3,1.1604093820120784
384,3456.25,1.1939431297334169
385,3464.2200000000003,1.130705876820092
386,3472.21,1.243692623272104
387,3480.21,1.1483763694067841
388,3488.23,1.214675114906801
389,3496.2700000000004,1.1880358597721548
390,3504.33,1.245070604002845
391,3512.4100000000003,1.209391347598872
392,3520.51,1.261652090560236
393,3528.6299999999997,1.1489998328869364
394,3536.7599999999998,1.243621574896305
395,3544.91,1.2884323162710105
396,3553.08,1.3044660570110527
397,3560.4,1.325175824724285
398,3563.06,1.5158097403140665
399,3565.72,1.4814576559038475
400,3568.3900000000003,1.168838571176297
401,3571.05,1.177589486766078
402,3573.71,1.4113494023558595
403,3576.37,1.3910513179456405
404,3579.03,1.0540442335354216
405,3581.69,0.9165417491252029
406,3584.35,1.092832064714984
407,3587.0099999999998,1.0934099803047652
408,3589.6699999999996,1.2836348958945465
409,3592.3300000000004,1.1850638114843277
410,3594.9900000000002,1.3221327270741088
411,3597.65,1.21946364266389
412,3600.31,1.2123285582536711
413,3602.97,1.2409424738434525
414,3605.63,1.2001063894332336
415,3608.29,1.0109433050230148
416,3610.95,1.196563220612796
417,3613.6099999999997,1.1525211362025771
418,3616.27,1.3453970517923584
419,3618.9300000000003,1.0173079673821395
420,3621.59,1.0327848829719204
421,3624.25,1.1063577985617017
422,3626.91,1.2495497141514829
423,3629.5699999999997,1.2248656297412641
424,3632.23,1.3021025453310453
425,3634.89,1.1867294609208263
426,3637.5499999999997,1.2552883765106075
427,3640.21,1.3245222921003887
428,3642.88,1.2995892073728386
429,3645.54,1.0876701229626193
430,3648.2,1.3454400385524006
431,3650.86,1.3647249541421818
432,3653.52,1.261380869731963
433,3656.18,1.2740367853217442
434,3658.8399999999997,1.2589227009115254
435,3661.4999999999995,1.3396786165013066
436,3664.1600000000003,1.3340625320910877
437,3666.82,1.108691447680869
438,3669.48,1.3112103632706502
439,3672.14,1.3785392788604314
440,3674.7999999999997,1.4157351944502126
441,3677.46,1.3924731100399936
442,3680.12,1.3490580256297748
443,3682.7799999999997,1.332520941219556
444,3685.4399999999996,1.2639618568093371
445,3688.1000000000004,1.4547647723991184
446,3690.76,1.2141346879888997
447,3693.42,1.2826456035786808
448,3696.08,1.263890519168462
449,3698.74,1.2365784347582431
450,3701.4,1.1334513503480244
451,3704.06,1.1544712659378056
452,3706.72,1.2616011815275867
453,3709.38,1.2026370971173679
454,3712.04,1.3358010127071491
455,3714.7000000000003,1.4914569282969303
456,3717.36,2.200621843886711
457,3720.0299999999997,3.060219759159161
458,3722.69,3.6881916747489423
459,3725.35,3.446163590338723
460,3728.0099999999998,2.6103955059285044
461,3730.6699999999996,1.8217324215182857
462,3733.3300000000004,1.4124293371080667
463,3735.9900000000002,1.354140252697848
464,3738.65,1.3254301682876293
465,3741.31,1.3505000838774104
466,3743.97,1.2775069994671915
467,3746.63,1.3923259150569727
468,3749.29,1.469899830646754
469,3751.95,1.494922746236535
470,3754.6099999999997,1.4213746618263163
471,3757.27,1.4401055774160976
472,3759.9300000000003,1.5423164930058784
473,3762.59,1.3080024085956596
474,3765.25,1.410237324185441
475,3767.91,1.4670092397752221
476,3770.5699999999997,1.4080441553650032
477,3773.23,1.6165900709547845
478,3775.89,1.7590589865445656
479,3778.55,1.7396299021343469
480,3781.21,1.7646768177241279
481,3783.87,1.672251733313909
482,3786.53,1.5994756489036903
483,3789.19,1.3124155644934714
484,3791.85,1.2008504800832527
485,3794.5099999999998,1.323890395673034
486,3797.18,1.4347003109454834
487,3799.8399999999997,1.4136802265352646
488,3801.8939600000003,1.6114734206950319
489,3802.4999999999995,1.669834146132172
490,3805.1600000000003,1.8760170793098274
491,3807.82,1.7012700124874829
492,3810.48,1.7433839456651383
493,3813.14,1.7238578788427936
494,3815.7999999999997,1.6998478120204492
495,3818.46,1.7676117451981044
496,3821.12,1.66600367837576
497,3823.7799999999997,1.3659986115534153
498,3826.44,1.3484735447310707
499,3829.1,1.2546034779087263
500,3831.76,1.1809584110863818
501,3834.42,1.266151344264037
502,3837.08,1.5622022774416926
503,3839.74,1.598916210619348
504,3842.4,1.5937341437970034
505,3845.06,1.915410076974659
506,3847.7200000000003,1.8298570101523144
507,3850.38,1.8200219433299698
508,3853.04,1.7606478765076252
509,3855.7000000000003,1.9054558096852807
510,3858.36,1.8415497428629362
511,3861.02,1.8966336760405917
512,3863.68,1.7954826092182472
513,3866.3399999999997,2.0000265423959025
514,3869.0,1.824628475573558
515,3871.6600000000003,1.6566064087512136
516,3874.3300000000004,1.630514341677657
517,3876.9900000000002,1.5643672748553124
518,3879.65,1.489083208032968
519,3882.31,1.3592461412106234
520,3884.97,1.2737890743882787
521,3887.63,1.3224120075659342
522,3890.29,1.6506689407435897
523,3892.95,1.6974838739212452
524,3895.61,1.8477878070989007
525,3898.27,1.984205740276556
526,3900.9300000000003,1.9941626734542115
527,3903.59,1.976902606631867
528,3906.25,1.8323125398095224
529,3908.91,1.9286654729871777
530,3911.5699999999997,2.020849406164833
531,3914.23,1.8375203393424886
532,3916.89,1.879248272520144
533,3919.55,1.8340732056977995
534,3922.21,1.8844801388754548
535,3924.87,1.5920210720531103
536,3927.53,1.3919620052307657
537,3930.19,1.5487019384084213
538,3932.85,1.5410848715860768
539,3935.5099999999998,1.518111804763732
540,3938.1699999999996,1.6271937379413877
541,3940.8300000000004,1.9306216711190431
542,3943.4900000000002,2.0489846042966984
543,3946.15,2.040499537474354
544,3948.81,1.9956374706520095
545,3951.48,1.947969403578453
546,3954.14,1.8901623367561085
547,3956.7999999999997,1.6029592699337638
548,3959.46,1.3864602031114193
549,3962.12,1.3468781362890747
550,3964.7799999999997,1.2992920694667303
551,3967.44,1.2310710026443856
552,3970.1,1.3177099358220412
553,3972.76,1.5106098689996965
554,3975.42,1.740343802177352
555,3978.08,1.7799507353550075
556,3980.74,1.810566668532663
557,3983.4,1.9381136017103184
558,3986.06,2.059899534887974
559,3988.7200000000003,2.0005254680656295
560,3991.38,1.9360894012432848
561,3994.04,2.0234033344209403
562,3996.7000000000003,2.053151267598596
563,3999.36,2.036108200776251
564,4002.02,2.0319141339539066
565,4004.68,1.9333190671315619
566,4007.3399999999997,1.9930790003092174
567,4010.0000000000005,2.173298933486873
568,4012.6600000000003,2.1031978666645283
569,4015.32,2.0759817998421837
570,4017.98,2.0593007330198394
571,4020.64,2.1044526661974947
572,4023.3,2.09628059937515
573,4025.97,1.9480885323015937
574,4028.63,1.9649154654792491
575,4031.29,1.9459433986569046
576,4033.95,2.06413733183456
577,4036.61,2.0660172650122157
578,4039.27,2.061269198189871
579,4041.9300000000003,2.0291601313675263
580,4044.59,2.150680064545182
581,4047.25,2.1455939977228375
582,4049.91,2.0490489309004927
583,4052.5699999999997,1.9672798640781481
584,4055.23,1.9702687972558035
585,4057.8900000000003,1.9822027304334588
586,4060.55,2.0983716636111147
587,4063.21,2.0696845967887696
