,lambda (Angstroms),Total Flux (erg/s/cm^2/Angstrom)
0,102.05000000000001,0.002350183926990419
1,103.95,0.002749142225632589
2,104.712855,0.002909325033688777
3,105.88,0.0027048394498985127
4,108.10000000000001,0.0023158920681861273
5,110.11,0.001963737022740493
6,113.98,0.0012857071685092808
7,117.97999999999999,0.0005849011543226302
8,120.22644299999999,0.0001913215664430584
9,121.01,0.00018496961726282185
10,124.97,0.00015286715202625936
11,127.0,0.0001364106242967412
12,127.88000000000001,0.00012927685626617166
13,130.86,0.00010511918112965237
14,132.07,9.531068915161954e-05
15,133.91,8.039478030370157e-05
16,137.03,5.5103649201318935e-05
17,138.038426,4.6929120176285926e-05
18,139.9,4.639728821961044e-05
19,143.16,4.548303249870591e-05
20,147.17,4.439157790551964e-05
21,150.94,4.333554234474353e-05
22,155.17,4.215457642851463e-05
23,158.489319,4.123704445410779e-05
24,159.14999999999998,4.09529366822737e-05
25,162.10999999999999,3.968423541988649e-05
26,165.89,3.8077766175351457e-05
27,170.14000000000001,3.626893648982926e-05
28,172.91,3.51068594355007e-05
29,176.93,3.3420487491312646e-05
30,179.81,3.222260999547644e-05
31,181.89000000000001,3.1359327865150294e-05
32,181.970086,3.132624931696798e-05
33,186.13000000000002,3.2026957026445906e-05
34,190.9,3.2867746114145357e-05
35,194.0,3.342822901872989e-05
36,198.07000000000002,3.4169141418297345e-05
37,202.21,3.495086285667798e-05
38,205.03,3.550762770600974e-05
39,208.929613,3.623568977595701e-05
40,209.79999999999998,3.7023242863637995e-05
41,216.17999999999998,4.299400687105639e-05
42,220.20000000000002,4.6771529452533224e-05
43,222.75,4.918832786615654e-05
44,226.89000000000001,5.313388780827446e-05
45,230.04,5.7795169025103265e-05
46,233.78,6.45865140984175e-05
47,239.78,7.318055213047242e-05
48,239.88329199999998,7.327991789629292e-05
49,245.93,6.961629077244484e-05
50,252.24,6.75486311260389e-05
51,256.93,6.295874663449474e-05
52,259.9,6.385442551724823e-05
53,264.13,6.287184483510922e-05
54,269.04,6.093228026080604e-05
55,274.04,5.885273928901054e-05
56,275.42287,5.829869001386968e-05
57,279.13,6.224164387476452e-05
58,284.32,6.789984537987531e-05
59,290.28000000000003,7.323018090404881e-05
60,295.67,7.974887903748756e-05
61,301.17,8.52478663165067e-05
62,308.19,9.350285997081839e-05
63,316.227766,0.0001031707700722409
64,318.28000000000003,0.00010295101135954746
65,327.95,0.00010156390739308766
66,337.92,9.970810038733747e-05
67,348.19000000000005,9.767191034229687e-05
68,357.12,9.643990587275336e-05
69,363.078055,9.616126221053664e-05
70,366.28000000000003,9.91687490092164e-05
71,374.81,0.0001062275580593001
72,385.31,0.00011245360262270914
73,395.2,0.00012333038923529157
74,405.33,0.00013295313012360904
75,413.82,0.0001397458401277369
76,416.86938299999997,0.00014184636501308125
77,421.51,0.000144240647648922
78,430.34000000000003,0.00014892715772144325
79,441.37999999999994,0.00015700413863884238
80,450.62,0.0001624414342979699
81,460.06,0.00016675909609690544
82,469.68999999999994,0.0001726884507286585
83,478.630092,0.0001790669011705919
84,479.53000000000003,0.0001791695930934826
85,489.57,0.00017644488862813873
86,499.82,0.00017864180967696594
87,505.61,0.00017813998599625465
88,511.46,0.00020672296103387802
89,519.77,0.00020873948352321988
90,529.43,0.00021046557717509023
91,540.52,0.00020500474028060185
92,549.5408739999999,0.00022625727792919837
93,550.57,0.00022891785782739384
94,559.52,0.0002517366680839789
95,569.92,0.00027307140793520623
96,580.51,0.0002698942206298694
97,589.9499999999999,0.00030684880295636804
98,599.53,0.0003165874915885563
99,610.68,0.0003437336295059778
100,620.6,0.0003949281905948408
101,630.68,0.0004246470446044919
102,630.957344,0.00042494983678108544
103,639.46,0.000436442039534574
104,649.85,0.0004914111734940972
105,657.37,0.0005285051736264951
106,664.99,0.0005602618913138452
107,674.24,0.0005722826651469143
108,685.1899999999999,0.0005763359374141693
109,694.72,0.0007357497804011044
110,704.39,0.0007186933079649725
111,715.8299999999999,0.0008576855762514927
112,724.43596,0.0008981600182893511
113,725.7900000000001,0.000904441100889106
114,734.2,0.0009509954100764987
115,744.41,0.0010859560964978164
116,754.77,0.0011778324143552942
117,765.27,0.001255653614886522
118,774.13,0.001392562618382396
119,784.9000000000001,0.0015182167354987122
120,795.82,0.001605154584051189
121,805.0300000000001,0.0016970922942314375
122,814.3499999999999,0.0017825513407982035
123,825.6800000000001,0.0019838139886095185
124,831.763771,0.0017608917750718519
125,835.24,0.0016325771351178796
126,844.91,0.00213303285481109
127,854.7,0.0022186053704053533
128,864.5899999999999,0.002424460382583828
129,874.61,0.0026384823403217774
130,884.7299999999999,0.002917930794643937
131,894.9799999999999,0.0031203071945255715
132,905.34,0.0031254802406498385
133,915.8199999999999,0.005124405082675159
134,924.3,0.03913624799301626
135,935.0,0.08775021812752684
136,945.83,0.1714404942075969
137,954.58,0.2518153751587154
138,954.992586,0.2526275891718682
139,965.63,0.2735699877114971
140,974.57,0.03931108624981535
141,985.85,0.2133558963518545
142,994.98,0.24382012933338085
143,1004.18,0.38817966026766804
144,1015.8100000000001,0.38640892013351164
145,1025.21,0.17025854521854425
146,1034.7,0.25944996767141226
147,1044.27,0.5407866877845784
148,1053.93,0.53460790526558
149,1066.14,0.4055382481685852
150,1076.0,0.5023849598003322
151,1085.96,0.3819761685074518
152,1096.0,0.5445494748748696
153,1096.4782,0.543678105108021
154,1106.15,0.5260536755758635
155,1113.81,0.501216274413625
156,1124.12,0.44671403068220494
157,1134.52,0.6039820787125861
158,1145.02,0.5457938175894135
159,1155.61,0.595693248228042
160,1166.31,0.6180225687977612
161,1174.39,0.4074019291905958
162,1185.26,0.6081459341992731
163,1196.22,0.39177583096975177
164,1204.52,0.2660887712247676
165,1215.6599999999999,0.19956125151884907
166,1224.0900000000001,0.42074107987424464
167,1235.41,0.6745366436919288
168,1243.98,0.7498982592323488
169,1255.49,0.7095917056582803
170,1258.92541,0.6657011458607673
171,1264.19,0.5984416254731951
172,1275.89,0.8147089016502943
173,1284.73,0.8669772592063247
174,1293.64,0.6501421172181157
175,1305.6100000000001,0.644179095153148
176,1314.66,0.8531167540764598
177,1323.77,0.8147140133904233
178,1336.02,0.7030933931484973
179,1345.2800000000002,0.8810748534390903
180,1354.6,0.8550961141203351
181,1363.99,0.7499085752573403
182,1373.45,0.8035326368501061
183,1386.1599999999999,0.8165806196031771
184,1395.77,0.7063395821725722
185,1405.44,0.7413185451326192
186,1415.18,0.7550965085484266
187,1424.9899999999998,0.7906919724199943
188,1434.8700000000001,0.7852543367473226
189,1441.49,0.8394884798492368
190,1445.43977,0.8522487535115945
191,1448.15,0.8610045203757025
192,1454.83,0.8337002568785666
193,1464.92,0.7603290120153781
194,1475.07,0.7656114674800596
195,1485.29,0.7888819233272562
196,1495.59,0.8109785796116128
197,1505.96,0.7620857362784843
198,1512.91,0.6652800742567638
199,1516.3999999999999,0.726122793327871
200,1523.4,0.6998602315793755
201,1533.95,0.5984449892298572
202,1544.5900000000001,0.6792187473721439
203,1555.29,0.6412383058423008
204,1566.07,0.6516490647496177
205,1573.3,0.7030988042579573
206,1584.21,0.7481876638756593
207,1595.19,0.7673802238758763
208,1606.25,0.7568487843132534
209,1613.66,0.7656092248052031
210,1624.85,0.7194674859529653
211,1636.1100000000001,0.7762560474832424
212,1643.66,0.7925210887402222
213,1655.06,0.7261194510355296
214,1659.58691,0.758143239680243
215,1666.53,0.8072595528453442
216,1670.37,0.7047113060852486
217,1678.0800000000002,0.8128536137622439
218,1685.8300000000002,0.861010223035488
219,1693.6100000000001,0.8035358335059191
220,1705.35,0.7691484020050013
221,1713.22,0.7244545160669925
222,1725.09,0.7227851897538842
223,1733.06,0.7816531078064979
224,1745.07,0.7638599870802609
225,1753.12,0.8260608083253728
226,1765.28,0.7499026935850694
227,1773.42,0.7727037184217416
228,1785.72,0.7906869092683099
229,1793.96,0.8570642380956044
230,1806.3899999999999,0.853134134129982
231,1814.73,0.778056266947899
232,1823.11,0.8016975013620651
233,1835.7499999999998,0.7656107057767498
234,1844.22,0.6998761437824762
235,1857.0,0.7014950537840325
236,1865.57,0.7294819957803813
237,1874.19,0.8035457397720414
238,1882.8400000000001,0.7345393849608882
239,1895.89,0.7047181057371253
240,1904.6399999999999,0.7533754549165946
241,1905.46072,0.7505194567642218
242,1913.43,0.7227866777321104
243,1926.69,0.7112399956434372
244,1935.5900000000001,0.7362268378312811
245,1944.5200000000002,0.7727027784759378
246,1953.5,0.7211274165486163
247,1967.04,0.8016916200568641
248,1976.1200000000001,0.8279681529855858
249,1985.24,0.7798491838567245
250,1994.4,0.7568568126702807
251,2003.6100000000001,0.7834454389118585
252,2012.85,0.7533728636102491
253,2026.81,0.7961829455138785
254,2036.1599999999999,0.7499082645539166
255,2045.56,0.7870698810219764
256,2055.0,0.7516388954324535
257,2064.49,0.7551006072709522
258,2074.02,0.8147178170518681
259,2078.8,0.7726958711707325
260,2083.5899999999997,0.8053912247752013
261,2093.21,0.7603312299265561
262,2102.87,0.7656071330203281
263,2112.58,0.7744645335421219
264,2127.22,0.7888783804668448
265,2137.04,0.727798475330286
266,2146.9,0.7498997681361445
267,2156.81,0.7834424583700246
268,2166.77,0.7585968460319261
269,2176.77,0.7533616316362451
270,2186.8199999999997,0.7396224146685857
271,2187.7616199999998,0.7432078853458357
272,2196.91,0.7780436414289225
273,2207.05,0.7568502572944843
274,2217.2400000000002,0.7178159752106655
275,2227.47,0.6918568947673419
276,2232.6099999999997,0.7465121055709897
277,2242.91,0.711582727998533
278,2253.27,0.6798479528868191
279,2263.67,0.7008302794156006
280,2274.12,0.7224415079950013
281,2284.61,0.7430149382148973
282,2295.16,0.7017562708955362
283,2305.75,0.7004597052166704
284,2316.3900000000003,0.6661729415884238
285,2327.09,0.5090767804209202
286,2332.4500000000003,0.6164313002472922
287,2343.22,0.5985190419506554
288,2354.03,0.6520416852945138
289,2364.9,0.5963162310991152
290,2375.81,0.616139378544212
291,2386.78,0.5713219284500518
292,2392.2799999999997,0.6137397540181573
293,2403.33,0.5863753072049878
294,2414.42,0.6044883620323134
295,2425.56,0.6435634189102583
296,2436.76,0.6162996782489459
297,2442.38,0.6559995087385375
298,2453.65,0.6458053709480921
299,2464.98,0.6431437356183896
300,2476.35,0.6187614019291825
301,2487.78,0.6393297707007184
302,2493.52,0.6009491061117957
303,2505.0299999999997,0.6714918781643223
304,2510.8,0.5972480148057713
305,2511.88643,0.6009489202987778
306,2516.59,0.6169712847036901
307,2522.39,0.5879783926410329
308,2534.0299999999997,0.5964621078808036
309,2545.73,0.5845139221682017
310,2557.4799999999996,0.6295086356619566
311,2563.38,0.6139185420120121
312,2575.21,0.6521261542359371
313,2587.1,0.6449775655074897
314,2593.06,0.636280470905173
315,2605.0299999999997,0.6135813809068958
316,2617.05,0.6054562901149751
317,2623.09,0.6356079942428288
318,2635.19,0.6537591021810782
319,2647.36,0.7089875090082267
320,2653.46,0.7190269121837078
321,2665.71,0.6530841177410267
322,2678.01,0.6857831225047019
323,2684.19,0.6812506244103533
324,2696.58,0.6539292277454699
325,2702.79,0.6724157291749352
326,2715.27,0.6395423310814934
327,2727.8,0.641354632194408
328,2734.09,0.6748534323540435
329,2746.71,0.5853740320383997
330,2753.04,0.5977960315631203
331,2765.75,0.6191317298189181
332,2772.1200000000003,0.6499768287087238
333,2784.92,0.6181862255359629
334,2797.77,0.5004620215695585
335,2804.2200000000003,0.5388644191895345
336,2817.17,0.646704813635843
337,2823.66,0.6758010106209041
338,2836.69,0.6487157037973827
339,2843.23,0.6355860999888002
340,2856.36,0.6171800915779917
341,2862.94,0.6722568871344944
342,2876.16,0.6664467772951274
343,2882.79,0.6666261720579864
344,2884.0315,0.6659481626676053
345,2896.09,0.6593629484347098
346,2909.46,0.7118178440915737
347,2929.6299999999997,0.6866421375395124
348,2949.9399999999996,0.6777863309419735
349,2970.38,0.690974124302205
350,2990.97,0.6915472176137102
351,3011.71,0.7017782108764892
352,3032.5800000000004,0.6991436040970387
353,3046.58,0.6979421995492522
354,3067.7,0.7001659926885911
355,3088.96,0.7056201857824523
356,3110.37,0.6997740788275872
357,3131.93,0.6923712718239958
358,3146.39,0.697589167126782
359,3168.2,0.6950094600419802
360,3190.1600000000003,0.6643245529084519
361,3212.27,0.6851290457261975
362,3227.1,0.6607425409087921
363,3249.47,0.6893227336420787
364,3272.0,0.7076615263233907
365,3287.1,0.703214921418278
366,3309.88,0.7038677140183796
367,3311.31121,0.7039100784934494
368,3325.16,0.7043199275562739
369,3332.83,0.7061477799276771
370,3340.5099999999998,0.6730221322369829
371,3348.2099999999996,0.7263842844220942
372,3355.93,0.7003401364830111
373,3363.66,0.6553094884818306
374,3371.42,0.6509953402943583
375,3379.19,0.7026046920447889
376,3386.98,0.7126036436710249
377,3394.79,0.7046709951730664
378,3402.6099999999997,0.7330380466130106
379,3410.46,0.6765030978666631
380,3418.32,0.6877056490582183
381,3426.2,0.703943200125579
382,3434.1,0.727246551068745
383,3442.0099999999998,0.688374601949814
384,3449.95,0.6901836526445911
385,3457.8999999999996,0.680934303277271
386,3465.87,0.6671772537857563
387,3473.8599999999997,0.7053012041700473
388,3481.8700000000003,0.6800290544301436
389,3489.9,0.7057719045660454
390,3497.94,0.6820385546398499
391,3506.0099999999998,0.6981359045273627
392,3514.09,0.6746540543527783
393,3522.19,0.7066788040539992
394,3530.31,0.6813462536310257
395,3538.4500000000003,0.7087843030838576
396,3546.6,0.7221918524745924
397,3554.78,0.7274425016790353
398,3562.97,0.714395450821381
399,3568.73,0.5345109150533603
400,3571.4,0.44062119847339254
401,3574.0699999999997,0.7156345818934247
402,3576.74,1.0626485653134567
403,3579.3999999999996,0.7280568487955861
404,3582.07,0.18394003221561822
405,3584.7400000000002,-0.008188199364349684
406,3587.41,0.46211429905568246
407,3590.07,0.4157817825378118
408,3592.74,1.324439465957844
409,3595.41,1.322469449377876
410,3598.0800000000004,0.891149432797908
411,3600.75,0.26299881621794025
412,3603.4100000000003,0.1585072997000696
413,3606.08,0.4304252831201017
414,3608.75,0.6156437665401338
415,3611.42,1.0804423499601659
416,3614.08,0.20418633344229528
417,3616.7500000000005,0.3544874168623274
418,3619.42,0.20808310028235952
419,3622.09,0.36015528370239164
420,3624.76,0.5235251671224237
421,3627.42,-0.1065634493954469
422,3630.09,0.6362527340245852
423,3632.7599999999998,0.2708526174446173
424,3635.43,-0.04173850913535058
425,3638.09,-0.21947671565322122
426,3640.76,0.8633583677668109
427,3643.43,1.315442151186843
428,3646.1,0.6152297346068751
429,3648.7599999999998,0.38249711808900444
430,3651.43,0.27421900150903655
431,3654.1,0.6576480849290687
432,3656.7699999999995,1.0775890683491007
433,3659.44,0.9187834517691329
434,3662.1,0.7603960352512622
435,3664.77,0.3162228186712944
436,3667.44,1.1826390020913267
437,3670.1099999999997,1.0630029855113587
438,3672.77,0.561063668993488
439,3675.4399999999996,0.7918296524135201
440,3678.11,1.0520799358335522
441,3680.78,1.1620689192535842
442,3683.45,0.28262250267361644
443,3686.11,0.7625215861557457
444,3688.7799999999997,0.6261550695757779
445,3691.45,0.47284165299581
446,3694.1200000000003,0.8367637364158421
447,3696.78,1.0418478198979715
448,3699.4500000000003,0.4376881033180036
449,3702.12,0.6173560867380357
450,3704.79,0.5493104701580679
451,3707.46,0.5064791535780999
452,3710.12,0.6419415370602293
453,3712.7900000000004,0.8430839204802614
454,3715.46,0.9969269039002935
455,3718.13,0.4626449873203256
456,3720.79,0.812536770802455
457,3723.46,1.310482654222487
458,3726.13,1.4786946376425192
459,3728.7999999999997,2.163805621062551
460,3731.4700000000003,1.8872146044825835
461,3734.13,1.621636587964713
462,3736.8,0.931008671384745
463,3739.47,0.673767554804777
464,3742.14,0.7366939382248091
465,3744.7999999999997,0.7839170217069386
466,3747.47,1.0286385051269706
467,3750.1400000000003,1.0214524885470027
468,3752.81,0.7587983719670348
469,3755.4700000000003,0.5758060554491642
470,3758.14,0.9846465388691963
471,3760.81,1.0876674222892284
472,3763.48,0.9549027057092605
473,3766.1499999999996,1.0100343891292924
474,3768.8100000000004,0.694633472611422
475,3771.48,0.4760895560314541
476,3774.15,0.8070034394514862
477,3776.82,0.9844661228715182
478,3779.48,0.6738089063536477
479,3782.15,0.9383117897736798
480,3784.8199999999997,1.090068273193712
481,3787.4900000000002,0.921913456613744
482,3790.1600000000003,0.750510940033776
483,3792.82,0.2200498235159055
484,3795.4900000000002,0.7560048069359376
485,3798.16,1.1226041903559696
486,3800.83,0.5523014737760018
487,3801.8939600000003,0.5007498452728388
488,3803.49,0.42341755932319997
489,3806.1600000000003,0.9713401461978658
490,3808.8300000000004,1.0831591330725316
491,3811.5,1.1465181199471974
492,3814.17,1.1997211068218634
493,3816.83,1.0130300937456878
494,3819.5,1.1658490806203536
495,3822.1699999999996,1.3122710674950195
496,3824.8399999999997,0.5754880543696854
497,3827.5,0.8002932412935098
498,3830.17,0.7607682281681757
499,3832.84,0.8895547150428414
500,3835.5099999999998,0.7095507019175074
501,3838.18,0.6286519887921732
502,3840.8399999999997,0.9067986757159976
503,3843.5099999999998,1.0983549625906635
504,3846.1800000000003,0.4133776494653293
505,3848.85,0.7953296363399952
506,3851.51,1.2375179232638196
507,3854.18,1.4108859101384856
508,3856.85,1.1724218970131515
509,3859.52,0.8462503838878171
510,3862.18,1.1345748708116414
511,3864.8500000000004,0.9344140576863075
512,3867.52,1.4111218445609732
513,3870.19,1.350258831435639
514,3872.86,1.266997818310305
515,3875.52,1.3037118052341294
516,3878.19,0.8852840921087953
517,3880.8599999999997,1.313707778983461
518,3883.53,1.202515765858127
519,3886.19,1.2090167527819515
520,3888.86,0.8156253396566172
521,3891.53,0.3496828265312831
522,3894.2,0.304883413405949
523,3896.87,1.2050937002806148
524,3899.5299999999997,1.0444636872044393
525,3902.2000000000003,1.130359674079105
526,3904.87,0.531791660953771
527,3907.54,0.9319898478284369
528,3910.2,1.0014756347522613
529,3912.87,1.473813621626927
530,3915.54,1.312428608501593
531,3918.2099999999996,1.2648135953762587
532,3920.88,1.1891305822509246
533,3923.54,1.084518569174749
534,3926.21,1.358645556049415
535,3928.88,1.5026665429240809
536,3931.5499999999997,0.7741698297987466
537,3934.21,0.523033916722571
538,3936.8799999999997,1.2016725035972369
539,3939.55,0.5846017904719027
540,3942.2200000000003,0.7824173773465686
541,3944.89,0.8941580642212346
542,3947.55,0.8636326511450589
543,3950.22,1.3428004380197247
544,3952.89,1.2259594248943906
545,3955.5600000000004,1.3077614117690564
546,3958.2200000000003,0.9124870986928809
547,3960.8900000000003,1.2998133855675467
548,3963.56,1.2677473724422124
549,3966.23,0.8708736593168784
550,3968.9,0.9734023461915443
551,3971.56,0.47923803311536867
552,3974.2300000000005,0.7193532199900345
553,3976.9,0.7394884068647004
554,3979.57,0.6261713937393663
555,3982.23,1.2191912806631908
556,3984.9,1.1575422675378566
557,3987.5699999999997,0.9000053544125224
558,3990.24,1.0016092412871882
559,3992.8999999999996,1.3028852282110126
560,3995.57,1.2170652150856784
561,3998.2400000000002,1.9133182019603443
562,4000.91,1.14887918883501
563,4003.58,1.102406175709676
564,4006.24,1.1057761626335005
565,4008.91,1.2372201495081663
566,4011.58,1.106266136382832
567,4014.2499999999995,1.552365123257498
568,4016.9100000000003,1.4371251101813225
569,4019.58,1.2027550970559884
570,4022.25,1.4606820839306542
571,4024.92,1.5329380708053202
572,4027.5899999999997,1.216352057679986
573,4030.25,1.0518240446038103
574,4032.9199999999996,1.156990031478476
575,4035.59,1.459875018353142
576,4038.26,1.2501090052278079
577,4040.92,1.2106689921516323
578,4043.59,1.395866979026298
579,4046.2599999999998,1.300598965900964
580,4048.93,1.2347959527756298
581,4051.6000000000004,1.1666909396502958
582,4054.26,0.7780886265741201
583,4056.9300000000003,0.876071013448786
584,4059.6,1.304632900323452
585,4062.27,1.3625198871981177
