,lambda (Angstroms),Total Flux (erg/s/cm^2/Angstrom)
0,102.00000000000001,0.008967370034463648
1,103.9,0.010496479874273986
2,104.712855,0.01115066399211776
3,106.07000000000001,0.0102393806285884
4,108.05,0.00890989013813584
5,110.05,0.007567028693138297
6,113.91999999999999,0.004968560513585561
7,117.92,0.0022828533865904663
8,120.22644299999999,0.0007359528494633529
9,120.95,0.0007140531593790701
10,124.91,0.0005921108190029149
11,126.94,0.0005295467766131181
12,128.12,0.0004932549846525462
13,131.1,0.0004015112094300861
14,132.01,0.0003744689353587979
15,133.85,0.00031796785133553375
16,136.96,0.00022395544438860306
17,138.038426,0.00019093222436497923
18,140.15,0.0001895637288227917
19,143.09,0.00020967422154445292
20,147.10000000000002,0.0002655558967532493
21,150.87,0.00027335650663782847
22,155.1,0.00028322290422715736
23,158.489319,0.00029409677274321456
24,159.07999999999998,0.00029564410463405616
25,162.02999999999997,0.0003034042414277485
26,166.19,0.0003173069512791926
27,170.06,0.0003296586171746466
28,172.82,0.0003415944044799317
29,176.85,0.00035594190152351814
30,180.14,0.000367375479506992
31,181.8,0.0003762069276688663
32,181.970086,0.00037689266409408407
33,186.04,0.0004023716759349607
34,190.81,0.00043721194589055594
35,193.91,0.000461427820075534
36,197.97,0.0004902208636855376
37,202.12,0.0005229915388041372
38,204.93,0.0005478959670169721
39,208.929613,0.0005642499210380518
40,210.19,0.0005728725358487817
41,216.07999999999998,0.0006615665856917611
42,220.09,0.000712215263258883
43,223.15,0.0007426528553674597
44,226.78,0.0007962813587511636
45,229.94,0.0011365562440659028
46,234.21,0.0017745091039690474
47,239.88329199999998,0.0021912936226059277
48,240.22000000000003,0.0022140063114870073
49,245.80999999999997,0.0021406037453173543
50,252.11999999999998,0.002304045930911181
51,256.81,0.002003077175037178
52,259.78000000000003,0.0022976849010615304
53,264.0,0.0024273788350085905
54,268.91,0.0024506519477289846
55,273.90999999999997,0.002469046779419814
56,275.42287,0.0024745482615237246
57,279.0,0.0025076313846264984
58,284.19,0.0025609450835280714
59,290.14000000000004,0.0025076361275481788
60,296.21000000000004,0.002601535910271213
61,301.03000000000003,0.0026097894148387622
62,308.04,0.002697345150734721
63,316.227766,0.0028057734306969305
64,318.13,0.0028214142083931902
65,327.79999999999995,0.0028425029043397322
66,337.76,0.0028334830534222097
67,348.02,0.0028177954298866893
68,356.95,0.002816906831624292
69,363.078055,0.0028286167311051334
70,366.09999999999997,0.0028458116763491717
71,374.63000000000005,0.0028539503314925726
72,385.13,0.0027801674556433
73,395.01,0.002875324498177508
74,405.14,0.002910408686524829
75,413.62,0.002899922512505607
76,416.86938299999997,0.0028916834921498846
77,422.28000000000003,0.0028743791649842327
78,430.14,0.0028518814612708537
79,441.17,0.0028629415182735802
80,451.45,0.002831624127157354
81,459.84,0.002793515206781368
82,469.47,0.0027743537606287165
83,478.630092,0.0027786234395141794
84,480.4,0.002775382728349075
85,490.46,0.002689552616065081
86,499.58000000000004,0.002688756504332474
87,506.53,0.002646610319404665
88,512.4,0.0028922165819188755
89,519.52,0.002870984854338156
90,530.4,0.0028148911245518883
91,540.26,0.002703181650683083
92,549.5408739999999,0.0027822878678718335
93,550.31,0.0027895196571453163
94,560.54,0.0029190185056792773
95,569.65,0.0030233254128292667
96,580.24,0.0029419655639509336
97,589.67,0.0031072127400677716
98,600.63,0.0030560449521823576
99,610.39,0.002993095155671259
100,620.3100000000001,0.0034266174936435855
101,630.38,0.0034904342076941225
102,630.957344,0.003494517599324307
103,640.63,0.003572562582635387
104,649.54,0.003762069801261901
105,658.58,0.0038419183463105746
106,664.67,0.004034928253317922
107,675.4699999999999,0.004121333063774303
108,684.8700000000001,0.004011274435838191
109,694.39,0.004743273416907148
110,705.6800000000001,0.004486723380800901
111,715.49,0.0052614521669654465
112,724.43596,0.005446735525982048
113,725.4499999999999,0.005467487815904499
114,735.54,0.005679913125428902
115,745.7700000000001,0.006126246977404584
116,754.41,0.006449171597255012
117,764.9,0.0065100590280687855
118,775.54,0.007277725254366074
119,784.52,0.007544324477312469
120,795.44,0.008051310788512317
121,804.65,0.0084783258312001
122,815.84,0.008849403974270274
123,825.2900000000001,0.009594501089731682
124,831.763771,0.008569497502135573
125,834.84,0.0080792504399895
126,844.51,0.010208840706375425
127,854.2900000000001,0.01052807696338208
128,864.18,0.011357963211009464
129,874.1899999999999,0.012117994357495825
130,884.31,0.013019107494602916
131,894.5500000000001,0.013738565530568982
132,904.91,0.013887688465394028
133,915.39,0.01860841629907805
134,925.99,0.10390404903162105
135,934.56,0.2224187713917997
136,945.38,0.4149398981055841
137,954.13,0.5873856928140513
138,954.992586,0.592160525951437
139,965.1700000000001,0.6485035402868004
140,974.0999999999999,0.10752813930952167
141,985.38,0.5235313749171697
142,994.5,0.5661536526425021
143,1006.02,0.8509111613481853
144,1015.3299999999999,0.8296183177761287
145,1024.72,0.3723746652367507
146,1034.2,0.5753252026091358
147,1046.18,1.1164790597527194
148,1055.86,1.0910779747068002
149,1065.63,0.8470011795726444
150,1075.49,1.0182717743502516
151,1085.44,0.794113159039622
152,1095.48,1.0736535336407556
153,1096.4782,1.069362539936404
154,1105.62,1.0300622145683482
155,1115.8500000000001,0.9836941256166617
156,1126.1699999999998,0.8747245050906204
157,1133.98,1.1346342651382577
158,1144.47,1.027687584971768
159,1155.06,1.0961038697226615
160,1165.75,1.1268111193909387
161,1173.83,0.7583603847155108
162,1184.69,1.0910574747433395
163,1195.65,0.7445210296885513
164,1203.94,0.5319857213396286
165,1215.0800000000002,0.3827664131361304
166,1226.32,0.7531121698500155
167,1234.82,1.1398328878275978
168,1246.25,1.2497688778845115
169,1254.8899999999999,1.1880518467464303
170,1258.92541,1.110358584033948
171,1263.59,1.0205535474193554
172,1275.28,1.329946839132037
173,1284.12,1.3958130597257157
174,1296.0,1.083532356179664
175,1304.99,1.073580580516448
176,1314.03,1.360912806100934
177,1326.1899999999998,1.2966701095420121
178,1335.3799999999999,1.1424383388696036
179,1344.64,1.3734935699439774
180,1353.9599999999998,1.3268838025155933
181,1366.49,1.177155115189665
182,1375.96,1.2383143515043864
183,1385.5,1.2497625895658906
184,1395.1,1.0662028291246364
185,1404.77,1.103655070430165
186,1414.51,1.1530283134824764
187,1424.31,1.1825825580320295
188,1434.1899999999998,1.1798788045779058
189,1440.81,1.2468889697736245
190,1445.43977,1.2630410648539439
191,1447.46,1.270089127616095
192,1454.1399999999999,1.229799267519786
193,1464.22,1.1293734786319425
194,1474.3700000000001,1.131973691210156
195,1484.5900000000001,1.1556789052544256
196,1494.88,1.177148120764752
197,1505.24,1.1087743377411354
198,1512.1899999999998,0.9836562832996164
199,1515.67,1.054002556183575
200,1526.18,1.0300107763015083
201,1536.76,0.890945697885498
202,1543.85,0.9791525463760923
203,1554.5500000000002,0.924382070473322
204,1565.3300000000002,0.9480751962460451
205,1576.18,1.0276558234848245
206,1583.45,1.0835419757452789
207,1594.43,1.1138782057067351
208,1605.48,1.0885294371342482
209,1616.61,1.0860156702372543
210,1624.07,1.020564826477005
211,1635.3300000000002,1.096067062302688
212,1646.67,1.1267762998038642
213,1654.27,1.0229304589757282
214,1659.58691,1.0759465655930973
215,1665.73,1.1372015099026438
216,1673.4199999999998,0.9859347860702569
217,1677.28,1.1907792764482783
218,1685.0200000000002,1.244044460263275
219,1696.6999999999998,1.1477362466921073
220,1704.53,1.1062334442723947
221,1716.3500000000001,1.0686672521139011
222,1724.27,1.0662134634594793
223,1736.22,1.1503912911841834
224,1744.24,1.1216095178245287
225,1756.3300000000002,1.2129533669619073
226,1764.4299999999998,1.0860426058380668
227,1776.6599999999999,1.1346164763881197
228,1784.8700000000001,1.147747732088523
229,1793.1,1.25558099084788
230,1805.53,1.2298378919874677
231,1813.87,1.1503951675710689
232,1826.44,1.1583600901233309
233,1834.8700000000001,1.1036943794722227
234,1843.34,1.0065886749390214
235,1856.12,1.0324076296102949
236,1864.69,1.081057940371861
237,1873.29,1.1451092557218574
238,1886.28,1.0686852425121425
239,1894.98,1.0467815731569061
240,1903.7299999999998,1.0860579114490538
241,1905.46072,1.0831370616980456
242,1916.93,1.0637769149757235
243,1925.77,1.037187172158643
244,1934.66,1.0206004194839995
245,1943.5900000000001,1.121628658923306
246,1957.07,1.061331001324409
247,1966.1000000000001,1.1690912210485904
248,1975.17,1.1880904328867212
249,1984.29,1.1294046348672895
250,1993.45,1.0986208289618078
251,2007.27,1.1113401043314848
252,2016.53,1.0760792787108777
253,2025.84,1.1062304432327077
254,2035.19,1.0785595998684878
255,2044.59,1.131994746646705
256,2054.02,1.0637498875103848
257,2063.5,1.0637480185165018
258,2073.0299999999997,1.1717661396650563
259,2077.81,1.1450781972820647
260,2087.4,1.174458306601544
261,2097.03,1.1087724080349728
262,2106.71,1.0935634996108392
263,2116.44,1.1087645813291431
264,2126.21,1.1267706551613965
265,2136.02,1.0229277211076
266,2145.88,1.0760537771962408
267,2155.79,1.1113158234273188
268,2165.74,1.0612878617723467
269,2175.73,1.0564198922313246
270,2185.7799999999997,1.0539839108612272
271,2187.7616199999998,1.064750911950217
272,2195.86,1.108755793144195
273,2206.0,1.0735843870226012
274,2216.1800000000003,1.0042379871884959
275,2226.41,0.9770429952137516
276,2236.69,1.0677362110983684
277,2247.01,1.013933833270474
278,2257.38,0.9584429633019403
279,2262.5899999999997,0.9768804822473541
280,2273.03,1.0124859232819259
281,2283.52,1.0518345721758589
282,2294.06,0.9806457289291527
283,2304.65,1.0001518935418074
284,2315.29,0.9519900660138231
285,2325.98,0.7365695463451998
286,2336.71,0.8625327329640654
287,2347.5,0.8134753290141641
288,2352.91,0.9238817793970218
289,2363.77,0.8150698864502258
290,2374.6800000000003,0.8605381013627909
291,2385.64,0.7662115241347168
292,2396.66,0.8296780563378761
293,2407.7200000000003,0.800757094828524
294,2413.27,0.8256376672175924
295,2424.41,0.9085618182832179
296,2435.6,0.8768895772082044
297,2446.84,0.9322407439925519
298,2452.48,0.92431053052847
299,2463.7999999999997,0.914982109887795
300,2475.17,0.872971097106481
301,2486.6,0.8842751937564003
302,2492.33,0.8182705944391682
303,2503.8300000000004,0.9560423020921928
304,2511.88643,0.8576442420090762
305,2515.3900000000003,0.8148522553182672
306,2527.0,0.7900933490170394
307,2532.83,0.8090607943455357
308,2544.52,0.8027479831774605
309,2556.26,0.8834343689676057
310,2562.16,0.8481606100376105
311,2573.98,0.9100660909609083
312,2585.8599999999997,0.8967891682340705
313,2597.8,0.8775915418570972
314,2603.7900000000004,0.8425697774518986
315,2615.81,0.820749546208078
316,2627.88,0.8909006119224777
317,2633.94,0.9356871432587877
318,2646.1,1.048914303497984
319,2652.2000000000003,1.0865399324008704
320,2664.44,0.9542727877732193
321,2676.7400000000002,1.0122444394954326
322,2682.91,1.0153070641398276
323,2695.29,0.9511133109951937
324,2707.73,0.9927688542004242
325,2713.97,0.9250533745863276
326,2726.5,0.9221583123163547
327,2732.79,0.9774805296604785
328,2745.4,0.8086419625236583
329,2758.07,0.8460320917367025
330,2764.43,0.8906502048223348
331,2777.19,0.9426228285601757
332,2783.59,0.8524427392123843
333,2796.44,0.6416776574750219
334,2802.8900000000003,0.6960339650854509
335,2815.82,0.9273902784812411
336,2822.31,1.0129205836582464
337,2835.34,0.9800083909704774
338,2841.88,0.945270593105703
339,2854.9999999999995,0.8896307949427308
340,2868.17,1.0135647937379788
341,2874.79,1.021349391006357
342,2884.0315,1.0158896531154966
343,2888.0499999999997,1.0135158237911406
344,2894.7099999999996,1.0073008154993468
345,2908.0699999999997,1.1241207988659583
346,2928.23,1.0710307737664737
347,2948.5299999999997,1.0538887484926873
348,2968.9700000000003,1.083419723044599
349,2989.55,1.0909456974222087
350,3010.27,1.1086886716255162
351,3031.14,1.1087106456420721
352,3052.15,1.1138946194843256
353,3073.2999999999997,1.129441593152277
354,3087.49,1.141688575485527
355,3108.8900000000003,1.144387548842225
356,3130.44,1.126190522012171
357,3152.14,1.139327494995365
358,3166.6899999999996,1.1464384768804097
359,3188.64,1.07992944955235
360,3210.7400000000002,1.1283554220375382
361,3232.9999999999995,1.065389394323524
362,3247.92,1.1540093757479137
363,3270.44,1.205783347710196
364,3293.1,1.2004603194981764
365,3308.3,1.1996633005739616
366,3311.31121,1.202242335127973
367,3323.58,1.21275000482931
368,3331.24,1.2137638225222773
369,3338.92,1.1521236397392471
370,3346.6099999999997,1.2242024567182181
371,3354.33,1.172783272983193
372,3362.06,1.139154089010169
373,3369.81,1.1938269045611476
374,3377.58,1.143683719636129
375,3385.36,1.1632395344731112
376,3393.1699999999996,1.2388833485960973
377,3400.99,1.3194441624810846
378,3408.83,1.1960949758900747
379,3416.69,1.2053967888230672
380,3424.57,1.2837866012800623
381,3432.46,1.3269634134990587
382,3440.37,1.2595892252420575
383,3448.3,1.1603680365090587
384,3456.25,1.1939018473000627
385,3464.2200000000003,1.130664657615069
386,3472.21,1.243651467454078
387,3480.21,1.148335277055088
388,3488.23,1.2146340861801006
389,3496.2700000000004,1.1879948948291161
390,3504.33,1.2450297030021338
391,3512.4100000000003,1.209350510699154
392,3520.51,1.261611317920177
393,3528.6299999999997,1.1489591246652022
394,3536.7599999999998,1.2435809311722288
395,3544.91,1.2883917372032578
396,3553.08,1.3044255427582894
397,3560.4,1.3251353685432137
398,3563.06,1.5157693052355499
399,3565.72,1.4814172419278855
400,3568.3900000000003,1.1687981783822228
401,3571.05,1.1775491150745585
402,3573.71,1.4113090517668947
403,3576.37,1.3910109884592303
404,3579.03,1.0540039251515663
405,3581.69,0.9165014618439021
406,3584.35,1.092791798536238
407,3587.0099999999998,1.0933697352285738
408,3589.6699999999996,1.28359467192091
409,3592.3300000000004,1.1850236086132457
410,3594.9900000000002,1.3220925453055816
411,3597.65,1.2194234819979175
412,3600.31,1.2122884186902534
413,3602.97,1.2409023553825893
414,3605.63,1.200066292074925
415,3608.29,1.010903228767261
416,3610.95,1.196523165459597
417,3613.6099999999997,1.1524811021519328
418,3616.27,1.3453570388442686
419,3618.9300000000003,1.0172679755366045
420,3621.59,1.0327449122289403
421,3624.25,1.1063178489212764
422,3626.91,1.2495097856136121
423,3629.5699999999997,1.2248257223059482
424,3632.23,1.302062658998284
425,3634.89,1.1866895956906198
426,3637.5499999999997,1.2552485323829556
427,3640.21,1.3244824690752917
428,3642.88,1.2995494055296288
429,3645.54,1.0876303422219646
430,3648.2,1.3454002789143005
431,3650.86,1.3646852156066365
432,3653.52,1.2613411522989724
433,3656.18,1.2739970889913084
434,3658.8399999999997,1.258883025683644
435,3661.4999999999995,1.33963896237598
436,3664.1600000000003,1.3340228990683158
437,3666.82,1.1086518357606516
438,3669.48,1.3111707724529877
439,3672.14,1.3784997091453235
440,3674.7999999999997,1.4156956458376595
441,3677.46,1.3924335825299952
442,3680.12,1.3490185192223312
443,3682.7799999999997,1.332481455914667
444,3685.4399999999996,1.263922392607003
445,3688.1000000000004,1.4547253292993387
446,3690.76,1.2140952659916748
447,3693.42,1.2826062026840106
448,3696.08,1.2638511393763465
449,3698.74,1.2365390760686823
450,3701.4,1.1334120127610183
451,3704.06,1.1544319494533541
452,3706.72,1.26156188614569
453,3709.38,1.2025978228380259
454,3712.04,1.335761759530362
455,3714.7000000000003,1.4914176962226977
456,3717.36,2.2005826329150335
457,3720.0299999999997,3.0601805693693707
458,3722.69,3.688152506061707
459,3725.35,3.446124442754042
460,3728.0099999999998,2.610356379446378
461,3730.6699999999996,1.8216933161387143
462,3733.3300000000004,1.41239025283105
463,3735.9900000000002,1.354101189523386
464,3738.65,1.3253911262157219
465,3741.31,1.3504610629080578
466,3743.97,1.2774679996003935
467,3746.63,1.3922869362927295
468,3749.29,1.4698608729850653
469,3751.95,1.4948838096774013
470,3754.6099999999997,1.4213357463697371
471,3757.27,1.4400666830620732
472,3759.9300000000003,1.5422776197544088
473,3762.59,1.307963556446745
474,3765.25,1.4101984931390807
475,3767.91,1.4669704298314168
476,3770.5699999999997,1.4080053665237524
477,3773.23,1.6165513032160885
478,3775.89,1.7590202399084243
479,3778.55,1.7395911766007601
480,3781.21,1.764638113293096
481,3783.87,1.6722130499854317
482,3786.53,1.5994369866777678
483,3789.19,1.3123769233701035
484,3791.85,1.2008118600624396
485,3794.5099999999998,1.3238517967547754
486,3797.18,1.4346617332091127
487,3799.8399999999997,1.4136416699014485
488,3801.8939600000003,1.6114348803558785
489,3802.4999999999995,1.6697956095991289
490,3805.1600000000003,1.8759785594823706
491,3807.82,1.701231509365612
492,3810.48,1.7433454592488538
493,3813.14,1.723819409132095
494,3815.7999999999997,1.699809359015337
495,3818.46,1.7675733088985783
496,3821.12,1.6659652587818201
497,3823.7799999999997,1.3659602086650615
498,3826.44,1.3484351585483032
499,3829.1,1.2545651084315448
500,3831.76,1.1809200583147863
501,3834.42,1.2661130081980279
502,3837.08,1.5621639580812694
503,3839.74,1.598877907964511
504,3842.4,1.5936958578477525
505,3845.06,1.9153718077309942
506,3847.7200000000003,1.8298187576142357
507,3850.38,1.8199837074974774
508,3853.04,1.7606096573807188
509,3855.7000000000003,1.9054176072639606
510,3858.36,1.841511557147202
511,3861.02,1.8965955070304439
512,3863.68,1.7954444569136854
513,3866.3399999999997,1.999988406796927
514,3869.0,1.8245903566801684
515,3871.6600000000003,1.65656830656341
516,3874.3300000000004,1.6304762562582429
517,3876.9900000000002,1.5643292061414842
518,3879.65,1.489045156024726
519,3882.31,1.3592081059079675
520,3884.97,1.273751055791209
521,3887.63,1.3223740056744506
522,3890.29,1.6506309555576923
523,3892.95,1.6974459054409339
524,3895.61,1.8477498553241756
525,3898.27,1.984167805207417
526,3900.9300000000003,1.9941247550906585
527,3903.59,1.9768647049739
528,3906.25,1.8322746548571416
529,3908.91,1.9286276047403834
530,3911.5699999999997,2.020811554623625
531,3914.23,1.8374825045068666
532,3916.89,1.879210454390108
533,3919.55,1.8340354042733498
534,3922.21,1.8844423541565911
535,3924.87,1.5919833040398328
536,3927.53,1.3919242539230743
537,3930.19,1.548664203806316
538,3932.85,1.5410471536895576
539,3935.5099999999998,1.5180741035727991
540,3938.1699999999996,1.6271560534560408
541,3940.8300000000004,1.9305840033392823
542,3943.4900000000002,2.0489469532225235
543,3946.15,2.0404619031057654
544,3948.81,1.995599852989007
545,3951.48,1.9479318026838397
546,3954.14,1.8901247525670815
547,3956.7999999999997,1.6029217024503228
548,3959.46,1.3864226523335645
549,3962.12,1.346840602216806
550,3964.7799999999997,1.2992545521000478
551,3967.44,1.2310335019832892
552,3970.1,1.317672451866531
553,3972.76,1.5105724017497724
554,3975.42,1.740306351633014
555,3978.08,1.7799133015162556
556,3980.74,1.810529251399497
557,3983.4,1.9380762012827388
558,3986.06,2.0598621511659805
559,3988.7200000000003,2.000488101049222
560,3991.38,1.9360520509324635
561,3994.04,2.023366000815705
562,3996.7000000000003,2.053113950698947
563,3999.36,2.0360709005821884
564,4002.02,2.03187685046543
565,4004.68,1.9332818003486716
566,4007.3399999999997,1.993041750231913
567,4010.0000000000005,2.173261700115155
568,4012.6600000000003,2.103160649998396
569,4015.32,2.0759445998816375
570,4017.98,2.0592635497648795
571,4020.64,2.104415499648121
572,4023.3,2.096243449531362
573,4025.97,1.9480513992261952
574,4028.63,1.9648783491094368
575,4031.29,1.9459062989926783
576,4033.95,2.0641002488759197
577,4036.61,2.0659801987591617
578,4039.27,2.0612321486424032
579,4041.9300000000003,2.0291230985256448
580,4044.59,2.1506430484088863
581,4047.25,2.145556998292128
582,4049.91,2.0490119481753695
583,4052.5699999999997,1.9672428980586112
584,4055.23,1.9702318479418526
585,4057.8900000000003,1.9821657978250942
586,4060.55,2.098334747708336
587,4063.21,2.069647697591577
588,4065.87,1.947307647474819
