,lambda (Angstroms),Total Flux (erg/s/cm^2/Angstrom)
0,102.00000000000001,112.88935995754707
1,103.9,112.56762958004519
2,104.712855,112.42998739794051
3,106.07000000000001,111.22284075907572
4,108.05,109.46168012780468
5,110.05,107.68272999525459
6,113.91999999999999,104.24046148880602
7,117.92,100.68256122387513
8,120.22644299999999,98.63103768567899
9,120.95,98.09145846584711
10,124.91,95.13836187272541
11,126.94,93.62452700319976
12,128.12,92.74456387720144
13,131.1,90.52228411866922
14,132.01,89.84366848964721
15,133.85,88.47152259936793
16,136.96,86.15229775588728
17,138.038426,85.34808155890106
18,140.15,84.22253521498072
19,143.09,82.65540751061032
20,147.10000000000002,80.51793072814525
21,150.87,78.50838261779317
22,155.1,76.25363767283491
23,158.489319,74.44700652930788
24,159.07999999999998,74.20897068102929
25,162.02999999999997,73.02016362417315
26,166.19,71.343744219672
27,170.06,69.78419062959516
28,172.82,68.67195090806906
29,176.85,67.0479197269247
30,180.14,65.72209775989285
31,181.8,65.05314206661764
32,181.970086,64.98459989597964
33,186.04,63.73334821393995
34,190.81,62.26686271683431
35,193.91,61.3138009221638
36,197.97,60.06559744406136
37,202.12,58.789724551347014
38,204.93,57.92582036671718
39,208.929613,56.696182247383305
40,210.19,56.40485991572017
41,216.07999999999998,55.04346282496747
42,220.09,54.11660333374482
43,223.15,53.40932391217879
44,226.78,52.570296966133384
45,229.94,51.83991141632678
46,234.21,50.85297232909559
47,239.88329199999998,49.541677035374825
48,240.22000000000003,49.48170464656917
49,245.80999999999997,48.486036741593885
50,252.11999999999998,47.36213256919661
51,256.81,46.526760882226306
52,259.78000000000003,45.997768378886846
53,264.0,45.246125992548826
54,268.91,44.371581223005954
55,273.90999999999997,43.481005879301605
56,275.42287,43.21154106032899
57,279.0,42.722565445004925
58,284.19,42.01311880777571
59,290.14000000000004,41.199778893620426
60,296.21000000000004,40.370043619708426
61,301.03000000000003,39.71117386644585
62,308.04,38.75294589537266
63,316.227766,37.63372515560693
64,318.13,37.43951340674398
65,327.79999999999995,36.452237657828306
66,337.76,35.43535204249116
67,348.02,34.38783642553182
68,356.95,33.47611156087091
69,363.078055,32.850458365266775
70,366.09999999999997,32.619403780260456
71,374.63000000000005,31.967206489986324
72,385.13,31.164373840378204
73,395.01,30.40896762087875
74,405.14,29.63444002913387
75,413.62,28.986065681908833
76,416.86938299999997,28.73761814154265
77,422.28000000000003,28.42169635077157
78,430.14,27.962760141091806
79,441.17,27.318737026957987
80,451.45,26.71849705557071
81,459.84,26.228612650008724
82,469.47,25.666328564375114
83,478.630092,25.131483301559538
84,480.4,25.052004206502605
85,490.46,24.60023845183335
86,499.58000000000004,24.190706011888853
87,506.53,23.878597508168546
88,512.4,23.615038280374563
89,519.52,23.29530880113807
90,530.4,22.806723905302533
91,540.26,22.363932641764077
92,549.5408739999999,21.94717840720272
93,550.31,21.920832202976243
94,560.54,21.57041806299056
95,569.65,21.258372309028427
96,580.24,20.895583891345886
97,589.67,20.572582023819887
98,600.63,20.197121845782245
99,610.39,19.862748316634125
100,620.3100000000001,19.523037857554066
101,630.38,19.178092630100323
102,630.957344,19.15831564710632
103,640.63,18.895655815782252
104,649.54,18.653739494994042
105,658.58,18.408272283974345
106,664.67,18.242928718622807
107,675.4699999999999,17.949646967546183
108,684.8700000000001,17.69435581542394
109,694.39,17.43601130033418
110,705.6800000000001,17.129373259723526
111,715.49,16.863126435378927
112,724.43596,16.620229820435654
113,725.4499999999999,16.599794039902424
114,735.54,16.396450280360323
115,745.7700000000001,16.19037748663825
116,754.41,16.01631341181727
117,764.9,15.804897425903828
118,775.54,15.590618635226132
119,784.52,15.409724296539505
120,795.44,15.189708827501871
121,804.65,15.004165925376725
122,815.84,14.778697026563433
123,825.2900000000001,14.58844750241548
124,831.763771,14.457625159117809
125,834.84,14.411120470241617
126,844.51,14.26606666447479
127,854.2900000000001,14.118804104979484
128,864.18,13.970045863755711
129,874.1899999999999,13.819493946464505
130,884.31,13.667372279444828
131,894.5500000000001,13.51334015035772
132,904.91,13.357203774203185
133,915.39,13.202116580981224
134,925.99,13.089923670691837
135,934.56,13.027579596209758
136,945.38,12.98479820546342
137,954.13,12.9787361588802
138,954.992586,12.966340524423286
139,965.1700000000001,12.823400464026378
140,974.0999999999999,12.367100906705085
141,985.38,12.412228932193974
142,994.5,12.343340372802015
143,1006.02,12.41511431883322
144,1015.3299999999999,12.291109037370596
145,1024.72,11.832855436088737
146,1034.2,11.795471187510252
147,1046.18,12.0879720695809
148,1055.86,11.941418671454345
149,1065.63,11.561736326031157
150,1075.49,11.58774483331134
151,1085.44,11.226195393294892
152,1095.48,11.37081590598181
153,1096.4782,11.353465963191342
154,1105.62,11.218998055249763
155,1115.8500000000001,11.040982537342785
156,1126.1699999999998,10.825721461213755
157,1133.98,11.02176860883316
158,1144.47,10.794470122729132
159,1155.06,10.767318571933934
160,1165.75,10.672076056447562
161,1173.83,10.2055976294008
162,1184.69,10.432058303939433
163,1195.65,9.897707313786897
164,1203.94,9.583572550888674
165,1215.0800000000002,9.400112344292022
166,1226.32,9.630922573004202
167,1234.82,10.001794774254515
168,1246.25,10.002278280053462
169,1254.8899999999999,9.808593890736134
170,1258.92541,9.661314678517936
171,1263.59,9.50723845594054
172,1275.28,9.833756235509892
173,1284.12,9.870013360351047
174,1296.0,9.31692639690228
175,1304.99,9.224660777255444
176,1314.03,9.577681909445946
177,1326.1899999999998,9.398955556286268
178,1335.3799999999999,9.07994094398878
179,1344.64,9.39224398426356
180,1353.9599999999998,9.261991726743151
181,1366.49,8.93569553717976
182,1375.96,8.97069153517136
183,1385.5,8.91176718573523
184,1395.1,8.633456538503903
185,1404.77,8.609318543844848
186,1414.51,8.543782201758065
187,1424.31,8.544824561876087
188,1434.1899999999998,8.443575524933848
189,1440.81,8.500626668197246
190,1445.43977,8.49533201753032
191,1447.46,8.498271426793792
192,1454.1399999999999,8.39810490225036
193,1464.22,8.186433733478232
194,1474.3700000000001,8.14113111908963
195,1484.5900000000001,8.140958059084557
196,1494.88,8.129353553463012
197,1505.24,7.965209602224991
198,1512.1899999999998,7.726500358875162
199,1515.67,7.834511205370498
200,1526.18,7.709566299240035
201,1536.76,7.440855947493102
202,1543.85,7.580660812910327
203,1554.5500000000002,7.442544697249436
204,1565.3300000000002,7.391119072312577
205,1576.18,7.423704001759247
206,1583.45,7.485980721305539
207,1594.43,7.455122823178757
208,1605.48,7.372684479435504
209,1616.61,7.331626626416281
210,1624.07,7.186438136432146
211,1635.3300000000002,7.2421364558394705
212,1646.67,7.207472265970828
213,1654.27,7.02636788475375
214,1659.58691,7.071560713288982
215,1665.73,7.134831041220027
216,1673.4199999999998,6.876213017933518
217,1677.28,7.096630904814411
218,1685.0200000000002,7.179595543275061
219,1696.6999999999998,7.014944527412069
220,1704.53,6.910702557017612
221,1716.3500000000001,6.758733594046671
222,1724.27,6.728491014797106
223,1736.22,6.8041531723687845
224,1744.24,6.737035916613545
225,1756.3300000000002,6.828027127077276
226,1764.4299999999998,6.6259493301174945
227,1776.6599999999999,6.62393159347328
228,1784.8700000000001,6.633629052357254
229,1793.1,6.751359375940092
230,1805.53,6.691469286284525
231,1813.87,6.49444486571112
232,1826.44,6.493713828947605
233,1834.8700000000001,6.382415799519091
234,1843.34,6.2091924994883065
235,1856.12,6.152408042062874
236,1864.69,6.178510065526411
237,1873.29,6.3143898860382475
238,1886.28,6.1133300079508945
239,1894.98,6.022751151957054
240,1903.7299999999998,6.086035957710376
241,1905.46072,6.070180294382242
242,1916.93,5.977997861391698
243,1925.77,5.938032011504628
244,1934.66,5.962229022195119
245,1943.5900000000001,6.00878872134766
246,1957.07,5.863875733058325
247,1966.1000000000001,6.02099215336599
248,1975.17,6.0486372621357045
249,1984.29,5.91827923148298
250,1993.45,5.841339889292306
251,2007.27,5.861634752930393
252,2016.53,5.756548131894842
253,2025.84,5.833191371436851
254,2035.19,5.7024362994409135
255,2044.59,5.764520088022534
256,2054.02,5.6580243929506935
257,2063.5,5.628800558456414
258,2073.0299999999997,5.739414584539698
259,2077.81,5.6335078557546066
260,2087.4,5.683900914530963
261,2097.03,5.553135661769369
262,2106.71,5.530317269585339
263,2116.44,5.5250887379788685
264,2126.21,5.527398894834448
265,2136.02,5.354664740152076
266,2145.88,5.388635446047267
267,2155.79,5.43621401252002
268,2165.74,5.348327267454823
269,2175.73,5.303549210851673
270,2185.7799999999997,5.244989186941599
271,2187.7616199999998,5.256156734713618
272,2195.86,5.3098708354582085
273,2206.0,5.238896281864927
274,2216.1800000000003,5.125991302024728
275,2226.41,5.053120039375885
276,2236.69,5.159180493918395
277,2247.01,5.061448522213989
278,2257.38,4.961222267700938
279,2262.5899999999997,5.001732999040091
280,2273.03,5.030706748594936
281,2283.52,5.064873215341136
282,2294.06,4.9533953992786905
283,2304.65,4.9294843004076
284,2315.29,4.820144918727864
285,2325.98,4.4366931542394825
286,2336.71,4.658131163504185
287,2347.5,4.601074933398513
288,2352.91,4.716116533503084
289,2363.77,4.560857307465308
290,2374.6800000000003,4.588976798618885
291,2385.64,4.46483800696382
292,2396.66,4.545706075938379
293,2407.7200000000003,4.463319718666021
294,2413.27,4.496163326906386
295,2424.41,4.572913117140196
296,2435.6,4.494806624565361
297,2446.84,4.56572684918188
298,2452.48,4.536153748366681
299,2463.7999999999997,4.504795120489369
300,2475.17,4.425757209803409
301,2486.6,4.444915159747077
302,2492.33,4.357360349876316
303,2503.8300000000004,4.50190330388788
304,2511.88643,4.355731239432844
305,2515.3900000000003,4.2940268453844315
306,2527.0,4.255031012212355
307,2532.83,4.277394245856351
308,2544.52,4.232556093420384
309,2556.26,4.334942241444485
310,2562.16,4.278571695732578
311,2573.98,4.359366524492788
312,2585.8599999999997,4.320424113805083
313,2597.8,4.278614463669458
314,2603.7900000000004,4.215932058785673
315,2615.81,4.181120089386159
316,2627.88,4.241792420446712
317,2633.94,4.299664236207024
318,2646.1,4.432846708095702
319,2652.2000000000003,4.479154364224067
320,2664.44,4.259554516848855
321,2676.7400000000002,4.3365264300257245
322,2682.91,4.320850306798187
323,2695.29,4.225525900711165
324,2707.73,4.268469255176227
325,2713.97,4.163144352592786
326,2726.5,4.14206184788597
327,2732.79,4.2226992457625965
328,2745.4,3.9630764217918917
329,2758.07,3.9827613583732684
330,2764.43,4.037365976893992
331,2777.19,4.095915054303492
332,2783.59,3.9945115131922693
333,2796.44,3.6862177314298936
334,2802.8900000000003,3.7701364907787394
335,2815.82,4.031117389752472
336,2822.31,4.127284989469374
337,2835.34,4.043290489363244
338,2841.88,3.990734389540215
339,2854.9999999999995,3.9047810302622095
340,2868.17,4.073116971444271
341,2874.79,4.078077552357351
342,2884.0315,4.050083391527572
343,2888.0499999999997,4.0397450795499985
344,2894.7099999999996,4.026277790719199
345,2908.0699999999997,4.189326313424981
346,2928.23,4.093025898585804
347,2948.5299999999997,4.047499835032465
348,2968.9700000000003,4.077304122764964
349,2989.55,4.065542761783304
350,3010.27,4.081201752087483
351,3031.14,4.065505118769346
352,3052.15,4.045713836737048
353,3073.2999999999997,4.04179590599059
354,3087.49,4.048736511319561
355,3108.8900000000003,4.032728207869242
356,3130.44,3.98805528079661
357,3152.14,3.9798557301016615
358,3166.6899999999996,3.974363238737077
359,3188.64,3.8499433153382694
360,3210.7400000000002,3.9125167683171465
361,3232.9999999999995,3.7885356227655556
362,3247.92,3.9105550597992584
363,3270.44,3.970470566635653
364,3293.1,3.932013424757887
365,3308.3,3.9178385643632683
366,3311.31121,3.9099330227713613
367,3323.58,3.881650379198528
368,3331.24,3.9115367121593687
369,3338.92,3.788475497686686
370,3346.6099999999997,3.919690509497243
371,3354.33,3.8414262001575157
372,3362.06,3.745611117101027
373,3369.81,3.8361634866110155
374,3377.58,3.785097308687482
375,3385.36,3.826591357047186
376,3393.1699999999996,3.913563084256608
377,3400.99,4.033636037749267
378,3408.83,3.8336114438084037
379,3416.69,3.833124302434018
380,3424.57,3.9398936136261096
381,3432.46,4.00054715110144
382,3440.37,3.912051141143248
383,3448.3,3.753834583751533
384,3456.25,3.782935478926296
385,3464.2200000000003,3.690020826667536
386,3472.21,3.865539626975253
387,3480.21,3.721470653566209
388,3488.23,3.8023711327236427
389,3496.2700000000004,3.7712450644475535
390,3504.33,3.850543448737942
391,3512.4100000000003,3.778770285594807
392,3520.51,3.8819855750181502
393,3528.6299999999997,3.6705503170079714
394,3536.7599999999998,3.84452928528103
395,3544.91,3.9189547061205667
396,3553.08,3.93322057952658
397,3560.4799999999996,4.019223029123214
398,3563.1400000000003,4.199471220464707
399,3565.8,4.0772164118062
400,3568.46,3.884306603147693
401,3571.12,4.115572794489186
402,3573.7799999999997,4.1791899858306785
403,3576.44,4.003140177172172
404,3579.1,3.6285473685136647
405,3581.7599999999998,3.4190695598551577
406,3584.4199999999996,3.6626157511966513
407,3587.09,3.418548168821382
408,3589.75,3.733673360162875
409,3592.41,3.7464435515043677
410,3595.07,3.850212742845861
411,3597.73,3.911808934187354
412,3600.39,3.8016391255288466
413,3603.0499999999997,3.8765363168703395
414,3605.7099999999996,3.554376508211833
415,3608.3700000000003,3.566196699553325
416,3611.03,3.6728158908948183
417,3613.69,3.5865470822363106
418,3616.35,3.9458942735778044
419,3619.0099999999998,3.655187464919297
420,3621.67,3.4304826562607897
421,3624.33,3.5408788476022828
422,3626.99,3.831544038943776
423,3629.6499999999996,3.7300472302852685
424,3632.3100000000004,3.812035421626761
425,3634.9700000000003,3.685809612968254
426,3637.63,3.655698804309747
427,3640.29,3.93990799565124
428,3642.95,3.747436186992733
429,3645.61,3.6787083783342256
430,3648.27,3.7343845696757185
431,3650.93,3.8147647610172117
432,3653.5899999999997,3.867490952358705
433,3656.25,4.048056143700197
434,3658.9100000000003,3.7874633350416897
435,3661.57,3.842017526383183
436,3664.2400000000002,3.906297944007915
437,3666.9,3.6248501353494076
438,3669.56,3.7999323266909006
439,3672.22,3.9382985180323935
440,3674.8799999999997,3.8684257093738865
441,3677.5400000000004,3.935088900715379
442,3680.2000000000003,3.852377092056872
443,3682.86,3.8557182833983648
444,3685.52,4.046126474739858
445,3688.18,4.185198666081352
446,3690.84,3.9469718574228434
447,3693.5,3.8907440487643363
448,3696.16,3.7210042401058296
449,3698.8199999999997,3.7401084314473225
450,3701.4799999999996,3.4669686227888157
451,3704.1400000000003,3.480518814130308
452,3706.8,3.7616570054718004
453,3709.46,3.5704521968132936
454,3712.12,3.9841793881547867
455,3714.7799999999997,4.03461657949628
456,3717.44,5.089505770837772
457,3720.1,6.013755962179266
458,3722.7599999999998,7.398972153520759
459,3725.4199999999996,7.745065344862251
460,3728.08,6.921689536203744
461,3730.7400000000002,5.758193727545237
462,3733.4,4.855389918886729
463,3736.06,4.361902110228224
464,3738.72,4.085009301569715
465,3741.39,3.8611857191944474
466,3744.0499999999997,3.8377019105359405
467,3746.7099999999996,3.8585371018774337
468,3749.3700000000003,4.046483293218926
469,3752.03,4.138241484560418
470,3754.69,3.9289836759019114
471,3757.35,3.9464558672434045
472,3760.0099999999998,4.206105058584898
473,3762.67,4.12047024992639
474,3765.33,4.103686441267883
475,3767.99,4.215739632609377
476,3770.6499999999996,4.164701823950869
477,3773.3100000000004,4.2932240152923615
478,3775.9700000000003,4.367659206633855
479,3778.63,4.275446397975347
480,3781.29,4.46828958931684
481,3783.95,4.606071780658334
482,3786.61,4.407143971999826
483,3789.27,4.01832316334132
484,3791.93,3.7423083546828124
485,3794.5899999999997,3.921069546024305
486,3797.25,3.964538737365798
487,3799.9100000000003,3.8196499287072907
488,3801.8939600000003,4.067407145389213
489,3802.57,4.151983540664907
490,3805.23,4.539364458115637
491,3807.89,4.369055375566367
492,3810.5499999999997,4.519374293017097
493,3813.21,4.499390210467826
494,3815.87,4.470635127918555
495,3818.5400000000004,4.499845526261957
496,3821.2000000000003,4.349028443712687
497,3823.86,3.9552293611634175
498,3826.52,3.7797302786141467
499,3829.18,3.663241196064876
500,3831.84,3.404491113515606
501,3834.5,3.468269030966336
502,3837.16,3.8347699484170654
503,3839.8199999999997,3.8978908658677955
504,3842.4799999999996,4.079760783318526
505,3845.1400000000003,4.660346700769255
506,3847.8,4.545586618219985
507,3850.46,4.632804535670714
508,3853.12,4.695657453121444
509,3855.7799999999997,4.893243370572174
510,3858.44,4.752657288022903
511,3861.1,4.775553205473633
512,3863.7599999999998,4.806490122924363
513,3866.42,4.987022040375093
514,3869.08,4.803554957825822
515,3871.7400000000002,4.570629875276552
516,3874.4,4.3340507927272816
517,3877.06,4.237563710178012
518,3879.72,4.150335627628741
519,3882.38,4.03479554507947
520,3885.04,3.8423384625302006
521,3887.7,3.80515337998093
522,3890.36,4.12399829743166
523,3893.03,4.341543695775062
524,3895.69,4.497954613225792
525,3898.35,4.636334530676521
526,3901.0099999999998,4.744017448127251
527,3903.67,4.73987036557798
528,3906.33,4.56127728302871
529,3908.99,4.746680200479441
530,3911.6499999999996,4.9245311179301705
531,3914.31,4.730101035380899
532,3916.9700000000003,4.5534579528316295
533,3919.63,4.459163870282359
534,3922.29,4.582926787733089
535,3924.95,4.443315705183819
536,3927.61,4.1100116226345484
537,3930.27,4.029361540085278
538,3932.93,3.961624457536008
539,3935.59,3.8538323749867374
540,3938.25,4.042744292437467
541,3940.9100000000003,4.525388209888197
542,3943.57,4.707137127338926
543,3946.23,4.752204044789657
544,3948.89,4.782409962240386
545,3951.5499999999997,4.711504879691116
546,3954.21,4.643036797141846
547,3956.87,4.311924714592576
548,3959.53,4.222259632043305
549,3962.19,4.187901549494035
550,3964.85,3.9403334669447645
551,3967.51,3.7820103843954946
552,3970.18,3.7493407827388965
553,3972.84,3.9387637001896256
554,3975.5,4.399331617640356
555,3978.16,4.452926535091086
556,3980.8199999999997,4.450971452541816
557,3983.48,4.683153369992545
558,3986.1400000000003,4.886099287443274
559,3988.8,4.935552204894004
560,3991.46,4.881459122344734
561,3994.12,4.973061039795463
562,3996.7799999999997,5.080012957246193
563,3999.44,4.949172874696924
564,4002.1,4.986687792147653
565,4004.7599999999998,4.807851709598383
566,4007.42,4.900916627049113
567,4010.08,5.220077544499842
568,4012.7400000000002,5.129194461950572
569,4015.4,4.998842379401301
570,4018.06,4.9432862968520315
571,4020.72,5.109930214302761
572,4023.3799999999997,5.093844131753491
573,4026.04,4.845082049204221
574,4028.7000000000003,4.97323096665495
575,4031.36,4.87893688410568
576,4034.02,5.000994801556409
577,4036.6800000000003,4.9510437190071395
578,4039.34,5.098683636457869
579,4042.0,5.014622553908598
580,4044.67,5.176369952252001
581,4047.33,4.98608186970273
582,4049.99,5.04552378715346
583,4052.6499999999996,4.9261357046041905
584,4055.31,4.935875622054919
585,4057.9700000000003,4.952680539505649
586,4060.63,4.903216456956379
587,4063.29,4.889567374407108
588,4065.95,4.823779291857838
589,4068.6099999999997,4.850817209308568
590,4071.27,5.0276931267592975
591,4073.93,5.015506044210028
592,4076.59,4.856646961660758
593,4079.25,4.787691879111487
594,4081.9100000000003,4.719223796562217
595,4084.57,4.678529714012947
596,4087.23,4.651724631463677
597,4089.89,4.499931548914406
598,4092.5499999999997,4.522583466365136
599,4095.21,4.3876023838158655
600,4097.87,4.265045301266595
601,4100.53,4.0827982187173255
602,4103.19,4.205343136168055
603,4105.849999999999,4.490882053618785
604,4108.51,4.340794971069514
605,4111.17,4.553242888520244
606,4113.83,4.6548338059709735
607,4116.49,4.639478723421703
