,lambda (Angstroms),Total Flux (erg/s/cm^2/Angstrom)
0,102.05000000000001,0.01880147131356571
1,103.95,0.021993137658487084
2,104.712855,0.02327460009635608
3,105.88,0.021638715385366592
4,108.10000000000001,0.018527136229211167
5,110.11,0.015709895658256322
6,113.98,0.010285656359387945
7,117.97999999999999,0.0046792075083670415
8,120.22644299999999,0.0015305661676608452
9,121.01,0.0014797489566045748
10,124.97,0.001222924566825075
11,127.0,0.0010912696787869296
12,127.88000000000001,0.0010341977053023733
13,130.86,0.0008409311071512189
14,132.07,0.0007624575826739563
15,133.91,0.0006431254260586125
16,137.03,0.0004407806574375515
17,138.038426,0.0003753800093521313
18,139.9,0.00037111720188888356
19,143.16,0.00036366923858964723
20,147.17,0.0003545409228341571
21,150.94,0.00034592903525794823
22,155.17,0.00033627028312811704
23,158.489319,0.00032870015615211486
24,159.14999999999998,0.0003263815401581896
25,162.10999999999999,0.0003159977828590919
26,165.89,0.0003027511407028117
27,170.14000000000001,0.0002878548150186341
28,172.91,0.0002781627699840056
29,176.93,0.00026409716653050117
30,179.81,0.00025403058586381154
31,181.89000000000001,0.00024676212922120235
32,181.970086,0.0002464824329778322
33,186.13000000000002,0.00025130542361156727
34,190.9,0.00025687306271316286
35,194.0,0.00026050550264983914
36,198.07000000000002,0.0002652795973463788
37,202.21,0.0002701638678534239
38,205.03,0.00027351512264807795
39,208.929613,0.00027810752135602084
40,209.79999999999998,0.00028413294390910396
41,216.17999999999998,0.0003284976719684512
42,220.20000000000002,0.0003564670026202658
43,222.75,0.0003742293509292523
44,226.89000000000001,0.0004030888624661957
45,230.04,0.0004267064112008261
46,233.78,0.00045600456278734004
47,239.78,0.0005007057770437793
48,239.88329199999998,0.0005014267398840279
49,245.93,0.0004677879161795587
50,252.24,0.00043443984900831125
51,256.93,0.0004066003430759579
52,259.9,0.00039277291413798585
53,264.13,0.0003708210586808738
54,269.04,0.0003445412720864483
55,274.04,0.0003176753543120843
56,275.42287,0.00031026603765915
57,279.13,0.0003338292809981161
58,284.32,0.00036695598303900244
59,290.28000000000003,0.0004038301072323905
60,295.67,0.0004388758222999004
61,301.17,0.0004734840105320536
62,308.19,0.0005188929297665471
63,316.227766,0.000571101375451291
64,318.28000000000003,0.0005629257808763797
65,327.95,0.0005240512691447013
66,337.92,0.0004835450530986997
67,348.19000000000005,0.000441695452738375
68,357.12,0.00040584477698202693
69,363.078055,0.00038246871478076155
70,366.28000000000003,0.0003951639520737312
71,374.81,0.00042803098447440085
72,385.31,0.0004660256509816732
73,395.2,0.0005068254538823325
74,405.33,0.0005470973509888723
75,413.82,0.0005795772610218952
76,416.86938299999997,0.0005909039474014343
77,421.51,0.000601722411191376
78,430.34000000000003,0.0006224381517715461
79,441.37999999999994,0.000650556209110739
80,450.62,0.0006727670143837595
81,460.06,0.0006942212487752434
82,469.68999999999994,0.0007176320858292678
83,478.630092,0.0007402396184260807
84,479.53000000000003,0.0007382003947478608
85,489.57,0.0007115789890251098
86,499.82,0.0006893793774157276
87,505.61,0.0006750964879700373
88,511.46,0.0006897555882710241
89,519.77,0.0006719930681857592
90,529.43,0.000650726917400722
91,540.52,0.0006188702222448147
92,549.5408739999999,0.0006186517309034998
93,550.57,0.0006205150626191508
94,559.52,0.0006364004446718313
95,569.92,0.0006496784634816498
96,580.51,0.0006382973650389552
97,589.9499999999999,0.0006679389236509444
98,599.53,0.0006702561327084501
99,610.68,0.0006887645360478228
100,620.6,0.0007322742247587265
101,630.68,0.0007541842568359352
102,630.957344,0.0007542721948547875
103,639.46,0.0007746431162765922
104,649.85,0.0008404617879527777
105,657.37,0.000885408389011961
106,664.99,0.0009251221305107611
107,674.24,0.000946802021175315
108,685.1899999999999,0.0009622895993133544
109,694.72,0.0011316549432088354
110,704.39,0.00112469616371978
111,715.8299999999999,0.0012756344100119418
112,724.43596,0.0013250954437348903
113,725.7900000000001,0.0013321810071128476
114,734.2,0.00138373198061199
115,744.41,0.0015247587719825306
116,754.77,0.0016227903148423547
117,765.27,0.001706849919092176
118,774.13,0.0018490229470591681
119,784.9000000000001,0.0019810758839896993
120,795.82,0.0020745016724095138
121,805.0300000000001,0.0021719113538514996
122,814.3499999999999,0.002262907726385627
123,825.6800000000001,0.002470901908876149
124,831.763771,0.002251594268636527
125,835.24,0.0021187770809430366
126,844.91,0.002606707838488719
127,854.7,0.002679599963242828
128,864.5899999999999,0.0028726450606706257
129,874.61,0.003073688722574218
130,884.7299999999999,0.003340029357151499
131,894.9799999999999,0.0035291295562045752
132,905.34,0.0035208839251987083
133,915.8199999999999,0.005506234661401268
134,924.3,0.03950709394413006
135,935.0,0.08810720502021473
136,945.83,0.17178345366077521
137,954.58,0.25214700126972295
138,954.992586,0.25295868088535434
139,965.63,0.27389890169197684
140,974.57,0.039638169998522814
141,985.85,0.2136806708148359
142,994.98,0.24414303466704676
143,1004.18,0.38850068214134464
144,1015.8100000000001,0.38672756106809303
145,1025.21,0.1705752617483539
146,1034.7,0.2597647413712982
147,1044.27,0.5410995022766275
148,1053.93,0.5349187421246404
149,1066.14,0.40584658534868145
150,1076.0,0.5026912784026573
151,1085.96,0.3822804480596146
152,1096.0,0.544851698998957
153,1096.4782,0.5439802313331338
154,1106.15,0.5263496046069079
155,1113.81,0.5015072953090004
156,1124.12,0.4469984454576394
157,1134.52,0.6042598297006894
158,1145.02,0.5460648407153071
159,1155.61,0.5959574858243358
160,1166.31,0.6182799503820892
161,1174.39,0.4076541335247664
162,1185.26,0.608391173594185
163,1196.22,0.3920140477580145
164,1204.52,0.266321669798141
165,1215.6599999999999,0.19978701215079256
166,1224.0900000000001,0.4209614389939571
167,1235.41,0.6747497495354307
168,1243.98,0.7501058738587901
169,1255.49,0.7097919452662426
170,1258.92541,0.6658991842339568
171,1264.19,0.598639903785561
172,1275.89,0.8149077132023546
173,1284.73,0.8671764736505985
174,1293.64,0.650341737744926
175,1305.6100000000001,0.644379261225184
176,1314.66,0.8533173326116782
177,1323.77,0.8149150071233866
178,1336.02,0.7032949451879783
179,1345.2800000000002,0.8812768275127226
180,1354.6,0.8552985129626812
181,1363.99,0.7501114020587233
182,1373.45,0.8037358948008486
183,1386.1599999999999,0.8167844568254168
184,1395.77,0.706543857380578
185,1405.44,0.7415232610609536
186,1415.18,0.7553016683874125
187,1424.9899999999998,0.7908975793599547
188,1434.8700000000001,0.7854603939785805
189,1441.49,0.8396948387938944
190,1445.43977,0.8524552924711365
191,1448.15,0.8612111630056195
192,1454.83,0.8339071550285335
193,1464.92,0.7605362961230251
194,1475.07,0.7658191398404769
195,1485.29,0.7890899866180492
196,1495.59,0.8111870368929017
197,1505.96,0.7622945902278747
198,1512.91,0.6654891940541102
199,1516.3999999999999,0.7263320466229681
200,1523.4,0.7000697526350038
201,1533.95,0.5986549138388577
202,1544.5900000000001,0.679429078977152
203,1555.29,0.6414490467384066
204,1566.07,0.6518602179969417
205,1573.3,0.7033102340636587
206,1584.21,0.7483995110052744
207,1595.19,0.7675924910070105
208,1606.25,0.757061474506027
209,1613.66,0.7658221984416248
210,1624.85,0.719680887623722
211,1636.1100000000001,0.7764698798659395
212,1643.66,0.792735209921778
213,1655.06,0.7263340082842362
214,1659.58691,0.7583579700900679
215,1666.53,0.8074762227627544
216,1670.37,0.7049290486819885
217,1678.0800000000002,0.8130735100979506
218,1685.8300000000002,0.8612322842839045
219,1693.6100000000001,0.8037600680473527
220,1705.35,0.7693759160400108
221,1713.22,0.7246842285359408
222,1725.09,0.7230182180310731
223,1733.06,0.7818883624519833
224,1745.07,0.7640985966420875
225,1753.12,0.8263016666029818
226,1765.28,0.7501469486805561
227,1773.42,0.7729502473739324
228,1785.72,0.7909368741464788
229,1793.96,0.8573165047648351
230,1806.3899999999999,0.8533898730398556
231,1814.73,0.778314335583192
232,1823.11,0.8019579108965204
233,1835.7499999999998,0.7658746462139989
234,1844.22,0.7001424502598094
235,1857.0,0.7017649302722601
236,1865.57,0.7297542662430506
237,1874.19,0.8038204181763311
238,1882.8400000000001,0.7348164796871056
239,1895.89,0.7049988458970025
240,1904.6399999999999,0.753658639332757
241,1905.46072,0.7508028704432435
242,1913.43,0.7230672218568827
243,1926.69,0.7115157651474979
244,1935.5900000000001,0.7364994026502487
245,1944.5200000000002,0.7729721278075031
246,1953.5,0.7213935323889303
247,1967.04,0.8019528604549131
248,1976.1200000000001,0.8282261238846857
249,1985.24,0.7801038708537966
250,1994.4,0.7571082013622459
251,2003.6100000000001,0.7836935112948678
252,2012.85,0.7536176088819933
253,2026.81,0.7964226641110271
254,2036.1599999999999,0.7501446164313327
255,2045.56,0.787302848175811
256,2055.0,0.7518684634596277
257,2064.49,0.755326758167617
258,2074.02,0.8149405364149445
259,2078.8,0.77291686936586
260,2083.5899999999997,0.8056104982016102
261,2093.21,0.7605470394124487
262,2102.87,0.7658194641626254
263,2112.58,0.774673368336975
264,2127.22,0.7890819437347582
265,2137.04,0.7279985026422877
266,2146.9,0.7500962450891555
267,2156.81,0.783635366960196
268,2166.77,0.7587861682554092
269,2176.77,0.7535473530899607
270,2186.8199999999997,0.7398045173486849
271,2187.7616199999998,0.7433896489702521
272,2196.91,0.7782280314313792
273,2207.05,0.7570375583558749
274,2217.2400000000002,0.7180062016853238
275,2227.47,0.6920500581387352
276,2232.6099999999997,0.7467067445679175
277,2242.91,0.7117803239882633
278,2253.27,0.6800485230945529
279,2263.67,0.701033835324805
280,2274.12,0.7226480639600102
281,2284.61,0.743224505719178
282,2295.16,0.7019688671642894
283,2305.75,0.7006753417333634
284,2316.3900000000003,0.6663916327073905
285,2327.09,0.5092985433673615
286,2332.4500000000003,0.6166546019783375
287,2343.22,0.5987454356052428
288,2354.03,0.6522711823561106
289,2364.9,0.5965488487929221
290,2375.81,0.6163751283536961
291,2386.78,0.571560827600414
292,2392.2799999999997,0.6139802321452588
293,2403.33,0.5866189576399017
294,2414.42,0.604735196258507
295,2425.56,0.6438134512820656
296,2436.76,0.6165529259915677
297,2442.38,0.6562543699083001
298,2453.65,0.6460634675847368
299,2464.98,0.6434050849471171
300,2476.35,0.6190260154334601
301,2487.78,0.6395976656057467
302,2493.52,0.6012186488943666
303,2505.0299999999997,0.6717647253145783
304,2510.8,0.5975225184461701
305,2511.88643,0.6012237358387582
306,2516.59,0.6172455776295207
307,2522.39,0.5882520411282628
308,2534.0299999999997,0.596734463046428
309,2545.73,0.5847849773456144
310,2557.4799999999996,0.6297783852956523
311,2563.38,0.6141876360960968
312,2575.21,0.6523939338874967
313,2587.1,0.6452440240599179
314,2593.06,0.6365462672413839
315,2605.0299999999997,0.613845847255167
316,2617.05,0.6057194209198015
317,2623.09,0.6358704539426295
318,2635.19,0.6540202174486259
319,2647.36,0.709247272065814
320,2653.46,0.7192859974696634
321,2665.71,0.6533418419282135
322,2678.01,0.6860394800376148
323,2684.19,0.6815062952828262
324,2696.58,0.6541835219637597
325,2702.79,0.6726693333994818
326,2715.27,0.6397945486519475
327,2727.8,0.6416054575552644
328,2734.09,0.6751035588323485
329,2746.71,0.5856227563071976
330,2753.04,0.5980440525049627
331,2765.75,0.619378338551344
332,2772.1200000000003,0.65022272966979
333,2784.92,0.6184307042877036
334,2797.77,0.5007050725564685
335,2804.2200000000003,0.5391067535162765
336,2817.17,0.6469457090867436
337,2823.66,0.6760411849672326
338,2836.69,0.6489544303790618
339,2843.23,0.6358240999104019
340,2856.36,0.6174166326239336
341,2862.94,0.6724926970759548
342,2876.16,0.6666811183610186
343,2882.79,0.666859776463891
344,2884.0315,0.6661816291303163
345,2896.09,0.6595963874776783
346,2909.46,0.7120512527325887
347,2929.6299999999997,0.6868755003160996
348,2949.9399999999996,0.6780196475357875
349,2970.38,0.6912073944176398
350,2990.97,0.6917804409096818
351,3011.71,0.7020113870119136
352,3032.5800000000004,0.6993767327763096
353,3046.58,0.6981752963940169
354,3067.7,0.7003990415087292
355,3088.96,0.7058531862596186
356,3110.37,0.7000070306206978
357,3131.93,0.6926041745919667
358,3146.39,0.6978220370142555
359,3168.2,0.6952422803358407
360,3190.1600000000003,0.6645573232676154
361,3212.27,0.68536176580958
362,3227.1,0.6609752272703369
363,3249.47,0.6895553691366302
364,3272.0,0.7078941105871258
365,3287.1,0.7034474713462242
366,3309.88,0.7041002121470362
367,3311.31121,0.7041425733676873
368,3325.16,0.7045518204501916
369,3332.83,0.7063793394214164
370,3340.5099999999998,0.6732533578958632
371,3348.2099999999996,0.7266151753767538
372,3355.93,0.7005706918640883
373,3363.66,0.6555397078546447
374,3371.42,0.6512252223548669
375,3379.19,0.7028342363583111
376,3386.98,0.7128328493681991
377,3394.79,0.704899861384531
378,3402.6099999999997,0.7332665729040848
379,3410.46,0.6767312829333044
380,3418.32,0.6879334924657461
381,3426.2,0.7041707010046315
382,3434.1,0.7274737085499607
383,3442.0099999999998,0.6886014155985121
384,3449.95,0.6904101211567292
385,3457.8999999999996,0.6811604262181682
386,3465.87,0.667403030286051
387,3473.8599999999997,0.7055266333603778
388,3481.8700000000003,0.6802541354411484
389,3489.9,0.7059966365283629
390,3497.94,0.6822629371187993
391,3506.0099999999998,0.6983599362189016
392,3514.09,0.6748777348222257
393,3522.19,0.7069021324319937
394,3530.31,0.6815692290482057
395,3538.4500000000003,0.7090069246708615
396,3546.6,0.7224141197967392
397,3554.78,0.7276644134322827
398,3562.97,0.7146170065710482
399,3568.73,0.5347322204268832
400,3571.4,0.44084238778714013
401,3574.0699999999997,0.715855655147397
402,3576.74,1.0628695225076539
403,3579.3999999999996,0.7282776903646888
404,3582.07,0.18416075772494567
405,3584.7400000000002,-0.007967589914797468
406,3587.41,0.46233479244545944
407,3590.07,0.4160021603024944
408,3592.74,1.3246597276627512
409,3595.41,1.3226895950230082
410,3598.0800000000004,0.891369462383265
411,3600.75,0.26321872974352184
412,3603.4100000000003,0.15872709760055678
413,3606.08,0.43064496496081367
414,3608.75,0.6158633323210705
415,3611.42,1.0806617996813275
416,3614.08,0.20440566753836234
417,3616.7500000000005,0.3547066348986192
418,3619.42,0.20830220225887608
419,3622.09,0.36037426961913294
420,3624.76,0.5237440369793898
421,3627.42,-0.10634469516357524
422,3630.09,0.6364713721966816
423,3632.7599999999998,0.2710711395569385
424,3635.43,-0.04152010308280462
425,3638.09,-0.2192584252257697
426,3640.76,0.8635765421344872
427,3643.43,1.3156602094947443
428,3646.1,0.615447676855001
429,3648.7599999999998,0.3827149447120358
430,3651.43,0.27443671207229275
431,3654.1,0.6578656794325496
432,3656.7699999999995,1.0778065467928064
433,3659.44,0.9190008141530633
434,3662.1,0.7606132820100983
435,3664.77,0.3164399493703552
436,3667.44,1.1828560167306121
437,3670.1099999999997,1.0632198840908689
438,3672.77,0.5612804519479039
439,3675.4399999999996,0.7920463193081607
440,3678.11,1.0522964866684177
441,3680.78,1.1622853540286744
442,3683.45,0.28283882138893135
443,3686.11,0.7627377892459662
444,3688.7799999999997,0.6263711566062232
445,3691.45,0.47305762396648
446,3694.1200000000003,0.8369795913267369
447,3696.78,1.042063559183772
448,3699.4500000000003,0.43790372654402876
449,3702.12,0.6175715939042855
450,3704.79,0.5495258612645425
451,3707.46,0.5066944286247994
452,3710.12,0.6421566964818343
453,3712.7900000000004,0.8432989638420911
454,3715.46,0.997141831202348
455,3718.13,0.4628597985626049
456,3720.79,0.8127514664196398
457,3723.46,1.3106972337798966
458,3726.13,1.4789091011401536
459,3728.7999999999997,2.1640199685004102
460,3731.4700000000003,1.8874288358606672
461,3734.13,1.6218507037177023
462,3736.8,0.9312226710779592
463,3739.47,0.673981438438216
464,3742.14,0.7369077057984729
465,3744.7999999999997,0.7841306736555078
466,3747.47,1.0288520410157647
467,3750.1400000000003,1.0216659083760216
468,3752.81,0.7590116757362785
469,3755.4700000000003,0.5760192435933135
470,3758.14,0.9848596109535702
471,3760.81,1.0878803783138271
472,3763.48,0.955115545674084
473,3766.1499999999996,1.0102471130343407
474,3768.8100000000004,0.6948460808913758
475,3771.48,0.4763020482516327
476,3774.15,0.8072158156118896
477,3776.82,0.9846783829721464
478,3779.48,0.6740210508291814
479,3782.15,0.9385238181894382
480,3784.8199999999997,1.090280185549695
481,3787.4900000000002,0.922125252909952
482,3790.1600000000003,0.7507226202702089
483,3792.82,0.2202613881272438
484,3795.4900000000002,0.7562162554875007
485,3798.16,1.1228155228477574
486,3800.83,0.5525126902080144
487,3801.8939600000003,0.5009610154565524
488,3803.49,0.4236286745855996
489,3806.1600000000003,0.9715511695829264
490,3808.8300000000004,1.0833700645802533
491,3811.5,1.14672895957758
492,3814.17,1.1999318545749071
493,3816.83,1.0132407499655023
494,3819.5,1.166059644962829
495,3822.1699999999996,1.312481539960156
496,3824.8399999999997,0.5756984349574829
497,3827.5,0.8005035303480781
498,3830.17,0.760978425345405
499,3832.84,0.8897648203427319
500,3835.5099999999998,0.7097607153400587
501,3838.18,0.6288619103373856
502,3840.8399999999997,0.9070085057279809
503,3843.5099999999998,1.0985647007253077
504,3846.1800000000003,0.4135872957226346
505,3848.85,0.7955391907199615
506,3851.51,1.2377273861105567
507,3854.18,1.4110952811078836
508,3856.85,1.1726311761052106
509,3859.52,0.8464595711025373
510,3862.18,1.1347839664931325
511,3864.8500000000004,0.9346230614904595
512,3867.52,1.4113307564877864
513,3870.19,1.350467651485113
514,3872.86,1.26720654648244
515,3875.52,1.3039204418730352
516,3878.19,0.8854926368703622
517,3880.8599999999997,1.313916231867689
518,3883.53,1.2027241268650157
519,3886.19,1.2092250222556111
520,3888.86,0.815833517252938
521,3891.53,0.34989091225026486
522,3894.2,0.3050914072475917
523,3896.87,1.2053016022449186
524,3899.5299999999997,1.044671497635514
525,3902.2000000000003,1.1305673926328408
526,3904.87,0.5319992876301676
527,3907.54,0.9321973826274944
528,3910.2,1.0016830780180899
529,3912.87,1.4740209730154166
530,3915.54,1.3126358680127435
531,3918.2099999999996,1.2650207630100703
532,3920.88,1.189337658007397
533,3923.54,1.0847255533979925
534,3926.21,1.3588524483953193
535,3928.88,1.5028733433926462
536,3931.5499999999997,0.774376538389973
537,3934.21,0.5232405337805683
538,3936.8799999999997,1.201879028777895
539,3939.55,0.584808223775222
540,3942.2200000000003,0.7826237187725489
541,3944.89,0.8943643137698757
542,3947.55,0.863838809160471
543,3950.22,1.3430065041577979
544,3952.89,1.2261653991551247
545,3955.5600000000004,1.3079672941524514
546,3958.2200000000003,0.9126928895430468
547,3960.8900000000003,1.3000190845403736
548,3963.56,1.2679529795377005
549,3966.23,0.8710791745350274
550,3968.9,0.9736077695323543
551,3971.56,0.47944336492294953
552,3974.2300000000005,0.7195584599202764
553,3976.9,0.7396935549176032
554,3979.57,0.6263764499149301
555,3982.23,1.2193962453055254
556,3984.9,1.1577471403028523
557,3987.5699999999997,0.900210135300179
558,3990.24,1.0018139302975058
559,3992.8999999999996,1.3030898256881012
560,3995.57,1.2172697206854282
561,3998.2400000000002,1.913522615682755
562,4000.91,1.1490835106800816
563,4003.58,1.1026104056774086
564,4006.24,1.105980301068004
565,4008.91,1.2374241960653307
566,4011.58,1.1064700910626575
567,4014.2499999999995,1.5525689860599845
568,4016.9100000000003,1.4373288814505798
569,4019.58,1.2029587764479066
570,4022.25,1.4608856714452334
571,4024.92,1.5331415664425605
572,4027.5899999999997,1.2165554614398872
573,4030.25,1.0520273568304825
574,4032.9199999999996,1.1571932518278092
575,4035.59,1.4600781468251363
576,4038.26,1.2503120418224631
577,4040.92,1.2108719372130583
578,4043.59,1.396069832210385
579,4046.2599999999998,1.3008017272077121
580,4048.93,1.2349986222050389
581,4051.6000000000004,1.1668935172023658
582,4054.26,0.7782911125929611
583,4056.9300000000003,0.8762734075902879
584,4059.6,1.3048352025876149
585,4062.27,1.3627220975849414
586,4064.93,1.3919959929755368
