,lambda (Angstroms),Total Flux (erg/s/cm^2/Angstrom)
0,102.00000000000001,0.018676680347103555
1,103.9,0.021861389611514487
2,104.712855,0.02322386690336367
3,106.07000000000001,0.02132582221673968
4,108.05,0.01855667930742151
5,110.05,0.01575956530457912
6,113.91999999999999,0.010347149744882139
7,117.92,0.0047529219084372345
8,120.22644299999999,0.0015272319908750088
9,120.95,0.0014804088149571696
10,124.91,0.0012241458366312864
11,126.94,0.0010927788844809015
12,128.12,0.001016417928888047
13,131.1,0.0008235745045552463
14,132.01,0.0007646880154973845
15,133.85,0.000645617802835883
16,136.96,0.000444366934782529
17,138.038426,0.0003745805231112829
18,140.15,0.000369758866750296
19,143.09,0.0003631099061855765
20,147.10000000000002,0.00035416152054101017
21,150.87,0.0003456358266629516
22,155.1,0.0003360869172907532
23,158.489319,0.0003284700571550499
24,159.07999999999998,0.00032641836140903283
25,162.02999999999997,0.00031619079116471674
26,166.19,0.00030180657116256245
27,170.06,0.0002884637270081546
28,172.82,0.0002789960412778792
29,176.85,0.00026517829426954236
30,180.14,0.0002539123982106272
31,181.8,0.00024829933135111365
32,181.970086,0.0002477210682496659
33,186.04,0.00025277540363427824
34,190.81,0.0002588632575762723
35,193.91,0.00026287851886352205
36,197.97,0.0002681708432397266
37,202.12,0.00027370110212427063
38,204.93,0.0002775570878846486
39,208.929613,0.000282793643926889
40,210.19,0.00029166901376264834
41,216.07999999999998,0.0003342070608656894
42,220.09,0.00036315581909203843
43,223.15,0.0003851373307211226
44,226.78,0.00041181650490856555
45,229.94,0.00044209471312683544
46,234.21,0.0004889522994850674
47,239.88329199999998,0.0005424793856696242
48,240.22000000000003,0.0005414420729138202
49,245.80999999999997,0.0005132452282552949
50,252.11999999999998,0.0004886002557158859
51,256.81,0.0004568472984084644
52,259.78000000000003,0.0004535985471498201
53,264.0,0.000439041960681309
54,268.91,0.000418595659576951
55,273.90999999999997,0.00039755260873748297
56,275.42287,0.00039131060205837426
57,279.0,0.0004183631891379421
58,284.19,0.00045777943263327
59,290.14000000000004,0.0004978302412647156
60,296.21000000000004,0.000546823107549232
61,301.03000000000003,0.0005831927232809236
62,308.04,0.0006398526411811642
63,316.227766,0.0007073182893249182
64,318.13,0.0007031020017346065
65,327.79999999999995,0.0006806773372916444
66,337.76,0.0006557765339977553
67,348.02,0.000629208883616701
68,356.95,0.000607776028655413
69,363.078055,0.0005949806255988515
70,366.09999999999997,0.000612456810462163
71,374.63000000000005,0.0006588976303403845
72,385.13,0.0007054011859935287
73,395.01,0.0007702324730271539
74,405.14,0.0008298618280525207
75,413.62,0.0008760116343323936
76,416.86938299999997,0.0008915066343144007
77,422.28000000000003,0.0009098402339688
78,430.14,0.0009396556034590709
79,441.17,0.0009871847639524155
80,451.45,0.0010233886319371464
81,459.84,0.0010530988668001708
82,469.47,0.00108998285461077
83,478.630092,0.0011265284773897648
84,480.4,0.0011251219170755307
85,490.46,0.0011034953471288867
86,499.58000000000004,0.0011044995642349115
87,506.53,0.001085627085494437
88,512.4,0.0011186489876229859
89,519.52,0.0011126480878197948
90,530.4,0.0010939663398059295
91,540.26,0.0010658343181683641
92,549.5408739999999,0.0010690881394644336
93,550.31,0.0010707659199404834
94,560.54,0.0011048397914613837
95,569.65,0.0011395577979672882
96,580.24,0.0011318424368144376
97,589.67,0.0011726588476103409
98,600.63,0.0011682407195428013
99,610.39,0.001142176600387766
100,620.3100000000001,0.0012602885333777298
101,630.38,0.001282168952753631
102,630.957344,0.0012832087917134909
103,640.63,0.0013206932414261759
104,649.54,0.001388899096607321
105,658.58,0.0014368531561850485
106,664.67,0.0014901191467634068
107,675.4699999999999,0.001522945819710249
108,684.8700000000001,0.0015241113683862047
109,694.39,0.0017309648134282362
110,705.6800000000001,0.0017152929798698892
111,715.49,0.0018958767577966044
112,724.43596,0.0019604173668016354
113,725.4499999999999,0.001967212676618433
114,735.54,0.0020331709527441266
115,745.7700000000001,0.002192430083047976
116,754.41,0.002306745940899908
117,764.9,0.002364292228963191
118,775.54,0.0025829641465030693
119,784.52,0.0027212583645019528
120,795.44,0.002847921990398144
121,804.65,0.0029743460402611404
122,815.84,0.0030906545992152048
123,825.2900000000001,0.0033487452562407554
124,831.763771,0.0030346212182145267
125,834.84,0.0028787266956808674
126,844.51,0.003520459654964039
127,854.2900000000001,0.003610782139120131
128,864.18,0.003862766148149146
129,874.1899999999999,0.004129084911584983
130,884.31,0.004482997199893741
131,894.5500000000001,0.004734458242609323
132,904.91,0.0046896830397317275
133,915.39,0.007502101591260957
134,925.99,0.05501681389719701
135,934.56,0.12179484560775096
136,945.38,0.24203576396343285
137,954.13,0.36780783980559706
138,954.992586,0.3684085788717034
139,965.1700000000001,0.37550918970492375
140,974.0999999999999,0.05086028490547946
141,985.38,0.2622838714746025
142,994.5,0.32784704231772327
143,1006.02,0.5694547528564021
144,1015.3299999999999,0.582702279342088
145,1024.72,0.262880887150959
146,1034.2,0.36525567394841346
147,1046.18,0.8343718770954076
148,1055.86,0.8305260172008253
149,1065.63,0.5948780362948263
150,1075.49,0.7662477343774109
151,1085.44,0.5513863114485787
152,1095.48,0.8440216675083301
153,1096.4782,0.8413877024723191
154,1105.62,0.817260554663795
155,1115.8500000000001,0.7627202797244124
156,1126.1699999999998,0.6720207390230998
157,1133.98,0.9623339323489476
158,1144.47,0.8616488674306559
159,1155.06,0.9623177294435533
160,1165.75,0.9961026183876394
161,1173.83,0.6271491144276969
162,1184.69,0.9846890791548041
163,1195.65,0.5826243708131
164,1203.94,0.36854921340865415
165,1215.0800000000002,0.31954787354309
166,1226.32,0.6860239606087146
167,1234.82,1.1594904497597653
168,1246.25,1.2979330979946488
169,1254.8899999999999,1.2085327848493639
170,1258.92541,1.1099606332591092
171,1263.59,0.9960232786577039
172,1275.28,1.423133686226376
173,1284.12,1.5354591456709494
174,1296.0,1.0845997631145616
175,1304.99,1.0696932303551403
176,1314.03,1.5005037001943873
177,1326.1899999999998,1.4264143321905425
178,1335.3799999999999,1.1864798098257947
179,1344.64,1.5784652910991825
180,1353.9599999999998,1.5284117754909727
181,1366.49,1.309936426717274
182,1375.96,1.4264219189050693
183,1385.5,1.4495894147310002
184,1395.1,1.2538869136753334
185,1404.77,1.3129594162578022
186,1414.51,1.3312359224784067
187,1424.31,1.4166074318174136
188,1434.1899999999998,1.4003759453142897
189,1440.81,1.514392289377986
190,1445.43977,1.5489368800568608
191,1447.46,1.5640106181266016
192,1454.1399999999999,1.5039669095129733
193,1464.22,1.3528403492097738
194,1474.3700000000001,1.3685027919600243
195,1484.5900000000001,1.4297152377637248
196,1494.88,1.479916686620875
197,1505.24,1.3779991385314756
198,1512.1899999999998,1.1810344416954401
199,1515.67,1.309947593495526
200,1526.18,1.2481300519492338
201,1536.76,1.0429675134563914
202,1543.85,1.225357822727256
203,1554.5500000000002,1.151510289468899
204,1565.3300000000002,1.1648337597001996
205,1576.18,1.2625882329849503
206,1583.45,1.3685315501075432
207,1594.43,1.4036240290629864
208,1605.48,1.38755651107188
209,1616.61,1.4133499965704304
210,1624.07,1.3129693219809593
211,1635.3300000000002,1.4362998131502027
212,1646.67,1.4697483078091031
213,1654.27,1.334292639326532
214,1659.58691,1.411421006970349
215,1665.73,1.500535828159282
216,1673.4199999999998,1.2742702778388486
217,1677.28,1.5109275074569404
218,1685.0200000000002,1.6264549730642022
219,1696.6999999999998,1.5109426937738686
220,1704.53,1.4396421880509824
221,1716.3500000000001,1.3374009533581963
222,1724.27,1.340478476305162
223,1736.22,1.4664152830243842
224,1744.24,1.4330388378267407
225,1756.3300000000002,1.5748936891435104
226,1764.4299999999998,1.4068932694301797
227,1776.6599999999999,1.4563281653444966
228,1784.8700000000001,1.500565780672096
229,1793.1,1.6529204023707738
230,1805.53,1.6453243619958726
231,1813.87,1.4833870187354805
232,1826.44,1.5355390229581267
233,1834.8700000000001,1.4597067083675863
234,1843.34,1.3221174065192025
235,1856.12,1.3190994776381697
236,1864.69,1.3812562076451766
237,1873.29,1.553316947208801
238,1886.28,1.4069070852240892
239,1894.98,1.3529298566431047
240,1903.7299999999998,1.4530266439898154
241,1905.46072,1.4444522644083464
242,1916.93,1.3876224858070296
243,1925.77,1.3749048559303492
244,1934.66,1.4265042055226922
245,1943.5900000000001,1.5005895386902537
246,1957.07,1.3972270035389358
247,1966.1000000000001,1.5821772956445441
248,1975.17,1.6377795713253709
249,1984.29,1.535532826475221
250,1993.45,1.4868280652002897
251,2007.27,1.5497213904383302
252,2016.53,1.4731775881014457
253,2025.84,1.5785177652335842
254,2035.19,1.4765829259409415
255,2044.59,1.5676410661173221
256,2054.02,1.490212193975117
257,2063.5,1.4902093013019349
258,2073.0299999999997,1.630198388097776
259,2077.81,1.5390254253364035
260,2087.4,1.6189784874950728
261,2097.03,1.5178965332289605
262,2106.71,1.5249155584318717
263,2116.44,1.5496785631038061
264,2126.21,1.5821035513509591
265,2136.02,1.4396075231733307
266,2145.88,1.5039704744647258
267,2155.79,1.5820954052251441
268,2165.74,1.5248783195607811
269,2175.73,1.5108932174716365
270,2185.7799999999997,1.4833110907453202
271,2187.7616199999998,1.500586740071296
272,2195.86,1.5711939283325267
273,2206.0,1.5213712480050967
274,2216.1800000000003,1.4297015807730218
275,2226.41,1.3781699299101413
276,2236.69,1.5056742954164548
277,2247.01,1.4294696740181236
278,2257.38,1.3508750689889866
279,2262.5899999999997,1.4022537746590151
280,2273.03,1.4530051925467498
281,2283.52,1.5090536268036787
282,2294.06,1.4195620774298017
283,2304.65,1.417741544425119
284,2315.29,1.3305970277896302
285,2325.98,0.9694444275233355
286,2336.71,1.2132650403523961
287,2347.5,1.17871657282449
288,2352.91,1.305043343971295
289,2363.77,1.1724378993602602
290,2374.6800000000003,1.2233154711184198
291,2385.64,1.1220390592457736
292,2396.66,1.2258946670161601
293,2407.7200000000003,1.1665792878819021
294,2413.27,1.211000104862451
295,2424.41,1.3109877519189033
296,2435.6,1.2562234153445502
297,2446.84,1.350590095139391
298,2452.48,1.3327819415844888
299,2463.7999999999997,1.3250366475700406
300,2475.17,1.269716369924786
301,2486.6,1.3127171119225645
302,2492.33,1.237114987832212
303,2503.8300000000004,1.4056467527468623
304,2511.88643,1.2762802687982566
305,2515.3900000000003,1.220019946368218
306,2527.0,1.199064475309445
307,2532.83,1.230486736612404
308,2544.52,1.2038132554171366
309,2556.26,1.3244417678865599
310,2562.16,1.2772390203200863
311,2573.98,1.3764005226530152
312,2585.8599999999997,1.3559180173835732
313,2597.8,1.3326615045117602
314,2603.7900000000004,1.27928674554173
315,2615.81,1.2631522225334226
316,2627.88,1.342579693189806
317,2633.94,1.409867925350343
318,2646.1,1.5619453846031701
319,2652.2000000000003,1.6177316116954599
320,2664.44,1.4171510608117923
321,2676.7400000000002,1.5132355023257538
322,2682.91,1.507146720548611
323,2695.29,1.4310591519260778
324,2707.73,1.493332575701174
325,2713.97,1.3977037850545984
326,2726.5,1.3960911974261379
327,2732.79,1.486502400444253
328,2745.4,1.2464738026792983
329,2758.07,1.2858461973119726
330,2764.43,1.3503333914606552
331,2777.19,1.428709774689773
332,2783.59,1.3372509637702081
333,2796.44,1.0489243355957698
334,2802.8900000000003,1.1428655183408958
335,2815.82,1.4239378800299625
336,2822.31,1.5301900577068415
337,2835.34,1.4664424067252901
338,2841.88,1.42404857806686
339,2854.9999999999995,1.3584819156817523
340,2868.17,1.5472822469613354
341,2874.79,1.5625294081664107
342,2884.0315,1.5488952823469762
343,2888.0499999999997,1.5429672267909758
344,2894.7099999999996,1.5368092095211257
345,2908.0699999999997,1.7145201748777028
346,2928.23,1.6403451226014003
347,2948.5299999999997,1.6170980699620678
348,2968.9700000000003,1.6693350169597052
349,2989.55,1.6801599635943132
350,3010.27,1.7185589098658909
351,3031.14,1.7257668557485082
352,3052.15,1.7290338012680957
353,3073.2999999999997,1.748327746424653
354,3087.49,1.7708417096289817
355,3108.8900000000003,1.7783196541372714
356,3130.44,1.7572975982566008
357,3152.14,1.7729135419869695
358,3166.6899999999996,1.7833895042577927
359,3188.64,1.6830594473398937
360,3210.7400000000002,1.7698873900330343
361,3232.9999999999995,1.6703363323112834
362,3247.92,1.8087302936226706
363,3270.44,1.8933612352267213
364,3293.1,1.8797731764677421
365,3308.3,1.8822801370530695
366,3311.31121,1.8776793629712296
367,3323.58,1.8589335210867546
368,3331.24,1.8947741413842292
369,3338.92,1.7776827606903136
370,3346.6099999999997,1.9148753795007025
371,3354.33,1.842611996824006
372,3362.06,1.7528056136516141
373,3369.81,1.849382229487832
374,3377.58,1.8043558443326593
375,3385.36,1.8518974586817916
376,3393.1699999999996,1.944940071543838
377,3400.99,2.0710916839101894
378,3408.83,1.8771612952851502
379,3416.69,1.8827839056687208
380,3424.57,1.9956785150609009
381,3432.46,2.062465123957386
382,3440.37,1.9801177318624803
383,3448.3,1.8280653387761845
384,3456.25,1.8633459446984983
385,3464.2200000000003,1.7766265496294216
386,3472.21,1.9583561535689544
387,3480.21,1.820505757012792
388,3488.23,1.9076403594652394
389,3496.2700000000004,1.8827639609262963
390,3504.33,1.9683275613959628
391,3512.4100000000003,1.9028351608742389
392,3520.51,2.0123467593611246
393,3528.6299999999997,1.8072233568566198
394,3536.7599999999998,1.98752195385642
395,3544.91,2.0682825498648296
396,3553.08,2.0888991448818484
397,3560.4799999999996,2.1806537780673985
398,3563.1400000000003,2.3629696462124747
399,3565.8,2.242782514357551
400,3568.46,2.0519403825026266
401,3571.12,2.285274250647703
402,3573.7799999999997,2.3509591187927787
403,3576.44,2.176976986937855
404,3579.1,1.804451855082931
405,3581.7599999999998,1.5970417232280067
406,3584.4199999999996,1.8426555913730829
407,3587.09,1.6006634590224638
408,3589.75,1.9178563271675397
409,3592.41,1.9326941953126158
410,3595.07,2.038531063457692
411,3597.73,2.102194931602768
412,3600.39,1.994092799747844
413,3603.0499999999997,2.07105766789292
414,3605.7099999999996,1.750965536037996
415,3608.3700000000003,1.764853404183072
416,3611.03,1.873540272328148
417,3613.69,1.789339140473224
418,3616.35,2.1507540086183004
419,3619.0099999999998,1.8621148767633764
420,3621.67,1.639477744908452
421,3624.33,1.7519416130535284
422,3626.99,2.044674481198604
423,3629.6499999999996,1.9452453493436803
424,3632.3100000000004,2.0293012174887566
425,3634.9700000000003,1.9051430856338325
426,3637.63,1.8770999537789084
427,3640.29,2.1633768219239844
428,3642.95,1.9729726900690605
429,3645.61,1.9063125582141365
430,3648.27,1.9640564263592126
431,3650.93,2.0465042945042886
432,3653.5899999999997,2.1012981626493645
433,3656.25,2.2839310307944407
434,3658.9100000000003,2.0254058989395167
435,3661.57,2.082027767084593
436,3664.2400000000002,2.1483836347339738
437,3666.9,1.8690035028790497
438,3669.56,2.0461533710241255
439,3672.22,2.1865872391692016
440,3674.8799999999997,2.118782107314278
441,3677.5400000000004,2.187512975459354
442,3680.2000000000003,2.10686884360443
443,3682.86,2.1122777117495057
444,3685.52,2.304753579894582
445,3688.18,2.445893448039658
446,3690.84,2.209734316184734
447,3693.5,2.1555741843298097
448,3696.16,1.987902052474886
449,3698.8199999999997,2.009073920619962
450,3701.4799999999996,1.738001788765038
451,3704.1400000000003,1.7536196569101141
452,3706.8,2.03682552505519
453,3709.46,1.8476883932002661
454,3712.12,2.263483261345342
455,3714.7799999999997,2.3159881294904183
456,3717.44,3.372944997635494
457,3720.1,4.2992628657805705
458,3722.7599999999998,5.686546733925646
459,3725.4199999999996,6.034707602070722
460,3728.08,5.213399470215799
461,3730.7400000000002,4.051971338360874
462,3733.4,3.1512352065059503
463,3736.06,2.6598150746510267
464,3738.72,2.3849899427961025
465,3741.39,2.1632418104454834
466,3744.0499999999997,2.1418256785905596
467,3746.7099999999996,2.1647285467356356
468,3749.3700000000003,2.3547424148807115
469,3752.03,2.4485682830257876
470,3754.69,2.2413781511708635
471,3757.35,2.2609180193159397
472,3760.0099999999998,2.5226348874610154
473,3762.67,2.4390677556060916
474,3765.33,2.4243516237511678
475,3767.99,2.538472491896244
476,3770.6499999999996,2.4895023600413198
477,3773.3100000000004,2.6200922281863956
478,3775.9700000000003,2.696595096331472
479,3778.63,2.606449964476548
480,3781.29,2.801360832621624
481,3783.95,2.9412107007667
482,3786.61,2.7443505689117758
483,3789.27,2.3575974370568518
484,3791.93,2.083650305201928
485,3794.5899999999997,2.2644791733470044
486,3797.25,2.31001604149208
487,3799.9100000000003,2.167194909637156
488,3801.8939600000003,2.4164943022857086
489,3802.57,2.5014437847646436
490,3805.23,2.890292680383263
491,3807.89,2.7214515760018827
492,3810.5499999999997,2.8732384716205024
493,3813.21,2.854722367239122
494,3815.87,2.8274352628577417
495,3818.5400000000004,2.8581191580839502
496,3821.2000000000003,2.70877005370257
497,3823.86,2.3164389493211894
498,3826.52,2.1424078449398087
499,3829.18,2.0273867405584283
500,3831.84,1.770104636177048
501,3834.5,1.8353505317956675
502,3837.16,2.203319427414287
503,3839.8199999999997,2.267908323032907
504,3842.4799999999996,2.4512462186515265
505,3845.1400000000003,3.033300114270146
506,3847.8,2.9200080098887655
507,3850.46,3.008693905507385
508,3853.12,3.073014801126005
509,3855.7799999999997,3.272068696744624
510,3858.44,3.132950592363244
511,3861.1,3.1573144879818638
512,3863.7599999999998,3.189719383600483
513,3866.42,3.371719279219103
514,3869.08,3.1897201748377224
515,3871.7400000000002,2.958263070456342
516,3874.4,2.7231519660749615
517,3877.06,2.6281328616935813
518,3879.72,2.542372757312201
519,3882.38,2.42830065293082
520,3885.04,2.2373115485494397
521,3887.7,2.2015944441680593
522,3890.36,2.521907339786679
523,3893.03,2.740926235012888
524,3895.69,2.8988051306315072
525,3898.35,3.0386530262501266
526,3901.0099999999998,3.1478039218687464
527,3903.67,3.145124817487366
528,3906.33,2.9679997131059856
529,3908.99,3.1548706087246052
530,3911.6499999999996,3.334189504343225
531,3914.31,3.1412273999618443
532,3916.9700000000003,2.9660522955804636
533,3919.63,2.8732261911990835
534,3922.29,2.998457086817703
535,3924.95,2.8603139824363226
536,3927.61,2.528477878054942
537,3930.27,2.449295773673562
538,3932.93,2.3830266692921818
539,3935.59,2.276702564910801
540,3938.25,2.467082460529421
541,3940.9100000000003,2.9511943561480405
542,3943.57,3.13441125176666
543,3946.23,3.1809461473852796
544,3948.89,3.212620043003899
545,3951.5499999999997,3.1431829386225187
546,3954.21,3.076182834241138
547,3956.87,2.7465387298597577
548,3959.53,2.6583416254783776
549,3962.19,2.625451521096997
550,3964.85,2.3793514167156165
551,3967.51,2.2224963123342363
552,3970.18,2.191300207560445
553,3972.84,2.382191103179064
554,3975.5,2.844226998797684
555,3978.16,2.8992898944163032
556,3980.8199999999997,2.898802790034923
557,3983.48,3.1324526856535426
558,3986.1400000000003,3.336866581272162
559,3988.8,3.387787476890782
560,3991.46,3.335162372509401
561,3994.12,3.4282322681280206
562,3996.7799999999997,3.5366521637466404
563,3999.44,3.4072800593652603
564,4002.1,3.44626295498388
565,4004.7599999999998,3.2688948506024995
566,4007.42,3.3634277462211193
567,4010.08,3.6840566418397387
568,4012.7400000000002,3.5946415374583585
569,4015.4,3.465757433076978
570,4018.06,3.4116693286955972
571,4020.72,3.579781224314217
572,4023.3799999999997,3.5651631199328366
573,4026.04,3.317869015551456
574,4028.7000000000003,3.4474859111700757
575,4031.36,3.3546598067886952
576,4034.02,3.478185702407315
577,4036.6800000000003,3.4297025980259344
578,4039.34,3.578810493644554
579,4042.0,3.4962173892631734
580,4044.67,3.659438284489382
581,4047.33,3.470618180108002
582,4049.99,3.531528075726621
583,4052.6499999999996,3.413607971345241
584,4055.31,3.4248158669638604
585,4057.9700000000003,3.44308876258248
586,4060.63,3.3950926582010994
