,lambda (Angstroms),Total Flux (erg/s/cm^2/Angstrom)
0,100.05999999999999,33.14867324184146
1,101.92,33.05645802179397
2,104.05,32.95085672141707
3,104.712855,32.91799364631796
4,105.99000000000001,32.58539139768458
5,107.96,32.07235142978181
6,109.97,31.548894406694554
7,114.09,30.475937722556683
8,118.1,29.4316279401849
9,120.22644299999999,28.877846088233287
10,121.13000000000001,28.68056329111724
11,125.10000000000001,27.813752780454983
12,127.13000000000001,27.370522217077756
13,128.01,27.178382859567893
14,131.0,26.525545724381274
15,131.9,26.329039563361256
16,134.05,25.859608178561494
17,136.85,25.24825567761989
18,138.038426,24.988774532135768
19,140.04000000000002,24.67639690382377
20,142.97,24.21912355498291
21,146.98,23.593298942636356
22,151.1,22.950307067221033
23,154.97,22.346331691102545
24,158.489319,21.797085693865327
25,158.95,21.742730519346875
26,161.9,21.394663713626972
27,166.06,20.903830525862535
28,169.93,20.447214078024906
29,173.08,20.0755495297884
30,177.11999999999998,19.598875002047983
31,179.99,19.260247309821285
32,181.970086,19.026619452215755
33,182.07999999999998,19.01672563754864
34,185.89000000000001,18.673771755591737
35,191.1,18.204798080581543
36,194.2,17.925754252297793
37,197.81,17.60080322515497
38,201.95999999999998,17.22724457018222
39,204.76999999999998,16.974304867952277
40,208.929613,16.59988090812327
41,210.02,16.526090155562407
42,215.9,16.128167659502473
43,219.92000000000002,15.856118611184868
44,222.98,15.649036497591508
45,227.12,15.36886662013786
46,229.75,15.190885040577562
47,234.01999999999998,14.901918996304106
48,239.88329199999998,14.505128658916647
49,240.03,14.49747785973904
50,246.18,14.17675511110368
51,251.92,13.877414788065277
52,257.19,13.602583247267043
53,260.16999999999996,13.447177525264454
54,263.79,13.25839537224958
55,268.69,13.002860887527167
56,273.69,12.742111435599393
57,275.42287,12.651742469209829
58,278.78,12.517381225378985
59,283.96000000000004,12.310064031941888
60,289.90999999999997,12.071928828080898
61,295.98,11.828991923064105
62,300.79,11.636483082748232
63,307.79,11.356325474206477
64,316.227766,11.018625163561897
65,317.88,10.969235325280255
66,328.28999999999996,10.658051419962442
67,338.27000000000004,10.35972158187893
68,347.74,10.076637461124935
69,356.66,9.809994826298068
70,363.078055,9.618142537416022
71,365.81,9.556984579612628
72,375.2,9.346776884963198
73,384.82000000000005,9.13141893310399
74,394.69,8.910468927359384
75,404.82,8.683697291781554
76,414.24999999999994,8.47259465580086
77,416.86938299999997,8.413956343234487
78,421.95000000000005,8.327100883212617
79,429.79,8.19307284831356
80,440.82000000000005,8.00451204798887
81,451.09000000000003,7.828942137239189
82,459.47,7.685682538289994
83,470.17,7.502761749557609
84,478.630092,7.358134729672034
85,480.02000000000004,7.339860765890186
86,490.07,7.2077237341657545
87,500.33,7.072830382237527
88,506.13,6.996573454985119
89,511.99,6.91955134961734
90,520.3100000000001,6.8101640803194
91,529.98,6.6830272462256435
92,539.83,6.5535170031857755
93,549.5408739999999,6.425857945075617
94,549.87,6.422557521487879
95,560.09,6.3200736812917
96,570.5,6.215682016424457
97,579.77,6.122704722683597
98,590.5500000000001,6.014613576109543
99,600.15,5.9183348637031505
100,609.9,5.820557846366972
101,619.8100000000001,5.721217821165684
102,629.88,5.620241230899293
103,630.957344,5.609437228694566
104,640.12,5.536598547532493
105,650.52,5.453952496483312
106,658.0500000000001,5.394109969852704
107,665.67,5.333555166886671
108,674.93,5.259944303652882
109,684.32,5.1852886173234785
110,695.4399999999999,5.097008554490895
111,705.11,5.020107577140167
112,716.5699999999999,4.929118810895976
113,724.43596,4.866612193523986
114,726.54,4.854203949268727
115,734.95,4.804615724385663
116,745.1800000000001,4.744360358849069
117,755.54,4.683298453144367
118,764.29,4.631726488637016
119,774.9200000000001,4.569129625160087
120,785.7,4.50562685414303
121,794.8,4.452010927375387
122,805.86,4.386832622150096
123,815.1899999999999,4.331855425354259
124,824.63,4.276339264762329
125,831.763771,4.234018941898409
126,834.1800000000001,4.223286234103834
127,845.78,4.172581666408151
128,855.5799999999999,4.129452423234212
129,865.48,4.085987313364619
130,875.51,4.041962190490679
131,885.64,3.9975574129210862
132,895.9,3.952512629347146
133,904.1899999999999,3.915998166377558
134,914.6600000000001,3.871721193642747
135,925.25,3.857005771673154
136,935.96,3.857542540468777
137,944.62,3.9027257320252753
138,954.992586,3.9296632241818577
139,955.5600000000001,3.931190865531383
140,964.4,3.929984791417263
141,975.57,3.6437673212979496
142,984.6,3.807532716179114
143,995.9999999999999,3.779032555896199
144,1005.22,3.8737891197726473
145,1014.52,3.8235934653313213
146,1023.9,3.5575982925722203
147,1035.76,3.618089251962099
148,1045.34,3.852244883408561
149,1055.02,3.8091976669578043
150,1064.78,3.6534450321892726
151,1074.63,3.7070081143132443
152,1084.57,3.5531512133297203
153,1094.6100000000001,3.662997764448976
154,1096.4782,3.6520320331439
155,1104.74,3.6100015955943174
156,1114.96,3.557350551808125
157,1125.28,3.47178469565612
158,1135.69,3.5837957683748805
159,1146.2,3.491295328727828
160,1154.14,3.5112033868821957
161,1164.82,3.50350154621326
162,1175.6,3.26193399317851
163,1183.75,3.430456185364667
164,1194.7,3.1818072313080332
165,1205.76,3.013934223649004
166,1214.1100000000001,2.8760676911035334
167,1225.3500000000001,3.081847241186038
168,1233.84,3.3105732313284295
169,1245.26,3.355987039152469
170,1253.89,3.29641755198272
171,1258.92541,3.231201207376647
172,1265.49,3.1528407446488345
173,1274.2600000000002,3.3466226494356643
174,1286.05,3.371311112085234
175,1294.97,3.1529389041831264
176,1303.94,3.1269332253847075
177,1316.01,3.300141851014928
178,1325.1299999999999,3.2431462595275717
179,1334.32,3.1195896087853785
180,1343.57,3.268231792967611
181,1356.0,3.212451528144383
182,1365.3999999999999,3.0890259996376783
183,1374.86,3.1220477060553984
184,1384.39,3.1170913532182816
185,1393.99,2.980465041126328
186,1403.6499999999999,2.9966016639587996
187,1413.3799999999999,2.992051827536434
188,1426.46,2.994147441061146
189,1436.3500000000001,2.969219797770581
190,1442.98,3.0110455569195755
191,1445.43977,3.0199109773326165
192,1446.3000000000002,3.023665882037944
193,1456.3300000000002,2.9834669899411908
194,1466.4199999999998,2.8948351828368803
195,1476.5900000000001,2.881085889055825
196,1483.4,2.8922630356980092
197,1493.69,2.9000691119018387
198,1504.0400000000002,2.83491307309811
199,1510.98,2.7243714038905864
200,1517.9599999999998,2.7757158913446904
201,1524.96,2.739697007129608
202,1535.53,2.6136943799648344
203,1546.18,2.683141166123317
204,1553.31,2.627976966058526
205,1564.08,2.6254491222018927
206,1574.9199999999998,2.667570977503109
207,1585.84,2.697320946127581
208,1596.83,2.705664513909902
209,1604.2,2.67769865381488
210,1615.3200000000002,2.668817805747492
211,1626.52,2.600972571003361
212,1634.03,2.6532635092240375
213,1645.35,2.6555214444647905
214,1656.76,2.560106107194207
215,1659.58691,2.590561778554771
216,1664.4,2.6449515419941023
217,1672.09,2.525384888695458
218,1675.9399999999998,2.6445489036239658
219,1683.6799999999998,2.684913666103614
220,1695.35,2.6068237087570365
221,1703.17,2.5634559364819527
222,1714.98,2.505705843314594
223,1726.8700000000001,2.493152515392503
224,1734.84,2.5513217904522962
225,1746.8600000000001,2.5185435435537653
226,1754.93,2.5826521501701425
227,1763.03,2.4831043062534954
228,1775.2499999999998,2.5038381224681343
229,1783.44,2.514455826952413
230,1795.8,2.5814692073462693
231,1804.0900000000001,2.563733543387133
232,1816.6,2.471291171115867
233,1824.98,2.4868256555576567
234,1833.41,2.4367710557777387
235,1846.12,2.3420802466196418
236,1854.6399999999999,2.3443097952406498
237,1863.2,2.3707570764842916
238,1876.11,2.435806630439364
239,1884.77,2.3486713432395905
240,1893.4699999999998,2.307232288662451
241,1905.46072,2.345298015022614
242,1906.6,2.3492896923295103
243,1915.3999999999999,2.311956719847901
244,1924.24,2.288536243400466
245,1933.1200000000001,2.298221662987206
246,1946.52,2.3506317344356646
247,1955.51,2.2847163681163845
248,1969.06,2.3740231496929973
249,1978.1499999999999,2.393440523459153
250,1982.71,2.334755671355046
251,1996.4499999999998,2.2984509590939886
252,2005.6699999999998,2.318884994971212
253,2014.93,2.277034926882609
254,2024.23,2.316793754828181
255,2033.5700000000002,2.2649484788079275
256,2042.96,2.304832072830392
257,2057.12,2.2507972689281663
258,2066.61,2.247000603036067
259,2076.15,2.317766807186686
260,2085.73,2.31429190737148
261,2095.36,2.247677877598991
262,2105.0299999999997,2.243868743860678
263,2114.75,2.252479480165082
264,2124.51,2.261345112503661
265,2134.32,2.169281614884958
266,2144.17,2.2036240133004292
267,2154.0699999999997,2.2346522817586187
268,2164.01,2.1906254462509827
269,2174.0,2.176697480786065
270,2184.03,2.1627534113553217
271,2187.7616199999998,2.179774411387032
272,2194.11,2.2105846022593356
273,2204.2400000000002,2.174013695698795
274,2214.42,2.109552256529367
275,2224.64,2.0758138912728294
276,2234.9,2.156392099929182
277,2245.22,2.1017161694548703
278,2255.58,2.049185812893448
279,2266.0,2.066372817201362
280,2276.46,2.0961343954221654
281,2286.96,2.12967054755586
282,2297.52,2.0603450605588893
283,2302.81,2.069280710538627
284,2313.44,2.0164504778892143
285,2324.12,1.7987246126309149
286,2334.85,1.927345514763728
287,2345.63,1.881915084287654
288,2356.45,1.9739588277244708
289,2367.33,1.8735873320306222
290,2372.79,1.9100032711401433
291,2383.7400000000002,1.8224939297938527
292,2394.74,1.8827586558386755
293,2405.7999999999997,1.8415106427528336
294,2416.9,1.8618014035798813
295,2422.47,1.9343366709498508
296,2433.66,1.892598373080902
297,2444.8900000000003,1.9490502491248431
298,2456.17,1.9311720925598976
299,2467.5099999999998,1.9178834968642877
300,2473.2000000000003,1.8745035859729273
301,2484.6099999999997,1.8901550446248754
302,2496.08,1.8334974641461583
303,2507.6,1.9466922510585545
304,2511.88643,1.8446718292914568
305,2513.39,1.8091197274168596
306,2519.18,1.821492448744144
307,2524.99,1.7836391703178092
308,2536.64,1.7995168638347114
309,2542.4900000000002,1.7887415859011382
310,2554.22,1.8640458804035642
311,2566.01,1.8280728756451325
312,2577.86,1.886551571625844
313,2583.8,1.8747939448009854
314,2595.73,1.8538283417672208
315,2607.7099999999996,1.8130719893494085
316,2613.72,1.7931419133868833
317,2625.79,1.850645012077785
318,2637.9,1.8904681112614488
319,2643.98,1.996906786161257
320,2656.19,2.0298513865768255
321,2662.31,1.9024488619693953
322,2674.6,1.9556240633704876
323,2686.9500000000003,1.9558269655107225
324,2693.14,1.892368591765626
325,2705.5699999999997,1.9301630948913853
326,2718.06,1.8577542987562867
327,2724.33,1.8552105259967138
328,2736.9,1.9097683308471392
329,2743.21,1.7375469585803283
330,2755.8700000000003,1.7676572145394678
331,2762.2200000000003,1.8134500427654188
332,2774.98,1.8640243999564636
333,2787.78,1.77728855764027
334,2794.2099999999996,1.5595867868517448
335,2807.1099999999997,1.616309445767456
336,2813.58,1.8433618754716927
337,2826.5699999999997,1.9179295854961178
338,2833.08,1.8759376156931165
339,2846.16,1.8400983768262562
340,2852.7200000000003,1.7811656576392068
341,2865.89,1.9047734698810608
342,2872.49,1.9074725511867736
343,2884.0315,1.898130432284857
344,2885.7500000000005,1.8969691042251375
345,2892.4,1.8925212557126114
346,2912.45,2.0082455771146943
347,2932.6400000000003,1.9506929122323022
348,2952.97,1.9283102610654368
349,2966.6,1.9559495249412664
350,2987.16,1.9591499677356214
351,3007.8700000000003,1.9770832109394687
352,3028.72,1.9745184678588414
353,3049.71,1.9779277384937402
354,3070.85,1.9904318095381306
355,3092.14,2.0000936809920127
356,3113.57,2.0006385661614208
357,3127.95,1.9814698320847102
358,3149.63,1.9911763846032713
359,3171.46,1.9947827375313245
360,3193.44,1.9190798908688698
361,3208.18,1.9696354777749394
362,3230.42,1.8974600851556036
363,3252.81,1.98922649294576
364,3267.83,2.0468251072828814
365,3290.48,2.037667969116157
366,3311.31121,2.032263771444757
367,3313.29,2.031935883300033
368,3320.9300000000003,2.0306979886690906
369,3328.58,2.062913817998055
370,3336.25,2.102935095246834
371,3343.94,2.000623820415427
372,3351.65,2.025619993503835
373,3359.38,2.054494614512057
374,3367.12,2.026391959480186
375,3374.89,1.8949904763280365
376,3382.6699999999996,1.942992717135794
377,3390.46,2.0596446819034586
378,3398.28,2.051530818550845
379,3406.11,2.016638679158138
380,3413.9599999999996,2.042200987685246
381,3421.8399999999997,2.0925894680920747
382,3429.72,2.0532129484989037
383,3437.6299999999997,2.076065600785454
384,3445.55,1.8951369770319118
385,3453.5,2.112235525158091
386,3461.46,1.9680737972441769
387,3469.4399999999996,2.0062035172500776
388,3477.44,1.9429166851757924
389,3485.45,1.996890577061414
390,3493.4900000000002,1.9757896408267577
391,3501.5400000000004,1.9909394285520077
392,3509.61,1.9995676641970728
393,3517.7000000000003,1.9522423477619517
394,3525.81,1.9902364792466454
395,3531.22,1.5074898415564097
396,3533.87,2.426850990931803
397,3536.5099999999998,2.1750171163472887
398,3539.1600000000003,1.7888109657226816
399,3541.8100000000004,1.9057738150980748
400,3544.4500000000003,2.4446849405135604
401,3547.1000000000004,2.3027627898889533
402,3549.75,1.9958766392643463
403,3552.3900000000003,2.1355297646798324
404,3555.04,2.0100866140552256
405,3557.68,1.9728387394707112
406,3560.33,1.5742915888461044
407,3562.98,2.0838064382214974
408,3565.62,1.9860045636369832
409,3568.27,1.9937624130123761
410,3570.91,2.215459538427862
411,3573.56,1.775404387803255
412,3576.21,1.840928237178648
413,3578.85,2.107453362594134
414,3581.5000000000005,2.258780211969527
415,3584.1400000000003,2.1922743373850127
416,3586.7900000000004,1.8486101867604057
417,3589.44,1.885784036135799
418,3592.0800000000004,1.9403541615512845
419,3594.73,1.9544400109266777
420,3597.37,2.2062111363421635
421,3600.02,1.9756989857175564
422,3602.67,1.7154898350929495
423,3605.31,2.1859819605084354
424,3607.96,1.9652438098838285
425,3610.6,1.6305489352993143
426,3613.25,1.9829937846747074
427,3615.9,1.9981446340501003
428,3618.54,2.0101727594655863
429,3621.19,2.218702608840979
430,3623.83,2.050791734256465
431,3626.4800000000005,2.125212583631858
432,3629.1299999999997,2.1070944330072514
433,3631.7700000000004,2.2307715584227368
434,3634.42,2.20973940779813
435,3637.06,1.8169975332136157
436,3639.71,2.043853382589009
437,3642.36,1.8689782319644017
438,3645.0,2.0934943573798876
439,3647.65,1.7953172067552807
440,3650.29,1.9750363321707667
441,3652.94,2.0023421815461595
442,3655.59,2.0151120309215527
443,3658.23,1.8845731563370385
444,3660.88,2.2536830057124315
445,3663.52,1.9533861311279175
446,3666.17,2.26310098050331
447,3668.8199999999997,2.0775418298787036
448,3671.4599999999996,1.9624479552941894
449,3674.1099999999997,2.036868804669582
450,3676.7499999999995,2.041754930085068
451,3679.4,1.9632707794604611
452,3682.05,2.254595628835854
453,3684.69,2.02268475425134
454,3687.34,2.095382603626733
455,3689.98,2.286443729042219
456,3692.63,2.225344578417612
457,3695.28,1.930644427793005
458,3697.92,1.9968055532084907
459,3700.57,2.279860402583884
460,3703.21,2.1134225279993695
461,3705.86,1.9576243773747626
462,3708.5099999999998,1.966729226750156
463,3711.1499999999996,1.9709573521656418
464,3713.7999999999997,1.9136812015410347
465,3716.4399999999996,2.4427553269565205
466,3719.0899999999997,2.4236341763319134
467,3721.7400000000002,2.5875850257073063
468,3724.38,2.8752271511227923
469,3727.03,3.3520030004981853
470,3729.67,3.591781125913671
471,3732.32,3.1697039752890643
472,3734.9700000000003,2.6275538246644574
473,3737.61,2.238008950079943
474,3740.26,2.349613799455336
475,3742.9,2.431939924870822
476,3745.55,2.258942774246215
477,3748.2,2.255579623621608
478,3750.8399999999997,2.291134749037094
479,3753.49,2.225180598412487
480,3756.1299999999997,2.3505497238279727
481,3758.7799999999997,2.316360573203366
482,3761.43,2.350995422578759
483,3764.0699999999997,2.3671295479942445
484,3766.7200000000003,2.2524623973696376
485,3769.36,2.1709505227851236
486,3772.01,2.0821283721605166
487,3774.6600000000003,2.2780322215359092
488,3777.3,2.3690673469513954
489,3779.9500000000003,2.546427196326788
490,3782.59,2.7691593217422743
491,3785.2400000000002,2.620816171117667
492,3787.89,2.5743150204930605
493,3790.5299999999997,2.669079145908546
494,3793.18,2.5682889952839396
495,3795.8199999999997,2.3017311206994253
496,3798.47,2.191669970074818
497,3801.12,2.0663828194502107
498,3801.8939600000003,2.1076920917178765
499,3803.7599999999998,2.2074131257914833
500,3806.41,2.544962906815359
501,3809.0499999999997,2.6371443037598996
502,3811.7000000000003,2.7074780847837747
503,3814.3500000000004,2.5854048658076505
504,3816.9900000000002,2.657662262752191
505,3819.6400000000003,2.6655000437760665
506,3822.28,2.656214440720607
507,3824.9300000000003,2.5425682217444825
508,3827.58,2.4367840027683583
509,3830.22,2.3130623997128983
510,3832.87,2.0690661807367743
511,3835.5099999999998,1.9937745776813145
512,3838.16,1.94040135870519
513,3840.81,2.1072531397290657
514,3843.45,2.415743536673606
515,3846.1,2.5772693176974815
516,3848.74,2.7363327146420215
517,3851.39,2.7126244956658976
518,3854.0400000000004,2.664293276689773
519,3856.6800000000003,2.9004836736343136
520,3859.3300000000004,3.018903454658189
521,3861.9700000000003,3.0144118516027296
522,3864.6200000000003,3.2001206326266054
523,3867.27,3.0893864136504807
524,3869.91,3.2194748105950213
525,3872.56,3.0092475916188963
526,3875.2,2.7642299885634367
527,3877.85,2.6679377695873123
528,3880.5,2.5945455506111883
529,3883.14,2.5160279475557283
530,3885.79,2.410588728579604
531,3888.43,2.2042271255241443
532,3891.08,2.34893190654802
533,3893.7300000000005,2.4870876875718957
534,3896.37,2.393502084516436
535,3899.0200000000004,2.6206578655403114
536,3901.6600000000003,2.6826092624848514
537,3904.31,2.8498360435087275
538,3906.96,2.8619958245326034
539,3909.6,2.8810302214771433
540,3912.25,3.149693002501019
541,3914.89,3.2669373994455593
542,3917.54,2.972659180469435
543,3920.19,2.9351049614933107
544,3922.83,2.793934358437851
545,3925.48,3.0250991394617266
546,3928.12,2.5277455364062664
547,3930.77,2.3665773174301425
548,3933.42,2.254654098454018
549,3936.06,2.3089284953985585
550,3938.7100000000005,2.544824276422434
551,3941.35,2.545124673366974
552,3943.9999999999995,2.67867645439085
553,3946.65,2.819401235414726
554,3949.29,2.837714632359266
555,3951.94,3.0179734133831415
556,3954.58,2.850676810327682
557,3957.23,2.708616591351557
558,3959.88,2.743175372375433
559,3962.52,2.5633487693199735
560,3965.17,2.187561550343849
561,3967.81,2.0959169472883894
562,3970.46,2.0526927283122647
563,3973.11,2.0722485093361405
564,3975.75,2.294119906280681
565,3978.4,2.5880946873045563
566,3981.04,2.627804084249097
567,3983.6899999999996,2.880082865272972
568,3986.3399999999997,2.902110646296848
569,3988.9799999999996,2.8262890432413883
570,3991.63,3.149427824265264
571,3994.27,3.060887221209804
572,3996.92,3.19923100223368
573,3999.57,3.2007707832575556
574,4002.21,3.276946180202096
575,4004.86,3.382645961225972
576,4007.51,3.243999742249847
577,4010.15,2.9642111391943873
578,4012.8,3.279799920218263
579,4015.44,3.574729317162803
580,4018.09,3.400526098186679
581,4020.74,3.2621308792105546
582,4023.3799999999997,3.511855276155095
583,4026.0299999999997,3.3905630571789707
584,4028.6699999999996,3.4313394541235107
585,4031.3199999999997,3.3432532351473867
586,4033.9700000000003,3.343854016171262
587,4036.61,3.1821664131158025
588,4039.26,3.318191194139678
589,4041.9,3.437221591084218
590,4044.55,3.1751483721080938
591,4047.2000000000003,3.3199751531319697
592,4049.84,3.15421555007651
593,4052.4900000000002,3.1959783311003855
594,4055.13,3.177296728044926
595,4057.78,3.2867875090688017
596,4060.43,3.4657922900926774
597,4063.0699999999997,3.4195126870372174
598,4065.72,3.237541468061093
