,lambda (Angstroms),Total Flux (erg/s/cm^2/Angstrom)
0,100.0,0.016725337944673953
1,102.10000000000001,0.020567079866734266
2,104.0,0.02404294160861512
3,104.712855,0.02534703920175142
4,105.93,0.023489169698884566
5,107.89999999999999,0.020482130349883772
6,109.89999999999999,0.017429298556354392
7,114.03,0.011125200920399628
8,118.04,0.005004273293957163
9,120.22644299999999,0.001666852787812605
10,121.06,0.0016079792765113044
11,125.03,0.0013275806421920702
12,127.06,0.001184203188278502
13,127.94,0.0011220495865925714
14,130.92,0.0009115747373602604
15,132.13,0.0008261140559523546
16,133.97,0.000696156952008135
17,137.09,0.00047579679316319746
18,138.038426,0.0004088112771448763
19,139.96,0.00040402100969527953
20,142.89,0.0003967351238979001
21,146.9,0.0003867876315149675
22,151.01,0.00037656472453355795
23,154.89,0.00036693699702064573
24,158.489319,0.0003580148184922631
25,158.86,0.0003565999011873473
26,162.19,0.00034389523772609
27,165.96,0.0003295466236948767
28,169.83,0.00031484042197503693
29,172.98999999999998,0.00030279161785444454
30,177.01999999999998,0.0002875970654728027
31,179.89000000000001,0.0002767759194392264
32,181.970086,0.00026894000499345575
33,181.98,0.00026895288276999467
34,185.79,0.0002739774402016491
35,190.99,0.00028090708216086253
36,194.09,0.0002851228759057782
37,198.16,0.00029073985233539333
38,201.84,0.00029602548476806743
39,205.11999999999998,0.0003007133065884943
40,208.929613,0.0003063043728250636
41,209.9,0.00031379985004155675
42,215.78,0.0003599653346819442
43,219.79,0.0003916248087598274
44,222.85,0.00041581636122574333
45,226.99,0.00044906959650315906
46,230.15,0.0004788058855071768
47,233.89000000000001,0.0005215487386321852
48,239.88329199999998,0.0005805942641357588
49,239.89,0.0005805687204298671
50,246.04000000000002,0.0005517543617492029
51,251.78,0.0005352988629805832
52,257.05,0.0005100971297208922
53,260.02,0.0005092906076751083
54,264.25,0.000536274118094749
55,269.15999999999997,0.0005405286784163654
56,274.17,0.000547154546076507
57,275.42287,0.0005395593413263574
58,279.26,0.000565248688219867
59,283.8,0.0006863283310347627
60,289.74,0.0008012849324269386
61,295.81,0.0008742784771155762
62,301.31,0.0009095198858120354
63,308.33,0.0011002585238209703
64,316.227766,0.0013095307709994125
65,317.7,0.0013317400255688308
66,328.11,0.0015131129405162066
67,338.08,0.0016458843484917433
68,348.34999999999997,0.0017912807612208068
69,357.28000000000003,0.0025262716527174505
70,363.078055,0.003574365718016867
71,365.61,0.004053807681401225
72,374.97999999999996,0.004645398315941977
73,384.6,0.004499931376164179
74,395.38,0.0072201926515483095
75,404.59000000000003,0.009949162773652934
76,414.01,0.011160198693329975
77,416.86938299999997,0.011253609875356013
78,421.71,0.011404453064009633
79,429.55,0.012063816588770631
80,440.57,0.015706074936074992
81,450.83,0.017846056155979055
82,460.27,0.017631624685793313
83,469.90999999999997,0.019812275091239236
84,478.630092,0.023640397500703313
85,479.74999999999994,0.024126189480297624
86,489.79,0.02288821715565957
87,500.05,0.029997513106776463
88,505.84,0.027894740909599737
89,511.7,0.04443162134561776
90,520.01,0.04522266394345221
91,529.6800000000001,0.04540017770049902
92,539.53,0.04104900822861806
93,549.5408739999999,0.04282895489964937
94,549.56,0.042832393745276226
95,559.78,0.05865973973890853
96,570.18,0.06898465217861263
97,579.45,0.07187420415131042
98,590.22,0.07750172984127321
99,599.81,0.0703905532736542
100,609.5600000000001,0.0713541524358768
101,619.46,0.0943505169698259
102,629.53,0.09368891759173169
103,630.957344,0.09561596821751947
104,639.7600000000001,0.1075203218990753
105,650.15,0.1085268254563013
106,657.68,0.10414301196120136
107,665.2900000000001,0.11979990243959307
108,674.55,0.13072423737124972
109,685.51,0.1184532817396036
110,695.05,0.14102958057848097
111,704.72,0.12094874837428225
112,716.17,0.15712042958027242
113,724.43596,0.1629472215531642
114,726.13,0.16414042528272163
115,734.5400000000001,0.16988964423363315
116,744.76,0.17068200162701197
117,755.12,0.1750553625463275
118,765.62,0.16304302699157971
119,774.49,0.18626008609914038
120,785.26,0.17790725020155626
121,794.35,0.19502957199273172
122,805.4,0.20513984314702097
123,814.73,0.21135844241123078
124,824.1600000000001,0.22029181562253825
125,831.763771,0.19579267874538625
126,835.63,0.18332670571556176
127,845.31,0.22694190076990528
128,855.09,0.22902283461613254
129,864.9999999999999,0.24198605889180863
130,875.01,0.24816972195936843
131,885.14,0.25391609157718864
132,895.39,0.25980366774526936
133,905.76,0.26038785046361057
134,914.14,0.2579913412234658
135,924.73,0.597211969283951
136,935.44,0.9593814038946968
137,944.09,1.3394536593926383
138,954.992586,1.6059449604736131
139,955.02,1.6066150765539358
140,966.08,1.7860202584263327
141,975.0200000000001,0.7047743804823208
142,984.0400000000001,1.5167396821540224
143,995.4399999999999,1.499345777393202
144,1004.65,1.9093034306522232
145,1013.9399999999999,1.9493510635269582
146,1025.68,1.2969540721329202
147,1035.18,1.721404651498903
148,1044.75,2.453929213028635
149,1054.4199999999998,2.4036047490780095
150,1064.18,2.0600432621950615
151,1074.02,2.306067754927827
152,1083.96,2.0178082221802343
153,1093.99,2.4202186665003196
154,1096.4782,2.40269367923718
155,1104.11,2.3489369462208955
156,1114.3300000000002,2.316633795882506
157,1124.6399999999999,2.0886935737700996
158,1135.05,2.493723271908785
159,1145.55,2.3705808982734538
160,1156.1499999999999,2.4313714448892143
161,1164.16,2.4426240570016904
162,1174.94,1.7412874600694166
163,1185.81,2.3869247913631257
164,1194.03,1.999251236002895
165,1205.07,1.7055514317234606
166,1216.22,1.3362355397202277
167,1224.66,1.9854098089123993
168,1235.99,2.487964773361132
169,1244.55,2.617221946854614
170,1256.07,2.5635437597804223
171,1258.92541,2.518358799220292
172,1264.78,2.4257188147230293
173,1273.54,2.7914933116329537
174,1285.3300000000002,2.876254980419256
175,1294.24,2.476532485837912
176,1306.2099999999998,2.4994281648346917
177,1315.27,2.8829326787620797
178,1324.38,2.785061195525711
179,1333.56,2.6051597162600837
180,1345.8999999999999,2.876283416245068
181,1355.23,2.8173079454881726
182,1364.63,2.6232054787020185
183,1374.0900000000001,2.665861015319357
184,1383.6100000000001,2.6781575553401877
185,1396.4099999999999,2.157008281418616
186,1406.0900000000001,2.1520168305154277
187,1415.84,2.55762438358298
188,1425.6499999999999,2.5341589400540254
189,1435.53,2.605192500495812
190,1442.16,2.6781728765817485
191,1445.43977,2.6903082116262986
192,1445.49,2.6904940650176794
193,1455.5100000000002,2.6232245420559233
194,1465.59,2.493660021950684
195,1475.7500000000002,2.516727505654133
196,1485.98,2.5517569926901853
197,1496.2800000000002,2.5576184830588393
198,1506.6599999999999,2.4481639772361823
199,1513.61,2.2638293081160024
200,1517.1000000000001,2.365019474270041
201,1524.1,2.332636807530292
202,1534.6699999999998,2.05516031075327
203,1545.3,1.985426816832765
204,1556.02,1.958143327197034
205,1566.8000000000002,2.12253584041782
206,1574.03,2.25347518462805
207,1584.94,2.321942704037955
208,1595.93,2.348797227256548
209,1603.3,2.3059035781319834
210,1614.41,2.2952951070636094
211,1625.6000000000001,2.2482276398039236
212,1636.87,2.3596571763529273
213,1644.42,2.370514535797912
214,1655.8200000000002,2.3059210785360342
215,1659.58691,2.359420243191018
216,1663.47,2.414570607933464
217,1671.14,2.237943274614097
218,1678.8600000000001,2.4765629586785676
219,1686.6100000000001,2.493672653173341
220,1694.39,2.392487358098416
221,1706.1399999999999,2.3326354433001684
222,1714.01,2.2225681795161507
223,1725.8899999999999,2.2022043099158797
224,1733.8600000000001,2.3219610808995363
225,1745.8799999999999,2.28478825997401
226,1753.94,2.359684062248574
227,1766.09,2.2638852865210244
228,1774.25,2.248247123563263
229,1786.54,2.2953553965104576
230,1794.79,2.365092264843603
231,1803.07,2.3760481436070506
232,1815.57,2.2174644895663618
233,1823.95,2.263895403097484
234,1836.6,2.2174478012083068
235,1845.07,2.079027746030336
236,1853.59,2.0838467082362024
237,1866.44,2.122609175882374
238,1875.05,2.238002169379148
239,1883.71,2.0742701802597585
240,1896.7700000000002,1.9947017209180469
241,1905.46072,2.1217660485547167
242,1905.52,2.12263271591241
243,1914.32,2.0363747721115173
244,1923.15,1.976390814865848
245,1936.4799999999998,2.079020840903813
246,1945.4199999999998,2.1274478343606327
247,1954.4,1.9763768098910846
248,1967.95,2.1274197373340273
249,1977.03,2.19208766804856
250,1986.1599999999999,2.088662576355133
251,1995.33,2.041107466735339
252,2004.54,2.1079103391891767
253,2013.79,2.0694651937166464
254,2023.08,2.142151030317749
255,2037.1100000000001,2.022374742644279
256,2046.51,2.0599465299478705
257,2055.96,1.8786852948435022
258,2065.4500000000003,1.949222041812766
259,2074.98,2.1176317708556622
260,2079.7599999999998,1.9946346286547223
261,2084.56,2.064672477490599
262,2094.18,1.9717101661991676
263,2103.85,2.008399832499777
264,2113.56,2.0269394808740184
265,2123.31,2.0410591113218923
266,2133.11,1.9763027193618066
267,2142.96,1.9581453049937612
268,2152.85,2.0223458726993484
269,2162.79,1.9762884179969753
270,2172.77,1.971677945368235
271,2182.8,1.926824450331535
272,2187.7616199999998,1.9556814130954048
273,2192.87,1.9853960520314684
274,2203.0,1.9581226716219995
275,2213.1600000000003,1.9004513019319498
276,2223.38,1.8614469536807383
277,2233.64,1.9091766197220859
278,2243.9500000000003,1.870027303629132
279,2254.31,1.8232690054018765
280,2264.7200000000003,1.8534627250403197
281,2275.17,1.8672494589713218
282,2285.67,1.8767722107680225
283,2296.22,1.7890509804304215
284,2306.82,1.8023577679585194
285,2317.4700000000003,1.7581435733523156
286,2322.81,1.5246724814089234
287,2333.53,1.6958603118146978
288,2344.3,1.6850071600861707
289,2355.12,1.721148026223342
290,2365.9900000000002,1.667431910226212
291,2376.92,1.6682898156679207
292,2382.4,1.6083757737484843
293,2393.39,1.661881700629031
294,2404.44,1.6211446489484158
295,2415.54,1.6332786151334995
296,2426.69,1.6606145991842816
297,2432.28,1.615848596569382
298,2443.51,1.6580956092052819
299,2454.79,1.6400306397068805
300,2466.12,1.6295736880741774
301,2477.5,1.5970037543071727
302,2483.21,1.61595179456995
303,2494.67,1.4442948893880632
304,2506.1899999999996,1.6101670056450146
305,2511.88643,1.5252715376870725
306,2511.9700000000003,1.5240260295021533
307,2517.76,1.581631228803549
308,2523.5600000000004,1.5460614267220454
309,2535.21,1.546924815644543
310,2546.91,1.5195061976525448
311,2552.78,1.5553273858907475
312,2564.5699999999997,1.541842755452657
313,2576.3999999999996,1.5786261194829698
314,2582.34,1.5645972980408784
315,2594.2599999999998,1.554687649625099
316,2606.2400000000002,1.5271049929119247
317,2612.2400000000002,1.5135501631724384
318,2624.3,1.528375495396071
319,2636.4100000000003,1.532806820705208
320,2642.4900000000002,1.5688729799025285
321,2654.69,1.566169292765573
322,2666.94,1.5034035987141219
323,2673.09,1.5247957482311485
324,2685.43,1.5221010417336052
325,2697.82,1.484930328321566
326,2704.04,1.4887384681582985
327,2716.5299999999997,1.4624127409172678
328,2722.79,1.4628118752224037
329,2735.36,1.48063813691818
330,2747.98,1.4115353916994606
331,2754.32,1.4119235149414036
332,2767.0299999999997,1.4225457572765918
333,2773.41,1.449411874986938
334,2786.21,1.4303931048760339
335,2792.6299999999997,1.3139722170547836
336,2805.5200000000004,1.3577974344977872
337,2811.99,1.4287265397620412
338,2824.97,1.4295957447589527
339,2838.01,1.3850529414584691
340,2844.55,1.375936037042429
341,2857.6800000000003,1.3673022212958532
342,2864.27,1.3963053099653175
343,2877.49,1.3811614817726494
344,2884.0315,1.381557211085826
345,2884.12,1.3815625768987077
346,2897.44,1.3697475392013192
347,2910.81,1.3896415013624241
348,2930.99,1.3686354442503146
349,2951.3,1.344951386770288
350,2971.7599999999998,1.343040328865741
351,2992.36,1.3289322705649753
352,3013.1000000000004,1.3210112118679906
353,3027.0099999999998,1.3127711725008229
354,3047.99,1.3019141131246061
355,3069.1200000000003,1.2912130533238693
356,3090.39,1.2776649931269133
357,3111.81,1.2701379325054376
358,3133.39,1.25102987143114
359,3147.85,1.2460388305073988
360,3169.67,1.2301847687538692
361,3191.64,1.2006257065758195
362,3206.37,1.2041176648879417
363,3228.6,1.1860466019740572
364,3250.98,1.1900055386356523
365,3273.51,1.1857264748727276
366,3288.62,1.1756684321093986
367,3311.31121,1.1661161646630351
368,3311.42,1.1660703620045514
369,3319.05,1.1935749492119
370,3326.7000000000003,1.2050655353372237
371,3334.37,1.1971381203805218
372,3342.06,1.1489507043417948
373,3349.7599999999998,1.192464287762055
374,3357.48,1.1365898701002901
375,3365.22,1.1369894513564998
376,3372.98,1.1243860315306842
377,3380.7599999999998,1.132545610622843
378,3388.55,1.1673391891739895
379,3396.36,1.1623427666431108
380,3404.19,1.1258903430302065
381,3412.04,1.123666918335277
382,3419.9,1.137142493099335
383,3427.79,1.1479950662403549
384,3435.69,1.145777638840362
385,3443.6099999999997,1.112414210358344
386,3451.5499999999997,1.1413357807943008
387,3459.5,1.097913350689245
388,3467.48,1.095768918961151
389,3475.47,1.1012374866920442
390,3483.48,1.0815040533409126
391,3491.52,1.1147046183667428
392,3499.56,1.089746183392573
393,3507.63,1.080156746795365
394,3515.72,1.0681833091161324
395,3523.8199999999997,1.0909338708958864
396,3531.94,1.0813434315936155
397,3540.09,1.0967169906683065
398,3548.25,1.112407549201985
399,3556.43,1.0975071066536382
400,3564.62,1.1004436635642785
401,3572.8399999999997,1.080787218851881
402,3576.45,0.8461252235463147
403,3579.1499999999996,0.9521634774728994
404,3581.85,1.1123307313994841
405,3584.55,0.7683711853260691
406,3587.25,0.4233580392526538
407,3589.9500000000003,0.8196543931792385
408,3592.65,1.6258781471058235
409,3595.35,1.5042270010324081
410,3598.0499999999997,1.421171854958993
411,3600.75,0.9324283088855777
412,3603.4500000000003,0.8634001628121624
413,3606.15,1.0466294167387473
414,3608.85,1.077933270665332
415,3611.55,1.1102671245919167
416,3614.25,0.6671967785185015
417,3616.95,1.3832878324450864
418,3619.6499999999996,1.103451686371671
419,3622.35,0.8687877402982558
420,3625.05,1.2114703942248406
421,3627.75,1.0174632481514252
422,3630.4500000000003,1.16280910207801
423,3633.15,1.021583956004595
424,3635.85,1.0790408099311797
425,3638.5499999999997,0.4764609638577644
426,3641.2499999999995,0.4732273177843492
427,3643.9500000000003,1.191418371710934
428,3646.65,1.1947462256375188
429,3649.35,1.2876290795641034
430,3652.05,1.0822089334906884
431,3654.75,0.8767897874172731
432,3657.45,1.0841106413438577
433,3660.1499999999996,0.7461595952704425
434,3662.8500000000004,1.1867403491970272
435,3665.55,1.1380802031236121
436,3668.25,1.2482390570501969
437,3670.9500000000003,1.3409629109767816
438,3673.65,1.2154287649033666
439,3676.35,0.7617788188299511
440,3679.0499999999997,1.288656472756536
441,3681.7499999999995,0.9116583266831207
442,3684.4500000000003,0.8920038806097055
443,3687.15,1.0549440345362904
444,3689.85,1.198308888462875
445,3692.55,0.8467508423894597
446,3695.25,1.0803035963160446
447,3697.95,0.8572115502426293
448,3700.6499999999996,0.7991996041692141
449,3703.3500000000004,0.9031767580957988
450,3706.05,0.9066637120223836
451,3708.75,0.9282198659489684
452,3711.45,0.9164906198755531
453,3714.15,1.3846265738021377
454,3716.85,1.4128404277287228
455,3719.5499999999997,2.1023252816553075
456,3722.2499999999995,4.739803135581893
457,3724.9500000000003,7.120190989508477
458,3727.65,8.979421843435063
459,3730.35,7.598548697361647
460,3733.05,4.296946551288231
461,3735.75,2.3725694052148163
462,3738.45,1.354668259141401
463,3741.1499999999996,1.0829951130679856
464,3743.8500000000004,0.8305005669945704
465,3746.55,1.0264888209211553
466,3749.25,1.0675406748477398
467,3751.95,1.0169775287743248
468,3754.65,0.9380436827009094
469,3757.35,0.9793332366274943
470,3760.0499999999997,1.188556090554079
471,3762.7500000000005,1.3718639444806637
472,3765.4500000000003,1.2502127984072486
473,3768.15,1.1086706523338332
474,3770.85,0.9959749062604181
475,3773.55,1.273829360187003
476,3776.25,1.2053562141135876
477,3778.95,1.1058160680401725
478,3781.6499999999996,1.248229921966757
479,3784.3500000000004,1.309411775893342
480,3787.05,1.4156076298199267
481,3789.75,1.3435684837465114
482,3792.45,1.1635893376730964
483,3795.15,1.257898191599681
484,3797.85,1.1217440455262657
485,3800.5499999999997,1.0523998994528505
486,3801.8939600000003,1.0681789126688435
487,3803.2500000000005,1.0840997686655898
488,3805.9500000000003,1.1240416530283102
489,3808.65,1.0969385373910303
490,3811.35,1.2471974217537507
491,3814.0499999999997,1.226750306116471
492,3816.75,1.3467361904791912
493,3819.44,1.3516570752701977
494,3822.14,1.2755759596329181
495,3824.8399999999997,1.2395948439956386
496,3827.54,1.4298777283583588
497,3830.24,1.311634612721079
498,3832.94,1.1837224970837994
499,3835.6400000000003,0.9561123814465197
500,3838.34,0.92829486580924
501,3841.04,1.1936281501719603
502,3843.74,1.1295140345346806
503,3846.44,1.071104918897401
504,3849.14,1.0805358032601213
505,3851.84,1.0828346876228414
506,3854.54,1.2777125719855618
507,3857.2400000000002,1.1827694563482822
508,3859.94,1.2449813407110024
509,3862.64,1.3740822250737228
510,3865.3399999999997,1.511504109436443
511,3868.04,1.806080993799163
512,3870.74,1.5886938781618836
513,3873.44,1.3373087625246038
514,3876.1400000000003,1.372337646887324
515,3878.84,1.0604835312500445
516,3881.54,1.0872704156127648
517,3884.24,1.305132299975485
518,3886.94,1.4906591843382053
519,3889.64,1.4321710687009257
520,3892.34,1.3480859530636462
521,3895.04,1.3460248374263664
522,3897.7400000000002,1.3212987217890866
523,3900.44,1.161368606151807
524,3903.14,1.2139124905145273
525,3905.8399999999997,1.3287473748772476
526,3908.54,1.3295392592399677
527,3911.2400000000002,1.531155143602688
528,3913.94,1.4763130279654084
529,3916.6400000000003,1.6444039123281289
530,3919.34,1.4144957966908491
531,3922.04,1.2929246810535693
532,3924.74,1.1873615654162897
533,3927.4399999999996,1.06127344977901
534,3930.14,1.1090613341417301
535,3932.84,1.1504302185044504
536,3935.54,1.059450102867171
537,3938.2400000000002,0.9919273872298912
538,3940.94,1.1135778715926115
539,3943.64,1.0499387559553317
540,3946.3399999999997,1.1234046403180522
541,3949.04,1.0681665246807723
542,3951.7400000000002,1.3533914090434926
543,3954.44,1.303700293406213
544,3957.1400000000003,1.2644711777689335
545,3959.84,1.1573230621316537
546,3962.54,1.087343946494374
547,3965.24,1.3017188308570942
548,3967.9399999999996,1.4243997152198147
549,3970.64,1.3062355995825348
550,3973.34,1.386516483945255
551,3976.04,1.2107373683079754
552,3978.7400000000002,1.1440082526706958
553,3981.44,1.071176137033416
554,3984.14,1.2412490213961362
555,3986.8399999999997,1.1376669057588567
556,3989.54,1.1728547901215771
557,3992.2400000000002,1.0597626744842972
558,3994.94,1.1512185588470176
559,3997.64,1.1289494432097378
560,4000.34,1.2173133275724581
561,4003.04,1.2897492119351786
562,4005.74,1.1654830962978988
563,4008.4399999999996,1.179510980660619
564,4011.1400000000003,1.2643088650233394
565,4013.84,1.2182637493860597
566,4016.54,1.2886386337487798
567,4019.2400000000002,1.0650715181115002
568,4021.94,1.2824564024742207
569,4024.64,1.650894286836941
570,4027.3399999999997,1.432874171199661
571,4030.0399999999995,1.3746250555623813
572,4032.7400000000002,1.6332209399251019
573,4035.44,1.3487098242878222
574,4038.14,1.3246967086505423
575,4040.84,1.2764325930132627
576,4043.54,1.283168477375983
577,4046.24,1.2109703617387033
578,4048.9399999999996,1.3957842461014236
579,4051.6400000000003,1.070854130464144
580,4054.34,1.2452060148268642
581,4057.04,1.2576488991895847
582,4059.7400000000002,1.0294057835523047
583,4062.44,0.9530074679150251
584,4065.14,1.1563655522777454
585,4067.8399999999997,1.3647164366404658
586,4070.5400000000004,1.207878321003186
587,4073.23,1.2922872057941925
588,4075.93,1.1318820901569129
