,lambda (Angstroms),Total Flux (erg/s/cm^2/Angstrom)
0,102.05000000000001,67.08764145992653
1,103.95,66.89642989550809
2,104.712855,66.81965794920575
3,105.88,66.20266432170551
4,108.10000000000001,65.02909475404206
5,110.11,63.9665385238603
6,113.98,61.920721304555116
7,117.97999999999999,59.806181542999376
8,120.22644299999999,58.61863328160728
9,121.01,58.27135697984754
10,124.97,56.516265576199054
11,127.0,55.61655962937928
12,127.88000000000001,55.22653931745741
13,130.86,53.905788715722004
14,132.07,53.36951078682952
15,133.91,52.554013770992974
16,137.03,51.17121448327035
17,138.038426,50.72427513887262
18,139.9,50.13453665590144
19,143.16,49.10178294614885
20,147.17,47.83143252403744
21,150.94,46.6371130498799
22,155.17,45.29706759214126
23,158.489319,44.245521883225855
24,159.14999999999998,44.087286606744215
25,162.10999999999999,43.37835685337925
26,165.89,42.47303439807937
27,170.14000000000001,41.455145394109756
28,172.91,40.791721266831956
29,176.93,39.82891802075533
30,179.81,39.13914853104432
31,181.89000000000001,38.64098167736852
32,181.970086,38.62180081648262
33,186.13000000000002,37.86170903225021
34,190.9,36.990143463703
35,194.0,36.423717203251144
36,198.07000000000002,35.68005433875678
37,202.21,34.92360120392908
38,205.03,34.40833602520326
39,208.929613,33.6958059580304
40,209.79999999999998,33.576240789428084
41,216.17999999999998,32.699819409775735
42,220.20000000000002,32.14759151866976
43,222.75,31.797297707255034
44,226.89000000000001,31.228585401743324
45,230.04,30.795869519515215
46,233.78,30.282105268378935
47,239.78,29.457884542545955
48,239.88329199999998,29.44369530793258
49,245.93,28.803599084021904
50,252.24,28.135631134277478
51,256.93,27.63915415722848
52,259.9,27.32475403440997
53,264.13,26.876972036032555
54,269.04,26.357206169194708
55,274.04,25.82791302636926
56,275.42287,25.681524304872656
57,279.13,25.380350482081713
58,284.32,24.958705669762256
59,290.28000000000003,24.474504687446554
60,295.67,24.036611526072736
61,301.17,23.589781763319873
62,308.19,23.019464512606227
63,316.227766,22.36646215126507
64,318.28000000000003,22.241933332325324
65,327.95,21.655161225710916
66,337.92,21.050185229750586
67,348.19000000000005,20.427005345874125
68,357.12,19.88513619127514
69,363.078055,19.52360358906155
70,366.28000000000003,19.37809884421921
71,374.81,18.99047335986307
72,385.31,18.51332590239134
73,395.2,18.06389851223984
74,405.33,17.603564892168688
75,413.82,17.217757140607986
76,416.86938299999997,17.079185217044216
77,421.51,16.918142801615254
78,430.34000000000003,16.61171705458313
79,441.37999999999994,16.228598176356954
80,450.62,15.90794432627344
81,460.06,15.580349883171301
82,469.68999999999994,15.246161962622663
83,478.630092,14.935915820049098
84,479.53000000000003,14.91189761096059
85,489.57,14.643933674461852
86,499.82,14.370365063830574
87,505.61,14.215832749206387
88,511.46,14.059705364690906
89,519.77,13.837915779689242
90,529.43,13.580095630098386
91,540.52,13.284107928853945
92,549.5408739999999,13.043352342384495
93,550.57,13.02240011303667
94,559.52,12.840183812224916
95,569.92,12.62844550988561
96,580.51,12.412831807809383
97,589.9499999999999,12.220647023882936
98,599.53,12.025604031670866
99,610.68,11.798606733402139
100,620.6,11.596650958739259
101,630.68,11.391437480734243
102,630.957344,11.38579092665305
103,639.46,11.248561777502756
104,649.85,11.080892573203508
105,657.37,10.959538898933408
106,664.99,10.836565890907588
107,674.24,10.687278085103541
108,685.1899999999999,10.510550681552266
109,694.72,10.356817983272204
110,704.39,10.200742346954138
111,715.8299999999999,10.016176492719838
112,724.43596,9.877303894341816
113,725.7900000000001,9.86108614483431
114,734.2,9.760362010700312
115,744.41,9.638127631689246
116,754.77,9.51407141896342
117,765.27,9.38834120403049
118,774.13,9.282285361152226
119,784.9000000000001,9.153348820712733
120,795.82,9.022590161258487
121,805.0300000000001,8.912325593512456
122,814.3499999999999,8.800739698182275
123,825.6800000000001,8.665157644714359
124,831.763771,8.592136959973141
125,835.24,8.560930627652535
126,844.91,8.47469652325952
127,854.7,8.387114227226677
128,864.5899999999999,8.298721191327306
129,874.61,8.209175819901454
130,884.7299999999999,8.118794453609075
131,894.9799999999999,8.027189589790213
132,905.34,7.934460243218171
133,915.8199999999999,7.842199951006302
134,924.3,7.793479098124941
135,935.0,7.738369449406713
136,945.83,7.713562640162002
137,954.58,7.705372589341023
138,954.992586,7.702714548104276
139,965.63,7.636241885386632
140,974.57,7.351491877459513
141,985.85,7.419830858329996
142,994.98,7.365229800860803
143,1004.18,7.4141088072445305
144,1015.8100000000001,7.309544087379611
145,1025.21,7.025458404771681
146,1034.7,7.035977647117503
147,1044.27,7.217712433866662
148,1053.93,7.133214345569575
149,1066.14,6.912083397628848
150,1076.0,6.922069220340102
151,1085.96,6.7249995485555285
152,1096.0,6.793408021174291
153,1096.4782,6.7886370625848915
154,1106.15,6.707502062230869
155,1113.81,6.633964328119223
156,1124.12,6.511826976592969
157,1134.52,6.594168278060181
158,1145.02,6.464212193964578
159,1155.61,6.441108662862442
160,1166.31,6.394706007641209
161,1174.39,6.1292822541657355
162,1185.26,6.257505843487716
163,1196.22,5.9592604858031635
164,1204.52,5.770362084089496
165,1215.6599999999999,5.603870832391877
166,1224.0900000000001,5.787002729446549
167,1235.41,5.977848383735861
168,1243.98,6.003602041002594
169,1255.49,5.8854807627225565
170,1258.92541,5.815187202365596
171,1264.19,5.7183095704500095
172,1275.89,5.888867340007429
173,1284.73,5.901260199228589
174,1293.64,5.634696669891545
175,1305.6100000000001,5.57428302643875
176,1314.66,5.747489519985301
177,1323.77,5.664540866196248
178,1336.02,5.486532868510638
179,1345.2800000000002,5.629865596382577
180,1354.6,5.5574660769189155
181,1363.99,5.400570968897047
182,1373.45,5.411130572316977
183,1386.1599999999999,5.365798778391746
184,1395.77,5.195925463472668
185,1405.44,5.188521001217986
186,1415.18,5.160363450405102
187,1424.9899999999998,5.146961711034015
188,1434.8700000000001,5.096027683104722
189,1441.49,5.124198693743194
190,1445.43977,5.1154512850533065
191,1448.15,5.113634731007901
192,1454.83,5.063826316638448
193,1464.92,4.950190464843866
194,1475.07,4.919555229986088
195,1485.29,4.90755751488791
196,1495.59,4.895860222372135
197,1505.96,4.80311404961596
198,1512.91,4.674915711462111
199,1516.3999999999999,4.728925396619388
200,1523.4,4.67951247257954
201,1533.95,4.52754465063377
202,1544.5900000000001,4.572266954093201
203,1555.29,4.4938365744894355
204,1566.07,4.4738624174680695
205,1573.3,4.504140058352627
206,1584.21,4.515387638027664
207,1595.19,4.493461137462304
208,1606.25,4.444463859479344
209,1613.66,4.432977651174305
210,1624.85,4.34503110988775
211,1636.1100000000001,4.366757388360794
212,1643.66,4.357301619574958
213,1655.06,4.248586537567208
214,1659.58691,4.265682169570454
215,1666.53,4.299328309250281
216,1670.37,4.192154238670323
217,1678.0800000000002,4.2686726922714975
218,1685.8300000000002,4.298924938887465
219,1693.6100000000001,4.223725680264526
220,1705.35,4.154148130106005
221,1713.22,4.07810965576635
222,1725.09,4.046573482905902
223,1733.06,4.089281091103227
224,1745.07,4.0385608937945525
225,1753.12,4.08189718802146
226,1765.28,3.973626364518256
227,1773.42,3.9714326430284466
228,1785.72,3.963267395077014
229,1793.96,4.005572056124185
230,1806.3899999999999,3.971797585470827
231,1814.73,3.8648618290549783
232,1823.11,3.8747808656539204
233,1835.7499999999998,3.8052291583282223
234,1844.22,3.7116458792104465
235,1857.0,3.67160574743652
236,1865.57,3.6759166508557257
237,1874.19,3.741919245543421
238,1882.8400000000001,3.637323834992211
239,1895.89,3.56090495606813
240,1904.6399999999999,3.602469428053901
241,1905.46072,3.596599997620596
242,1913.43,3.544930707599878
243,1926.69,3.504759931080539
244,1935.5900000000001,3.5308091165238187
245,1944.5200000000002,3.53698753686185
246,1953.5,3.458630848691137
247,1967.04,3.517297664522823
248,1976.1200000000001,3.530488959334617
249,1985.24,3.4558549673394166
250,1994.4,3.4147314885372184
251,2003.6100000000001,3.431707801226275
252,2012.85,3.3804883488100845
253,2026.81,3.4039890531683064
254,2036.1599999999999,3.3251613620328753
255,2045.56,3.339088662388698
256,2055.0,3.2860553759375253
257,2064.49,3.2747156809776063
258,2074.02,3.3100558992106905
259,2078.8,3.240643825774609
260,2083.5899999999997,3.2691890306367792
261,2093.21,3.202660753554121
262,2102.87,3.198164389664467
263,2112.58,3.1861839172660673
264,2127.22,3.1699443459053493
265,2137.04,3.098585234787709
266,2146.9,3.0876688368630725
267,2156.81,3.1024875304296904
268,2166.77,3.0619386154875623
269,2176.77,3.0343833137384384
270,2186.8199999999997,2.9926931034805686
271,2187.7616199999998,2.994106578962014
272,2196.91,3.0132608013455897
273,2207.05,2.9787619425924046
274,2217.2400000000002,2.934457706231956
275,2227.47,2.8913514877856965
276,2232.6099999999997,2.927502389758934
277,2242.91,2.881530202662504
278,2253.27,2.845826142437356
279,2263.67,2.855610500126397
280,2274.12,2.860964780208175
281,2284.61,2.8649931782041405
282,2295.16,2.8162760030713896
283,2305.75,2.8014085458528264
284,2316.3900000000003,2.7590745110269994
285,2327.09,2.6045617030724553
286,2332.4500000000003,2.7066126035737303
287,2343.22,2.687191826969017
288,2354.03,2.7089118682784914
289,2364.9,2.658636536459249
290,2375.81,2.6585362225541957
291,2386.78,2.6151719355204244
292,2392.2799999999997,2.6486788987213608
293,2403.33,2.607672647515967
294,2414.42,2.6103165142247615
295,2425.56,2.6211506033262926
296,2436.76,2.580902519299106
297,2442.38,2.6112340362426076
298,2453.65,2.586047783565251
299,2464.98,2.573460957759178
300,2476.35,2.539059849867294
301,2487.78,2.554497768846692
302,2493.52,2.505497639532759
303,2505.0299999999997,2.550742494340535
304,2510.8,2.491448478462243
305,2511.88643,2.4956272922438667
306,2516.59,2.515205208561425
307,2522.39,2.4787797937832936
308,2534.0299999999997,2.4739994213664915
309,2545.73,2.4494514346588803
310,2557.4799999999996,2.472271969375597
311,2563.38,2.4604917974461173
312,2575.21,2.483021946441756
313,2587.1,2.468631781146586
314,2593.06,2.461427894926299
315,2605.0299999999997,2.4309972439100513
316,2617.05,2.41819801431813
317,2623.09,2.428501542376765
318,2635.19,2.4236801270637667
319,2647.36,2.449035661744824
320,2653.46,2.4416202755126513
321,2665.71,2.391901424472632
322,2678.01,2.4051261948569387
323,2684.19,2.3943248229036884
324,2696.58,2.364651871851783
325,2702.79,2.3686563927531283
326,2715.27,2.34072172026501
327,2727.8,2.3322159692012185
328,2734.09,2.354329004381486
329,2746.71,2.2814369318814824
330,2753.04,2.280160224201211
331,2765.75,2.2839254302649943
332,2772.1200000000003,2.3021423797241845
333,2784.92,2.2836478643517557
334,2797.77,2.1791944704036537
335,2804.2200000000003,2.2109779341417655
336,2817.17,2.266560783042317
337,2823.66,2.2654795039198903
338,2836.69,2.2239174670993633
339,2843.23,2.2114462094012626
340,2856.36,2.2007397154293886
341,2862.94,2.22042701487075
342,2876.16,2.1982379994626635
343,2882.79,2.196924820328351
344,2884.0315,2.1950040703695644
345,2896.09,2.1796196886166275
346,2909.46,2.1987021275475476
347,2929.6299999999997,2.1736261756579927
348,2949.9399999999996,2.153529706898605
349,2970.38,2.1448446439029425
350,2990.97,2.1311365414038876
351,3011.71,2.12227169940144
352,3032.5800000000004,2.1100441631627183
353,3046.58,2.0957433761793887
354,3067.7,2.0784015741016795
355,3088.96,2.0658785551541365
356,3110.37,2.0450625967032012
357,3131.93,2.027452098748873
358,3146.39,2.019444470621805
359,3168.2,2.0000493068284886
360,3190.1600000000003,1.9679386035317787
361,3212.27,1.9642733607316774
362,3227.1,1.946468495162907
363,3249.47,1.9362844638902574
364,3272.0,1.9228450704806552
365,3287.1,1.911174793805778
366,3309.88,1.8959789345571876
367,3311.31121,1.8960698197567538
368,3325.16,1.8995840377482733
369,3332.83,1.8911099257540536
370,3340.5099999999998,1.8623829936659695
371,3348.2099999999996,1.8837661213901558
372,3355.93,1.8581012089266125
373,3363.66,1.8528918763692046
374,3371.42,1.8309538835302024
375,3379.19,1.8532252705973358
376,3386.98,1.8716612174767402
377,3394.79,1.8615222241684148
378,3402.6099999999997,1.8482975107662247
379,3410.46,1.8229116370824405
380,3418.32,1.8376722433047916
381,3426.2,1.8433453093394134
382,3434.1,1.8379912351863057
383,3442.0099999999998,1.8247839409393338
384,3449.95,1.8194311864107673
385,3457.8999999999996,1.7955880117883365
386,3465.87,1.7929890969781759
387,3473.8599999999997,1.8010739419802861
388,3481.8700000000003,1.7908039467946664
389,3489.9,1.800512611421318
390,3497.94,1.7932570559541046
391,3506.0099999999998,1.7768250402052974
392,3514.09,1.7681244043626254
393,3522.19,1.7776234283322236
394,3530.31,1.7688436121140931
395,3538.4500000000003,1.7722940557082327
396,3546.6,1.7727184792085078
397,3554.78,1.7731415424271888
398,3562.97,1.768919685552005
399,3568.73,1.5681440114859417
400,3571.4,1.4827561464240686
401,3574.0699999999997,1.7280337813621958
402,3576.74,2.0378532163003227
403,3579.3999999999996,1.7367109713323143
404,3582.07,1.247730606270441
405,3584.7400000000002,1.074276828208568
406,3587.41,1.4946090761466952
407,3590.07,1.4518558311786864
408,3592.74,2.2651176661168138
409,3595.41,2.2621201010549408
410,3598.0800000000004,1.874270735993067
411,3600.75,1.3099622709311942
412,3603.4100000000003,1.2150752259631858
413,3606.08,1.457579160901313
414,3608.75,1.62236899583944
415,3611.42,2.037776530777567
416,3614.08,1.2510927858095584
417,3616.7500000000005,1.384581420747685
418,3619.42,1.2521228556858122
419,3622.09,1.387201590623939
420,3624.76,1.532420125562066
421,3627.42,0.9663780805940576
422,3630.09,1.6309997155321845
423,3632.7599999999998,1.3022048504703116
424,3635.43,1.0207840154084384
425,3638.09,0.86023924044043
426,3640.76,1.8296343753785569
427,3643.43,2.2336444103166837
428,3646.1,1.604751945254811
429,3648.7599999999998,1.3948930002868027
430,3651.43,1.2966045352249296
431,3654.1,1.6390773701630565
432,3656.7699999999995,2.0142813051011834
433,3659.44,1.8706805400393103
434,3662.1,1.7274888950713019
435,3664.77,1.3281011300094288
436,3667.44,2.103501564947556
437,3670.1099999999997,1.9950366998856828
438,3672.77,1.5438751549176741
439,3675.4399999999996,1.7494901898558015
440,3678.11,1.981546724793928
441,3680.78,2.078908359732055
442,3683.45,1.2893419946701818
443,3686.11,1.7182990497021735
444,3688.7799999999997,1.5948301846403004
445,3691.45,1.4561775195784272
446,3694.1200000000003,1.7811615545165542
447,3696.78,1.963748609548546
448,3699.4500000000003,1.4209520444866728
449,3702.12,1.5807739794248
450,3704.79,1.5185429143629265
451,3707.46,1.4789277493010535
452,3710.12,1.5991140043330452
453,3712.7900000000004,1.7781866392711718
454,3715.46,1.914851274209299
455,3718.13,1.434696009147426
456,3720.79,1.7471081641794175
457,3723.46,2.1922237991175444
458,3726.13,2.341769234055671
459,3728.7999999999997,2.9546696689937986
460,3731.4700000000003,2.705500103931925
461,3734.13,2.466219158963917
462,3736.8,1.8459189939020437
463,3739.47,1.6140779288401708
464,3742.14,1.6692532637782977
465,3744.7999999999997,1.7103544188102893
466,3747.47,1.9284891537484163
467,3750.1400000000003,1.920824088686543
468,3752.81,1.68413542362467
469,3755.4700000000003,1.5188679786566617
470,3758.14,1.8841172135947888
471,3760.81,1.9752494485329155
472,3763.48,1.8549855834710425
473,3766.1499999999996,1.9031896184091694
474,3768.8100000000004,1.6192340734411608
475,3771.48,1.422108108379288
476,3774.15,1.7174856433174148
477,3776.82,1.8753438782555416
478,3779.48,1.5956350332875333
479,3782.15,1.8314981682256604
480,3784.8199999999997,1.9662998031637873
481,3787.4900000000002,1.814325538101914
482,3790.1600000000003,1.659447073040041
483,3792.82,1.1827318280720327
484,3795.4900000000002,1.6619143630101594
485,3798.16,1.9893026979482866
486,3800.83,1.4768555328864135
487,3801.8939600000003,1.4301569505509937
488,3803.49,1.3603185516682363
489,3806.1600000000003,1.8505838572211655
490,3808.8300000000004,1.9499464627740943
491,3811.5,2.005859668327024
492,3814.17,2.052678873879953
493,3816.83,1.8844639595618977
494,3819.5,2.0205645651148267
495,3822.1699999999996,2.150936770667756
496,3824.8399999999997,1.4896303762206855
497,3827.5,1.69026086190263
498,3830.17,1.6539678674555591
499,3832.84,1.7685347730084886
500,3835.5099999999998,1.6063016785614177
501,3838.18,1.5329099841143468
502,3840.8399999999997,1.7813565697962916
503,3843.5099999999998,1.9521929753492206
504,3846.1800000000003,1.3373201809021498
505,3848.85,1.678807686455079
506,3851.51,2.0743088721370233
507,3854.18,2.228839077689953
508,3856.85,2.014202283242882
509,3859.52,1.7209606887958113
510,3862.18,1.9785229744777557
511,3864.8500000000004,1.798240280030685
512,3867.52,2.224683385583614
513,3870.19,2.1692395911365434
514,3872.86,2.093743796689473
515,3875.52,2.1257682823714172
516,3878.19,1.7498140879243465
517,3880.8599999999997,2.132987693477276
518,3883.53,2.032431899030205
519,3886.19,2.0373933847121495
520,3888.86,1.6838750902650788
521,3891.53,1.2653341958180078
522,3894.2,1.2242943013709373
523,3896.87,2.0303592069238663
524,3899.5299999999997,1.885502192605811
525,3902.2000000000003,1.96162789815874
526,3904.87,1.4241979037116694
527,3907.54,1.7820715092645987
528,3910.2,1.8434813949465432
529,3912.87,2.2659980004994726
530,3915.54,2.120451206052402
531,3918.2099999999996,2.0769064116053313
532,3920.88,2.00818161715826
533,3923.54,1.9135437028402045
534,3926.21,2.158397308393134
535,3928.88,2.2866055139460633
536,3931.5499999999997,1.6327310194989924
537,3934.21,1.406742805180937
538,3936.8799999999997,2.014174410733866
539,3939.55,1.4601778162867953
540,3942.2200000000003,1.6366232218397245
541,3944.89,1.7359056273926539
542,3947.55,1.7076528130745983
543,3950.22,2.1362997186275274
544,3952.89,2.0306959241804567
545,3955.5600000000004,2.103155129733386
546,3958.2200000000003,1.7479630154153305
547,3960.8900000000003,2.0942588209682595
548,3963.56,2.064656026521189
549,3966.23,1.7080136320741182
550,3968.9,1.7990428376270475
551,3971.56,1.355228623308992
552,3974.2300000000005,1.569574628861921
553,3976.9,1.5867468344148505
554,3979.57,1.4843089399677796
555,3982.23,2.0150050256497245
556,3984.9,1.9588602312026533
557,3987.5699999999997,1.727135936755583
558,3990.24,1.8173239423085121
559,3992.8999999999996,2.0865251279904564
560,3995.57,2.0087053335433858
561,3998.2400000000002,2.631940539096315
562,4000.91,1.9458347446492443
563,4003.58,1.9033111502021733
564,4006.24,1.9054672358841178
565,4008.91,2.0224176414370474
566,4011.58,1.9041541469899763
567,4014.2499999999995,2.303152052542906
568,4016.9100000000003,2.19898053822485
569,4019.58,1.9880297437777794
570,4022.25,2.2183399493307085
571,4024.92,2.282225154883638
572,4027.5899999999997,1.997577360436567
573,4030.25,1.8492146461185115
574,4032.9199999999996,1.942628051671441
575,4035.59,2.21324225722437
576,4038.26,2.0243264627772994
577,4040.92,1.9881019484592437
578,4043.59,2.153229154012173
579,4046.2599999999998,2.066976359565102
580,4048.93,2.0071255651180318
581,4051.6000000000004,1.9451907706709606
582,4054.26,1.5959883563529051
583,4056.9300000000003,1.6829314619058344
584,4059.6,2.066225667458764
585,4062.27,2.117230873011693
586,4064.93,2.1426043586936374
587,4067.6,2.427522564246567
588,4070.2700000000004,1.916273769799496
589,4072.94,1.806162775352425
590,4075.6,1.7041926610343698
591,4078.27,2.0183576665872986
592,4080.94,2.170423872140228
593,4083.6099999999997,1.9340320776931574
594,4086.2799999999997,1.9113602832460868
595,4088.9399999999996,2.1324857689280314
596,4091.61,1.9234169744809604
597,4094.28,1.9164501800338898
598,4096.95,2.000909385586819
599,4099.610000000001,1.9778058712687634
600,4102.28,1.8444174768216928
601,4104.95,1.758304982374622
602,4107.62,1.6215922879275513
603,4110.29,1.5623430934804805
604,4112.95,1.7634546791624248
605,4115.62,1.8005983847153542
606,4118.29,1.9737585902682833
