,lambda (Angstroms),Total Flux (erg/s/cm^2/Angstrom)
0,100.0,13.80208372137214
1,102.10000000000001,13.758737774609216
2,104.0,13.719520013255158
3,104.712855,13.704806025220899
4,105.93,13.572838574036332
5,107.89999999999999,13.359243744479148
6,109.89999999999999,13.142396201814362
7,114.03,12.694606026229268
8,118.04,12.259826703305958
9,120.22644299999999,12.022764308289075
10,121.06,11.946992352192364
11,125.03,11.586111613252488
12,127.06,11.401580656246868
13,127.94,11.321586941066117
14,130.92,11.050699132687779
15,132.13,10.940707774835156
16,133.97,10.773448188974983
17,137.09,10.489834110490365
18,138.038426,10.403620339494589
19,139.96,10.278765634825476
20,142.89,10.088388241310792
21,146.9,9.827837634572047
22,151.01,9.560789479120793
23,154.89,9.308685647434206
24,158.489319,9.074819132961924
25,158.86,9.05661037490175
26,162.19,8.893032630039986
27,165.96,8.707841043723972
28,169.83,8.51773723675125
29,172.98999999999998,8.36251031496616
30,177.01999999999998,8.164547038732348
31,179.89000000000001,8.023565747505494
32,181.970086,7.921386935553231
33,181.98,7.921015401619852
34,185.79,7.7782331202960275
35,190.99,7.583359737449134
36,194.09,7.467185305412987
37,198.16,7.314659600883718
38,201.84,7.176749588447116
39,205.11999999999998,7.053829771468277
40,208.929613,6.911062560245746
41,209.9,6.883722322375442
42,215.78,6.7180565893253625
43,219.79,6.6050772431660665
44,222.85,6.5188636099708726
45,226.99,6.402222159135785
46,230.15,6.313195841110212
47,233.89000000000001,6.20783679816064
48,239.88329199999998,6.038991116510472
49,239.89,6.038845489906701
50,246.04000000000002,5.905327331570571
51,251.78,5.78072082169285
52,257.05,5.666307190242329
53,260.02,5.60184079809215
54,264.25,5.510053159647348
55,269.15999999999997,5.403482994869577
56,274.17,5.294744642960485
57,275.42287,5.267542772245325
58,279.26,5.203605843937575
59,283.8,5.128047891555912
60,289.74,5.029146669693561
61,295.81,4.928036464033718
62,301.31,4.8363900587167254
63,308.33,4.719561677352129
64,316.227766,4.588120005538552
65,317.7,4.5698266588392675
66,328.11,4.440500808391889
67,338.08,4.316600244840941
68,348.34999999999997,4.188980109656062
69,357.28000000000003,4.078620047269404
70,363.078055,4.0075365367283595
71,365.61,3.9844078416836393
72,374.97999999999996,3.8976325093534476
73,384.6,3.8077890916217023
74,395.38,3.7099954329867537
75,404.59000000000003,3.626849337953555
76,414.01,3.540227245343053
77,416.86938299999997,3.5136594511581993
78,421.71,3.479345801937903
79,429.55,3.4241855002245005
80,440.57,3.3493669536069373
81,450.83,3.2784572198595514
82,460.27,3.2110313547352503
83,469.90999999999997,3.144576600434588
84,478.630092,3.0863189299504312
85,479.74999999999994,3.08067756823138
86,489.79,3.0245095274239677
87,500.05,2.9754851079733657
88,505.84,2.9417045373184942
89,511.7,2.926180640731699
90,520.01,2.881506656527556
91,529.6800000000001,2.8287784170746004
92,539.53,2.7705366923681263
93,549.5408739999999,2.717545922466208
94,549.56,2.7174695114789147
95,559.78,2.6906290078202186
96,570.18,2.6575345820618588
97,579.45,2.6217224739291662
98,590.22,2.5823859349659424
99,599.81,2.5352371186560703
100,609.5600000000001,2.495495088257608
101,619.46,2.4771595827760917
102,629.53,2.43445637420045
103,630.957344,2.4304243544549897
104,639.7600000000001,2.413176880853856
105,650.15,2.379774737126997
106,657.68,2.350453761548243
107,665.2900000000001,2.340908553294017
108,674.55,2.321166471108193
109,685.51,2.2725991945685995
110,695.05,2.263581798018625
111,704.72,2.211476748371008
112,716.17,2.2097293716941513
113,724.43596,2.1881817168812527
114,726.13,2.1852109179442
115,734.5400000000001,2.1702880970222678
116,744.76,2.1459593786129756
117,755.12,2.124867539403556
118,765.62,2.0870458793940094
119,774.49,2.088460204414516
120,785.26,2.0536343757190094
121,794.35,2.0484131966250305
122,805.4,2.031362226329269
123,814.73,2.0146473972922143
124,824.1600000000001,2.000401539112212
125,831.763771,1.9572120981570609
126,835.63,1.9376510120536141
127,845.31,1.9635019477863638
128,855.09,1.9476351072353608
129,864.9999999999999,1.9424119875154802
130,875.01,1.9302257915118461
131,885.14,1.9173820839677091
132,895.39,1.9044593648830692
133,905.76,1.8860130342579264
134,914.14,1.8682379616794598
135,924.73,2.1880243432300612
136,935.44,2.5305393132401592
137,944.09,2.894737514695561
138,954.992586,3.141220926832323
139,955.02,3.14184178454767
140,966.08,3.3013739994457003
141,975.0200000000001,2.204064439336152
142,984.0400000000001,2.9998223122457577
143,995.4399999999999,2.9619445174751933
144,1004.65,3.355353343805289
145,1013.9399999999999,3.378708403154539
146,1025.68,2.7052165987153782
147,1035.18,3.1125972697399074
148,1044.75,3.827926144656196
149,1054.4199999999998,3.760226310846428
150,1064.18,3.399127739183207
151,1074.02,3.627471400539141
152,1083.96,3.3213513531690166
153,1093.99,3.7057395679454403
154,1096.4782,3.683743702162806
155,1104.11,3.61876386987978
156,1114.3300000000002,3.5714314899355184
157,1124.6399999999999,3.3283296868802026
158,1135.05,3.7180507470348245
159,1145.55,3.5794673840783915
160,1156.1499999999999,3.6246698843318974
161,1164.16,3.62414322744799
162,1174.94,2.906953881479385
163,1185.81,3.5366061123997263
164,1194.03,3.1368444682566903
165,1205.07,2.8269095666339266
166,1216.22,2.441196814542095
167,1224.66,3.0779594694609242
168,1235.99,3.563852871146983
169,1244.55,3.680521961917738
170,1256.07,3.6099028037026812
171,1258.92541,3.5605187616837535
172,1264.78,3.461737485522149
173,1273.54,3.8183230016529515
174,1285.3300000000002,3.890717309322147
175,1294.24,3.481648488400395
176,1306.2099999999998,3.4919879916065257
177,1315.27,3.8659888336322186
178,1324.38,3.758561229973726
179,1333.56,3.5690302023573754
180,1345.8999999999999,3.8272096075005377
181,1355.23,3.7584472428316316
182,1364.63,3.554484454204867
183,1374.0900000000001,3.587216730757081
184,1383.6100000000001,3.5895270724882717
185,1396.4099999999999,3.054950977336933
186,1406.0900000000001,3.039805492878733
187,1415.84,3.435185584462674
188,1425.6499999999999,3.401429741225593
189,1435.53,3.462099474030653
190,1442.16,3.528125176307733
191,1445.43977,3.5368201296753496
192,1445.49,3.5369692045731114
193,1455.5100000000002,3.4623630201328974
194,1465.59,3.3254179064445397
195,1475.7500000000002,3.3410462204253206
196,1485.98,3.3685852836166004
197,1496.2800000000002,3.366905096018377
198,1506.6599999999999,3.2498503360892936
199,1513.61,3.0604268648458324
200,1517.1000000000001,3.159061646912065
201,1524.1,3.1215535679618167
202,1534.6699999999998,2.8363376987469406
203,1545.3,2.7588209002839204
204,1556.02,2.723688207948682
205,1566.8000000000002,2.880187586365299
206,1574.03,3.0058331119638275
207,1584.94,3.066312310342797
208,1595.93,3.0851199363909068
209,1603.3,3.0368299604104303
210,1614.41,3.0180867279622494
211,1625.6000000000001,2.9628259231832086
212,1636.87,3.0660035460733086
213,1644.42,3.071332782348397
214,1655.8200000000002,2.998392225200849
215,1659.58691,3.0491332517829974
216,1663.47,3.102291059304935
217,1671.14,2.9217279650628756
218,1678.8600000000001,3.156386231353789
219,1686.6100000000001,3.169519113964486
220,1694.39,3.064341612894966
221,1706.1399999999999,2.998460338143442
222,1714.01,2.8843546860332716
223,1725.8899999999999,2.857894748667475
224,1733.8600000000001,2.9735618176232497
225,1745.8799999999999,2.9302210897497756
226,1753.94,3.0009810076649
227,1766.09,2.8989476171771535
228,1774.25,2.8791222561582224
229,1786.54,2.9199240751627986
230,1794.79,2.9854275631032174
231,1803.07,2.99213466736342
232,1815.57,2.827136800606479
233,1823.95,2.8692676259326264
234,1836.6,2.816328840774602
235,1845.07,2.673562515060099
236,1853.59,2.674009549878568
237,1866.44,2.706178206852433
238,1875.05,2.817153090630252
239,1883.71,2.6489773349410433
240,1896.7700000000002,2.5627073061533916
241,1905.46072,2.6853121036510705
242,1905.52,2.6861565212966196
243,1914.32,2.5965956512664268
244,1923.15,2.533297507815676
245,1936.4799999999998,2.6309243512813048
246,1945.4199999999998,2.675995871955177
247,1954.4,2.5215543614016385
248,1967.95,2.667511533116512
249,1977.03,2.7287714444944493
250,1986.1599999999999,2.621919566838124
251,1995.33,2.570922657954389
252,2004.54,2.634268717843244
253,2013.79,2.5923517465046886
254,2023.08,2.6615507439387236
255,2037.1100000000001,2.5365085409246775
256,2046.51,2.570552202483335
257,2055.96,2.38574407500773
258,2065.4500000000003,2.4527189163047147
259,2074.98,2.6175517263742902
260,2079.7599999999998,2.492760494698799
261,2084.56,2.560996747409603
262,2094.18,2.4644237372175057
263,2103.85,2.497483937991146
264,2113.56,2.512379107537376
265,2123.31,2.522839245856196
266,2133.11,2.454404595140754
267,2142.96,2.4325501553910494
268,2152.85,2.493038684413935
269,2162.79,2.443250424402558
270,2172.77,2.4348941331637706
271,2182.8,2.386276052890721
272,2187.7616199999998,2.4132707582866573
273,2192.87,2.4416848485974505
274,2203.0,2.41183245927048
275,2213.1600000000003,2.351574442926746
276,2223.38,2.3099681725494863
277,2233.64,2.3550857328165424
278,2243.9500000000003,2.3133115813889935
279,2254.31,2.26391571826684
280,2264.7200000000003,2.2914591434500817
281,2275.17,2.3025853992776386
282,2285.67,2.309434943410591
283,2296.22,2.2190277758489385
284,2306.82,2.229635896592681
285,2317.4700000000003,2.1827103056418182
286,2322.81,1.9478796966580054
287,2333.53,2.1163383093346955
288,2344.3,2.102743210316781
289,2355.12,2.136129399604261
290,2365.9900000000002,2.0796458771971364
291,2376.92,2.077721100756486
292,2382.4,2.0164118990277795
293,2393.39,2.0671198685536027
294,2404.44,2.0235695840459003
295,2415.54,2.032877587843593
296,2426.69,2.0573748799466802
297,2432.28,2.0111857124898425
298,2443.51,2.050573665881562
299,2454.79,2.0296369075786767
300,2466.12,2.0162954375811863
301,2477.5,1.9808282558890906
302,2483.21,1.998322580365201
303,2494.67,1.8237480599617375
304,2506.1899999999996,1.986687285524748
305,2511.88643,1.9003415565828052
306,2511.9700000000003,1.8990802296390674
307,2517.76,1.9555894541461771
308,2523.5600000000004,1.918921784395095
309,2535.21,1.9175799736019736
310,2546.91,1.8879466915178944
311,2552.78,1.9226567619594719
312,2564.5699999999997,1.9069404315516691
313,2576.3999999999996,1.9414845241111
314,2582.34,1.9263313347453368
315,2594.2599999999998,1.9141653789810442
316,2606.2400000000002,1.8843150576676022
317,2612.2400000000002,1.86962450275269
318,2624.3,1.882167027373716
319,2636.4100000000003,1.8843060807037846
320,2642.4900000000002,1.9192213717233402
321,2654.69,1.914208376729685
322,2666.94,1.849123910445072
323,2673.09,1.8693519416572868
324,2685.43,1.8643214270489508
325,2697.82,1.8248054411496566
326,2704.04,1.8274362125545307
327,2716.5299999999997,1.7987462840733215
328,2722.79,1.7979604784454293
329,2735.36,1.8134073958986878
330,2747.98,1.741915842060989
331,2754.32,1.7411038823675649
332,2767.0299999999997,1.7493202802061423
333,2773.41,1.774978743479952
334,2786.21,1.7535370929948055
335,2792.6299999999997,1.6359009792358492
336,2805.5200000000004,1.677286280426979
337,2811.99,1.7469906953770653
338,2824.97,1.7454029482444717
339,2838.01,1.6983918355627288
340,2844.55,1.688036990705474
341,2857.6800000000003,1.6769178297000076
342,2864.27,1.7046735135517954
343,2877.49,1.6870273042226052
344,2884.0315,1.6861848091632736
345,2884.12,1.6861783356847944
346,2897.44,1.6725813843046247
347,2910.81,1.690686743917773
348,2930.99,1.6669810608207898
349,2951.3,1.6405799863064325
350,2971.7599999999998,1.6359318447720281
351,2992.36,1.6190679740189133
352,3013.1000000000004,1.608372374047088
353,3027.0099999999998,1.5982714923880672
354,3047.99,1.5846077851841667
355,3069.1200000000003,1.5710800109602194
356,3090.39,1.5546865075175615
357,3111.81,1.544293937054857
358,3133.39,1.5222989617707685
359,3147.85,1.5153735010382423
360,3169.67,1.496600418522079
361,3191.64,1.4641022689858687
362,3206.37,1.465623687617258
363,3228.6,1.4445787552462996
364,3250.98,1.4455437558552942
365,3273.51,1.438250689444242
366,3288.62,1.4261712716248456
367,3311.31121,1.4135834352912553
368,3311.42,1.4135273297111692
369,3319.05,1.4403093202476214
370,3326.7000000000003,1.4510754156085466
371,3334.37,1.4424216157939451
372,3342.06,1.3935059208038163
373,3349.7599999999998,1.4362902782259241
374,3357.48,1.379684740472505
375,3365.22,1.3793513075435588
376,3372.98,1.3660129794390856
377,3380.7599999999998,1.3734357561590853
378,3388.55,1.4074915852913217
379,3396.36,1.401755519248031
380,3404.19,1.3645615580292134
381,3412.04,1.3615947016348686
382,3419.9,1.3743258976527606
383,3427.79,1.384431250907362
384,3435.69,1.3814656565741998
385,3443.6099999999997,1.3473521670655106
386,3451.5499999999997,1.3755217823812946
387,3459.5,1.3313464501093148
388,3467.48,1.328446275074045
389,3475.47,1.3331581524510112
390,3483.48,1.3126661346524506
391,3491.52,1.3451052740905995
392,3499.56,1.3193854135287484
393,3507.63,1.3090317102036069
394,3515.72,1.2962921117029385
395,3523.8199999999997,1.3182755656145064
396,3531.94,1.3079161243505473
397,3540.09,1.3225178403232978
398,3548.25,1.3374356087082846
399,3556.43,1.3217604819177446
400,3564.62,1.3239214075394412
401,3572.8399999999997,1.3034864903978471
402,3576.45,1.0684826112152248
403,3579.1499999999996,1.174265162519081
404,3581.85,1.3341767138229368
405,3584.55,0.9899614651267928
406,3587.25,0.6446926164306488
407,3589.9500000000003,1.0407332677345047
408,3592.65,1.8467013190383608
409,3595.35,1.724794470342217
410,3598.0499999999997,1.6414836216460729
411,3600.75,1.1524843729499288
412,3603.4500000000003,1.0832005242537845
413,3606.15,1.2661740755576407
414,3608.85,1.2972222268614968
415,3611.55,1.3293003781653525
416,3614.25,0.8859743294692085
417,3616.95,1.6018096807730648
418,3619.6499999999996,1.3217178320769205
419,3622.35,1.0867981833807767
420,3625.05,1.4292251346846325
421,3627.75,1.2349622859884883
422,3630.4500000000003,1.3800524372923444
423,3633.15,1.2385715885962005
424,3635.85,1.2957727399000567
425,3638.5499999999997,0.6929371912039124
426,3641.2499999999995,0.6894478425077685
427,3643.9500000000003,1.4073831938116244
428,3646.65,1.4104553451154804
429,3649.35,1.5030824964193363
430,3652.05,1.2974066477231925
431,3654.75,1.0917317990270483
432,3657.45,1.2987969503309043
433,3660.1499999999996,0.9605902016347603
434,3662.8500000000004,1.4009152529386162
435,3665.55,1.3519994042424721
436,3668.25,1.4619025555463283
437,3670.9500000000003,1.5543707068501842
438,3673.65,1.4285808581540402
439,3676.35,0.9746752094578962
440,3679.0499999999997,1.501297160761752
441,3681.7499999999995,1.1240433120656081
442,3684.4500000000003,1.1041331633694642
443,3687.15,1.26681761467332
444,3689.85,1.4099267659771761
445,3692.55,1.058113017281032
446,3695.25,1.2914100685848882
447,3697.95,1.068062319888744
448,3700.6499999999996,1.0097946711926
449,3703.3500000000004,1.1135161224964558
450,3706.05,1.116747373800312
451,3708.75,1.138047825104168
452,3711.45,1.1260628764080238
453,3714.15,1.5939431277118798
454,3716.85,1.6219012790157359
455,3719.5499999999997,2.311130430319592
456,3722.2499999999995,4.948352581623448
457,3724.9500000000003,7.328484732927304
458,3727.65,9.18745988423116
459,3730.35,7.806331035535016
460,3733.05,4.504473186838872
461,3735.75,2.579840338142728
462,3738.45,1.5616834894465839
463,3741.1499999999996,1.2897546407504397
464,3743.8500000000004,1.0370043920542957
465,3746.55,1.2327369433581516
466,3749.25,1.2735330946620076
467,3751.95,1.2227142459658638
468,3754.65,1.1435246972697195
469,3757.35,1.1845585485735757
470,3760.0499999999997,1.3935256998774315
471,3762.7500000000005,1.5765778511812876
472,3765.4500000000003,1.4546710024851435
473,3768.15,1.3128731537889995
474,3770.85,1.1999217050928555
475,3773.55,1.4775204563967115
476,3776.25,1.4087916077005675
477,3778.95,1.3089957590044234
478,3781.6499999999996,1.4511539103082793
479,3784.3500000000004,1.5120800616121353
480,3787.05,1.6180202129159913
481,3789.75,1.5457253642198472
482,3792.45,1.3654905155237034
483,3795.15,1.4595436668275594
484,3797.85,1.3231338181314152
485,3800.5499999999997,1.2535339694352714
486,3801.8939600000003,1.2691857033561373
487,3803.2500000000005,1.2850153886073483
488,3805.9500000000003,1.3247757436546024
489,3808.65,1.2974910987018562
490,3811.35,1.4475684537491098
491,3814.0499999999997,1.4269398087963638
492,3816.75,1.5467441638436177
493,3819.44,1.5514841916499558
494,3822.14,1.4752215466972096
495,3824.8399999999997,1.4390589017444637
496,3827.54,1.6291602567917174
497,3830.24,1.5107356118389712
498,3832.94,1.3826419668862253
499,3835.6400000000003,1.154850321933479
500,3838.34,1.1268512769807328
501,3841.04,1.3920030320279868
502,3843.74,1.3277073870752407
503,3846.44,1.2691167421224943
504,3849.14,1.2783660971697484
505,3851.84,1.280483452217002
506,3854.54,1.4751798072642561
507,3857.2400000000002,1.3800551623115098
508,3859.94,1.4420855173587637
509,3862.64,1.5710048724060177
510,3865.3399999999997,1.7082452274532716
511,3868.04,2.002640582500525
512,3870.74,1.785071937547779
513,3873.44,1.533505292595033
514,3876.1400000000003,1.5683526476422867
515,3878.84,1.2563170026895407
516,3881.54,1.2829223577367945
517,3884.24,1.5006027127840484
518,3886.94,1.6859480678313021
519,3889.64,1.6272784228785562
520,3892.34,1.5430117779258101
521,3895.04,1.540769132973064
522,3897.7400000000002,1.5158614880203176
523,3900.44,1.3557498430675716
524,3903.14,1.4081121981148255
525,3905.8399999999997,1.5227655531620794
526,3908.54,1.523375908209333
527,3911.2400000000002,1.724810263256587
528,3913.94,1.6697866183038408
529,3916.6400000000003,1.837695973351095
530,3919.34,1.6076063283983486
531,3922.04,1.4858536834456024
532,3924.74,1.3801090384928563
533,3927.4399999999996,1.2538393935401102
534,3930.14,1.3014457485873638
535,3932.84,1.3426331036346177
536,3935.54,1.2514714586818718
537,3938.2400000000002,1.1837672137291255
538,3940.94,1.3052361687763794
539,3943.64,1.2414155238236333
540,3946.3399999999997,1.3146998788708872
541,3949.04,1.259280233918141
542,3951.7400000000002,1.5443235889653948
543,3954.44,1.4944509440126488
544,3957.1400000000003,1.4550402990599027
545,3959.84,1.3477106541071566
546,3962.54,1.2775500091544103
547,3965.24,1.4917433642016642
548,3967.9399999999996,1.6142427192489182
549,3970.64,1.4958970742961717
550,3973.34,1.5759964293434257
551,3976.04,1.4000357843906797
552,3978.7400000000002,1.3331251394379335
553,3981.44,1.2601114944851872
554,3984.14,1.430002849532441
555,3986.8399999999997,1.3262392045796951
556,3989.54,1.361245559626949
557,3992.2400000000002,1.2479719146742028
558,3994.94,1.3392462697214567
559,3997.64,1.3167956247687105
560,4000.34,1.4049779798159643
561,4003.04,1.4772323348632184
562,4005.74,1.352784689910472
563,4008.4399999999996,1.366631044957726
564,4011.1400000000003,1.4512474000049798
565,4013.84,1.4050207550522336
566,4016.54,1.4752141100994873
567,4019.2400000000002,1.2514654651467414
568,4021.94,1.4686688201939953
569,4024.64,1.836925175241249
570,4027.3399999999997,1.6187235302885028
571,4030.0399999999995,1.5602928853357567
572,4032.7400000000002,1.8187072403830107
573,4035.44,1.5340145954302646
574,4038.14,1.5098199504775183
575,4040.84,1.4613743055247723
576,4043.54,1.467928660572026
577,4046.24,1.39554901561928
578,4048.9399999999996,1.5801813706665337
579,4051.6400000000003,1.2550697257137877
580,4054.34,1.4292400807610415
581,4057.04,1.4415014358082954
582,4059.7400000000002,1.213076790855549
583,4062.44,1.1364969459028031
584,4065.14,1.339673500950057
585,4067.8399999999997,1.547842855997311
586,4070.5400000000004,1.3908232110445646
587,4073.23,1.4750512388509027
588,4075.93,1.3144645938981567
589,4078.6299999999997,1.2365369489454103
590,4081.3300000000004,1.4410613039926643
591,4084.03,1.2398186590399183
592,4086.73,1.2315540140871721
593,4089.43,1.271552369134426
594,4092.13,1.2000447241816796
595,4094.83,1.3143810792289337
596,4097.53,1.6074294342761875
597,4100.2300000000005,1.6335587893234413
598,4102.93,1.7139761443706951
