,lambda (Angstroms),Total Flux (erg/s/cm^2/Angstrom)
0,100.0,6.901041860696781
1,102.10000000000001,6.879368887321269
2,104.0,6.8597600066510624
3,104.712855,6.852403012637795
4,105.93,6.786419287052107
5,107.89999999999999,6.679621872289203
6,109.89999999999999,6.571198100989172
7,114.03,6.347303013272291
8,118.04,6.129913351935312
9,120.22644299999999,6.01138215488546
10,121.06,5.9734961770119375
11,125.03,5.793055808132007
12,127.06,5.700790330023537
13,127.94,5.660793472689827
14,130.92,5.525349569293511
15,132.13,5.47035389098057
16,133.97,5.386724098800573
17,137.09,5.244917061773642
18,138.038426,5.201810177028364
19,139.96,5.139382826218642
20,142.89,5.044194140923376
21,146.9,4.913918865228954
22,151.01,4.780394802194696
23,154.89,4.654342911767953
24,158.489319,4.5374096826470725
25,158.86,4.528305306512475
26,162.19,4.446516463191843
27,165.96,4.353920720362336
28,169.83,4.258868880045525
29,172.98999999999998,4.1812554504135795
30,177.01999999999998,4.0822739379067245
31,179.89000000000001,4.011783381641747
32,181.970086,3.9606940438790006
33,181.98,3.960508277237426
34,185.79,3.889117299300514
35,190.99,3.791680865958067
36,194.09,3.7335938461264933
37,198.16,3.6573312924593586
38,201.84,3.5883766596720577
39,205.11999999999998,3.526917072380639
40,208.929613,3.455533912987431
41,209.9,3.4418639077132207
42,215.78,3.359032103461681
43,219.79,3.3025432427585333
44,222.85,3.2594370623054365
45,226.99,3.2011174592978926
46,230.15,3.156607334300106
47,233.89000000000001,3.10393517803532
48,239.88329199999998,3.0195194152281553
49,239.89,3.0194466098483503
50,246.04000000000002,2.9526920960252854
51,251.78,2.8903983210264252
52,257.05,2.833195162191165
53,260.02,2.800970725196075
54,264.25,2.755103447123674
55,269.15999999999997,2.7018356391847886
56,274.17,2.6474852318302426
57,275.42287,2.6338843639282667
58,279.26,2.6019161063687877
59,283.8,2.564182716927956
60,289.74,2.51477002014678
61,295.81,2.4642314217668586
62,301.31,2.4184077248583624
63,308.33,2.3600657822260644
64,316.227766,2.29442357013913
65,317.7,2.285291553169634
66,328.11,2.2207444284459443
67,338.08,2.1588845849204703
68,348.34999999999997,2.095171991828031
69,357.28000000000003,2.0403809996347024
70,363.078055,2.0053772791585813
71,365.61,1.9940478853418198
72,374.97999999999996,1.950938372176724
73,384.6,1.9059258168108513
74,395.38,1.8583688209933769
75,404.59000000000003,1.8181429174767776
76,414.01,1.7754196526715265
77,416.86938299999997,1.762177077376934
78,421.71,1.7450902059689517
79,429.55,1.7178308801122504
80,440.57,1.6822302868034686
81,450.83,1.6478338199297757
82,460.27,1.6140030073676253
83,469.90999999999997,1.581855065217294
84,478.630092,1.554630440187246
85,479.74999999999994,1.55205431411569
86,489.79,1.5233661787119839
87,500.05,1.502423813986683
88,505.84,1.484490718659247
89,511.7,1.4850058903658494
90,520.01,1.463076728263778
91,529.6800000000001,1.4368156885373002
92,539.53,1.4055338311840633
93,549.5408739999999,1.3799432475897562
94,549.56,1.3799067707394572
95,559.78,1.3744051189101092
96,570.18,1.3630253760309294
97,579.45,1.3465685669645833
98,590.22,1.329719252482971
99,599.81,1.3025938793280352
100,609.5600000000001,1.2832093641288038
101,619.46,1.2855445663880458
102,629.53,1.263867017100225
103,630.957344,1.2628152206547167
104,639.7600000000001,1.2601379404269282
105,650.15,1.2439333685634986
106,657.68,1.2270760807741217
107,665.2900000000001,1.2301269766470087
108,674.55,1.2257120855540966
109,685.51,1.1952858472842998
110,695.05,1.2020590990093123
111,704.72,1.1659598741855042
112,716.17,1.1831645858470756
113,724.43596,1.175298782922554
114,726.13,1.1744093589721
115,734.5400000000001,1.1698194485111337
116,744.76,1.1580474893064878
117,755.12,1.149684419701778
118,765.62,1.1247635396970046
119,774.49,1.137075952207258
120,785.26,1.1154826378595049
121,794.35,1.1214298483125151
122,805.4,1.1179554131646348
123,814.73,1.1127038486461074
124,824.1600000000001,1.1100441195561062
125,831.763771,1.0761970192559716
126,835.63,1.060186606026807
127,845.31,1.0949274738931818
128,855.09,1.0880424036176803
129,864.9999999999999,1.0919204437577401
130,875.01,1.0889272457559231
131,885.14,1.0853867419838545
132,895.39,1.0818774324415346
133,905.76,1.072954717128963
134,914.14,1.06287568083973
135,924.73,1.3923877216150307
136,935.44,1.7447385566200795
137,944.09,2.11688075734778
138,954.992586,2.3733769018834074
139,955.02,2.374022392273835
140,966.08,2.5434924997228503
141,975.0200000000001,1.454215919668076
142,984.0400000000001,2.258078656122879
143,995.4399999999999,2.2304442587375966
144,1004.65,2.6321286719026444
145,1013.9399999999999,2.6638312015772696
146,1025.68,2.000888299357689
147,1035.18,2.4168051348699535
148,1044.75,3.140733072328098
149,1054.4199999999998,3.081722155423214
150,1064.18,2.7293933695916035
151,1074.02,2.9665787002695705
152,1083.96,2.6693901765845083
153,1093.99,3.06279078397272
154,1096.4782,3.043030674450968
155,1104.11,2.98366543493989
156,1114.3300000000002,2.943851744967759
157,1124.6399999999999,2.708334843440101
158,1135.05,3.1057143735174124
159,1145.55,2.974855692039196
160,1156.1499999999999,3.0278564421659486
161,1164.16,3.033222613723995
162,1174.94,2.323963940739693
163,1185.81,2.9616130561998633
164,1194.03,2.5678987341283452
165,1205.07,2.266085783316963
166,1216.22,1.8885759072710475
167,1224.66,2.531547734730462
168,1235.99,3.0257764355734915
169,1244.55,3.148742980958869
170,1256.07,3.0865989018513407
171,1258.92541,3.0393155391409574
172,1264.78,2.9436047427610745
173,1273.54,3.304784500826476
174,1285.3300000000002,3.3833621546610737
175,1294.24,2.9789662442001976
176,1306.2099999999998,2.9955834958032628
177,1315.27,3.3743359168161096
178,1324.38,3.271686114986863
179,1333.56,3.086969601178688
180,1345.8999999999999,3.3516208037502686
181,1355.23,3.287751621415816
182,1364.63,3.0887187271024334
183,1374.0900000000001,3.1264123653785405
184,1383.6100000000001,3.133715536244136
185,1396.4099999999999,2.6058524886684666
186,1406.0900000000001,2.5957837464393667
187,1415.84,2.996277292231337
188,1425.6499999999999,2.967666370612797
189,1435.53,3.033517737015327
190,1442.16,3.103020588153867
191,1445.43977,3.1134356393376748
192,1445.49,3.1136031022865556
193,1455.5100000000002,3.042665010066449
194,1465.59,2.9094099532222697
195,1475.7500000000002,2.9287576102126605
196,1485.98,2.9600416418083
197,1496.2800000000002,2.962132048009188
198,1506.6599999999999,2.848877168044647
199,1513.61,2.661997932422916
200,1517.1000000000001,2.7619103234560325
201,1524.1,2.7269647839809084
202,1534.6699999999998,2.4456183493734702
203,1545.3,2.3719929501419603
204,1556.02,2.340784603974341
205,1566.8000000000002,2.5012302931826493
206,1574.03,2.629522555981914
207,1584.94,2.6939956551713986
208,1595.93,2.7168264681954533
209,1603.3,2.6712344802052153
210,1614.41,2.6565583639811248
211,1625.6000000000001,2.605393961591604
212,1636.87,2.712697273036654
213,1644.42,2.720790391174199
214,1655.8200000000002,2.6520231126004243
215,1659.58691,2.7041431185503213
216,1663.47,2.7582965296524677
217,1671.14,2.5796999825314377
218,1678.8600000000001,2.8163376156768947
219,1686.6100000000001,2.8314575569822433
220,1694.39,2.728274806447483
221,1706.1399999999999,2.665406169071721
222,1714.01,2.5533183430166355
223,1725.8899999999999,2.5299043743337375
224,1733.8600000000001,2.647614908811625
225,1745.8799999999999,2.607356044874888
226,1753.94,2.68018250383245
227,1766.09,2.581264308588577
228,1774.25,2.563531128079111
229,1786.54,2.6074840375813992
230,1794.79,2.6751027815516086
231,1803.07,2.68393283368171
232,1815.57,2.5221399003032396
233,1823.95,2.566419312966313
234,1836.6,2.516723920387301
235,1845.07,2.3761292575300494
236,1853.59,2.3787607749392836
237,1866.44,2.4142241034262164
238,1875.05,2.527406545315126
239,1883.71,2.3614511674705216
240,1896.7700000000002,2.2785296530766956
241,1905.46072,2.40336270486325
242,1905.52,2.40421826064831
243,1914.32,2.3163108256332134
244,1923.15,2.254671753907838
245,1936.4799999999998,2.3548031756406522
246,1945.4199999999998,2.401554435977588
247,1954.4,2.2488001807008193
248,1967.95,2.3973032665582563
249,1977.03,2.460269222247225
250,1986.1599999999999,2.3551327834190623
251,1995.33,2.3058588289771946
252,2004.54,2.370935358921622
253,2013.79,2.330756373252344
254,2023.08,2.4017008719693616
255,2037.1100000000001,2.2792947704623385
256,2046.51,2.3151046012416674
257,2055.96,2.132072037503865
258,2065.4500000000003,2.2008299581523576
259,2074.98,2.367453363187145
260,2079.7599999999998,2.243560247349399
261,2084.56,2.3126983737048015
262,2094.18,2.2179328686087527
263,2103.85,2.2528099689955727
264,2113.56,2.2695295537686877
265,2123.31,2.2818216229280983
266,2133.11,2.215228297570377
267,2142.96,2.195224577695525
268,2152.85,2.2575713422069676
269,2162.79,2.2096507122012787
270,2172.77,2.2031695665818853
271,2182.8,2.156436026445361
272,2187.7616199999998,2.1843629723230698
273,2192.87,2.213426424298725
274,2203.0,2.18486172963524
275,2213.1600000000003,2.125895221463373
276,2223.38,2.085588086274743
277,2233.64,2.1320098664082714
278,2243.9500000000003,2.091546290694497
279,2254.31,2.04346735913342
280,2264.7200000000003,2.0723340717250407
281,2275.17,2.0847886996388194
282,2285.67,2.0929729717052954
283,2296.22,2.0039068879244692
284,2306.82,2.0158624482963403
285,2317.4700000000003,1.970290652820909
286,2322.81,1.7361388483290026
287,2333.53,1.9059601546673477
288,2344.3,1.8937341051583907
289,2355.12,1.9284956998021308
290,2365.9900000000002,1.8733939385985683
291,2376.92,1.8728585503782433
292,2382.4,1.8122459495138896
293,2393.39,1.8643509342768014
294,2404.44,1.8222052920229501
295,2415.54,1.8329242939217965
296,2426.69,1.8588389399733403
297,2432.28,1.8133603562449212
298,2443.51,1.854175832940781
299,2454.79,1.8346729537893385
300,2466.12,1.8227717187905932
301,2477.5,1.7887511279445452
302,2483.21,1.8069712901826005
303,2494.67,1.6338535299808687
304,2506.1899999999996,1.798257142762374
305,2511.88643,1.712635526605418
306,2511.9700000000003,1.7113821148195338
307,2517.76,1.7684397270730887
308,2523.5600000000004,1.7323213921975473
309,2535.21,1.7320829868009868
310,2546.91,1.7035578457589473
311,2552.78,1.7388238809797358
312,2564.5699999999997,1.7242242157758345
313,2576.3999999999996,1.75988876205555
314,2582.34,1.7452981673726684
315,2594.2599999999998,1.734261189490522
316,2606.2400000000002,1.705545528833801
317,2612.2400000000002,1.691423251376345
318,2624.3,1.705108013686858
319,2636.4100000000003,1.7083940403518922
320,2642.4900000000002,1.74388518586167
321,2654.69,1.7400276883648425
322,2666.94,1.676103455222536
323,2673.09,1.6969139708286434
324,2685.43,1.6930522135244754
325,2697.82,1.6547097205748282
326,2704.04,1.6579296062772655
327,2716.5299999999997,1.6304226420366608
328,2722.79,1.6302297392227147
329,2735.36,1.6468671979493439
330,2747.98,1.5765709210304946
331,2754.32,1.5763594411837825
332,2767.0299999999997,1.585779640103071
333,2773.41,1.6120423717399759
334,2786.21,1.5918130464974027
335,2792.6299999999997,1.4747849896179246
336,2805.5200000000004,1.5173911402134896
337,2811.99,1.5877083476885328
338,2824.97,1.5873499741222359
339,2838.01,1.5415739177813643
340,2844.55,1.531838495352737
341,2857.6800000000003,1.5219629148500038
342,2864.27,1.5503427567758978
343,2877.49,1.5339486521113026
344,2884.0315,1.5337257215499627
345,2884.12,1.5337251678423973
346,2897.44,1.5210191921523124
347,2910.81,1.5400188719588865
348,2930.99,1.5176630304103949
349,2951.3,1.4926204931532163
350,2971.7599999999998,1.4893409223860141
351,2992.36,1.4738549870094566
352,3013.1000000000004,1.464546687023544
353,3027.0099999999998,1.4553762461940336
354,3047.99,1.4431158925920833
355,3069.1200000000003,1.4310015054801097
356,3090.39,1.4160307537587808
357,3111.81,1.4070709685274285
358,3133.39,1.3865194808853842
359,3147.85,1.3805612505191212
360,3169.67,1.3632477092610396
361,3191.64,1.3322191344929344
362,3206.37,1.334725843808629
363,3228.6,1.3151678776231497
364,3250.98,1.3176298779276472
365,3273.51,1.311843844722121
366,3288.62,1.3007751358124229
367,3311.31121,1.2897051160320312
368,3311.42,1.2896541648555846
369,3319.05,1.3167976601238107
370,3326.7000000000003,1.3279262078042733
371,3334.37,1.3196358078969725
372,3342.06,1.2710844604019083
373,3349.7599999999998,1.314233639112962
374,3357.48,1.2579938702362525
375,3365.22,1.2580271537717793
376,3372.98,1.2450564897195429
377,3380.7599999999998,1.2528478780795427
378,3388.55,1.2872727926456609
379,3396.36,1.2819067596240155
380,3404.19,1.2450837790146068
381,3412.04,1.2424888508174343
382,3419.9,1.2555924488263803
383,3427.79,1.266071625453681
384,3435.69,1.2634803282870999
385,3443.6099999999997,1.2297420835327553
386,3451.5499999999997,1.2582878911906472
387,3459.5,1.2144892250546575
388,3467.48,1.2119671375370225
389,3475.47,1.2170575762255056
390,3483.48,1.1969450673262252
391,3491.52,1.2297651370452998
392,3499.56,1.2044262067643743
393,3507.63,1.1944548551018033
394,3515.72,1.1820985558514692
395,3523.8199999999997,1.2044657828072531
396,3531.94,1.1944910621752736
397,3540.09,1.209478920161649
398,3548.25,1.2247833043541423
399,3556.43,1.2094957409588725
400,3564.62,1.2120447037697206
401,3572.8399999999997,1.1919992451989234
402,3576.45,0.9571664056076125
403,3579.1499999999996,1.0630768812595404
404,3581.85,1.2231163569114682
405,3584.55,0.8790290325633965
406,3587.25,0.5338881082153244
407,3589.9500000000003,0.9300566838672524
408,3592.65,1.7361526595191805
409,3595.35,1.6143737351711085
410,3598.0499999999997,1.5311908108230363
411,3600.75,1.0423194864749643
412,3603.4500000000003,0.9731635621268923
413,3606.15,1.1562650377788204
414,3608.85,1.1874411134307483
415,3611.55,1.2196471890826763
416,3614.25,0.7764490647346043
417,3616.95,1.4924123403865324
418,3619.6499999999996,1.2124484160384603
419,3622.35,0.9776566916903884
420,3625.05,1.3202115673423163
421,3627.75,1.1260766429942441
422,3630.4500000000003,1.271294718646172
423,3633.15,1.1299417942981003
424,3635.85,1.1872708699500283
425,3638.5499999999997,0.5845632456019562
426,3641.2499999999995,0.5812018212538842
427,3643.9500000000003,1.2992650969058122
428,3646.65,1.30246517255774
429,3649.35,1.3952202482096683
430,3652.05,1.1896723238615963
431,3654.75,0.9841253995135242
432,3657.45,1.191318475165452
433,3660.1499999999996,0.8532396508173802
434,3662.8500000000004,1.293692626469308
435,3665.55,1.244904702121236
436,3668.25,1.3549357777731643
437,3670.9500000000003,1.447531853425092
438,3673.65,1.3218699290770202
439,3676.35,0.8680922047289481
440,3679.0499999999997,1.394842080380876
441,3681.7499999999995,1.017716156032804
442,3684.4500000000003,0.997933931684732
443,3687.15,1.1607463073366602
444,3689.85,1.303983382988588
445,3692.55,0.952297558640516
446,3695.25,1.185722534292444
447,3697.95,0.9625027099443719
448,3700.6499999999996,0.9043629855963
449,3703.3500000000004,1.0082123612482279
450,3706.05,1.0115715369001559
451,3708.75,1.032999912552084
452,3711.45,1.021142888204012
453,3714.15,1.4891510638559398
454,3716.85,1.517237139507868
455,3719.5499999999997,2.2065942151597957
456,3722.2499999999995,4.8439442908117245
457,3724.9500000000003,7.224204366463652
458,3727.65,9.083307442115581
459,3730.35,7.702306517767508
460,3733.05,4.400576593419436
461,3735.75,2.476071669071364
462,3738.45,1.458042744723292
463,3741.1499999999996,1.1862418203752199
464,3743.8500000000004,0.9336194960271479
465,3746.55,1.129479971679076
466,3749.25,1.1704040473310038
467,3751.95,1.1197131229829318
468,3754.65,1.0406514986348596
469,3757.35,1.0818132742867879
470,3760.0499999999997,1.2909083499387157
471,3762.7500000000005,1.4740884255906437
472,3765.4500000000003,1.3523095012425719
473,3768.15,1.2106395768944997
474,3770.85,1.0978160525464278
475,3773.55,1.3755427281983557
476,3776.25,1.3069418038502838
477,3778.95,1.2072738795022118
478,3781.6499999999996,1.3495599551541395
479,3784.3500000000004,1.4106140308060677
480,3787.05,1.5166821064579956
481,3789.75,1.4445151821099236
482,3792.45,1.2644082577618518
483,3795.15,1.3585893334137797
484,3797.85,1.2223074090657076
485,3800.5499999999997,1.1528354847176356
486,3801.8939600000003,1.168550894641033
487,3803.2500000000005,1.1844261943036742
488,3805.9500000000003,1.2242773718273012
489,3808.65,1.197083549350928
490,3811.35,1.347251726874555
491,3814.0499999999997,1.326713904398182
492,3816.75,1.446609081921809
493,3819.44,1.4514395958249777
494,3822.14,1.375267773348605
495,3824.8399999999997,1.3391959508722318
496,3827.54,1.5293881283958588
497,3830.24,1.4110543059194856
498,3832.94,1.2830514834431126
499,3835.6400000000003,1.0553506609667396
500,3838.34,1.0274424384903664
501,3841.04,1.2926850160139933
502,3843.74,1.2284801935376204
503,3846.44,1.169980371061247
504,3849.14,1.1793205485848741
505,3851.84,1.181528726108501
506,3854.54,1.376315903632128
507,3857.2400000000002,1.281282081155755
508,3859.94,1.3434032586793818
509,3862.64,1.4724134362030088
510,3865.3399999999997,1.6097446137266358
511,3868.04,1.9042307912502625
512,3870.74,1.6867529687738894
513,3873.44,1.4352771462975165
514,3876.1400000000003,1.4702153238211433
515,3878.84,1.1582705013447705
516,3881.54,1.1849666788683972
517,3884.24,1.402737856392024
518,3886.94,1.5881740339156512
519,3889.64,1.5295952114392781
520,3892.34,1.4454193889629052
521,3895.04,1.443267566486532
522,3897.7400000000002,1.4184507440101588
523,3900.44,1.2584299215337857
524,3903.14,1.3108830990574127
525,3905.8399999999997,1.4256272765810396
526,3908.54,1.4263284541046666
527,3911.2400000000002,1.6278536316282934
528,3913.94,1.5729208091519202
529,3916.6400000000003,1.7409209866755475
530,3919.34,1.5109221641991744
531,3922.04,1.3892603417228013
532,3924.74,1.283606519246428
533,3927.4399999999996,1.157427696770055
534,3930.14,1.205124874293682
535,3932.84,1.2464030518173088
536,3935.54,1.155332229340936
537,3938.2400000000002,1.0877188068645627
538,3940.94,1.2092785843881897
539,3943.64,1.1455487619118168
540,3946.3399999999997,1.2189239394354436
541,3949.04,1.1635951169590704
542,3951.7400000000002,1.4487292944826975
543,3954.44,1.3989474720063244
544,3957.1400000000003,1.3596276495299513
545,3959.84,1.2523888270535783
546,3962.54,1.1823190045772052
547,3965.24,1.3966031821008322
548,3967.9399999999996,1.5191933596244591
549,3970.64,1.4009385371480858
550,3973.34,1.481128714671713
551,3976.04,1.3052588921953399
552,3978.7400000000002,1.2384390697189667
553,3981.44,1.1655162472425937
554,3984.14,1.3354984247662205
555,3986.8399999999997,1.2318256022898477
556,3989.54,1.2669227798134746
557,3992.2400000000002,1.1537399573371012
558,3994.94,1.2451051348607285
559,3997.64,1.2227453123843552
560,4000.34,1.311018489907982
561,4003.04,1.3833636674316092
562,4005.74,1.259006844955236
563,4008.4399999999996,1.272944022478863
564,4011.1400000000003,1.3576512000024898
565,4013.84,1.3115153775261168
566,4016.54,1.3817995550497437
567,4019.2400000000002,1.1581417325733707
568,4021.94,1.3754359100969975
569,4024.64,1.7437830876206246
570,4027.3399999999997,1.5256722651442514
571,4030.0399999999995,1.4673324426678784
572,4032.7400000000002,1.7258376201915053
573,4035.44,1.4412357977151322
574,4038.14,1.4171319752387592
575,4040.84,1.3687771527623862
576,4043.54,1.375422330286013
577,4046.24,1.30313350780964
578,4048.9399999999996,1.4878566853332669
579,4051.6400000000003,1.1628358628568938
580,4054.34,1.3370970403805207
581,4057.04,1.3494492179041477
582,4059.7400000000002,1.1211153954277746
583,4062.44,1.0446263729514016
584,4065.14,1.2478937504750285
585,4067.8399999999997,1.4561539279986555
586,4070.5400000000004,1.2992251055222823
587,4073.23,1.3835436194254513
588,4075.93,1.2230477969490783
589,4078.6299999999997,1.1452109744727053
590,4081.3300000000004,1.3498261519963322
591,4084.03,1.148674329519959
592,4086.73,1.140500507043586
593,4089.43,1.1805896845672128
594,4092.13,1.1091728620908399
595,4094.83,1.2236000396144668
596,4097.53,1.5167392171380936
597,4100.2300000000005,1.5429593946617208
598,4102.93,1.6234675721853475
