,lambda (Angstroms),Total Flux (erg/s/cm^2/Angstrom)
0,102.00000000000001,0.03990332394806492
1,103.9,0.04670755695949398
2,104.712855,0.04961853318297509
3,106.07000000000001,0.045563300051196805
4,108.05,0.03964693768725597
5,110.05,0.033670814088227176
6,113.91999999999999,0.02210701492547744
7,117.92,0.01015476773277094
8,120.22644299999999,0.0032629735628488745
9,120.95,0.0031629328960084088
10,124.91,0.002615414101001042
11,126.94,0.002334741597040586
12,128.12,0.0021715920673752685
13,131.1,0.0017595703939132683
14,132.01,0.001633751758278406
15,133.85,0.0013793491570799382
16,136.96,0.0009493535949287688
17,138.038426,0.0008002479965318294
18,140.15,0.000789937168946877
19,143.09,0.0007755837209661366
20,147.10000000000002,0.0007560122161670279
21,150.87,0.0007376082221930207
22,155.1,0.000716960090796986
23,158.489319,0.000700418229657242
24,159.07999999999998,0.0006959879756898971
25,162.02999999999997,0.000673864112718569
26,166.19,0.0006426690632533059
27,170.06,0.000613653060254275
28,172.82,0.0005929642074211681
29,176.85,0.0005627575066873195
30,180.14,0.0005380999252507536
31,181.8,0.0005256659858757686
32,181.970086,0.0005243917616623863
33,186.04,0.0005342633593805329
34,190.81,0.0005458536967825154
35,193.91,0.0005533941614347471
36,197.97,0.000563278487676057
37,202.12,0.000573399113047593
38,204.93,0.0005802697002468742
39,208.929613,0.0005900277122485919
40,210.19,0.0006085395733734454
41,216.07999999999998,0.0006951826488366984
42,220.09,0.0007541835355454669
43,223.15,0.0007992033336150008
44,226.78,0.0008526962296680753
45,229.94,0.0009001777978575285
46,234.21,0.0009652438202780873
47,239.88329199999998,0.00105069778112924
48,240.22000000000003,0.0010467658272202752
49,245.80999999999997,0.0009801330082684168
50,252.11999999999998,0.0009059937740919891
51,256.81,0.0008489234176708405
52,259.78000000000003,0.0008154501606194946
53,264.0,0.0007663977958866068
54,268.91,0.0007088416093135066
55,273.90999999999997,0.0006502829785873365
56,275.42287,0.0006326159368897216
57,279.0,0.0006801746345373408
58,284.19,0.0007492614375210054
59,290.14000000000004,0.0008275929680128758
60,296.21000000000004,0.0009092295681113041
61,301.03000000000003,0.0009736933123080792
62,308.04,0.001068317509324551
63,316.227766,0.0011794186588381852
64,318.13,0.0011627340457674407
65,327.79999999999995,0.0010781336133394207
66,337.76,0.0009910283239616456
67,348.02,0.0009013918253255042
68,356.95,0.0008243620937347882
69,363.078055,0.0007719577518690937
70,366.09999999999997,0.000796935038396614
71,374.63000000000005,0.0008676028250048478
72,385.13,0.0009511818056245949
73,395.01,0.0010364448341696525
74,405.14,0.001122299106777085
75,413.62,0.001193520412572843
76,416.86938299999997,0.0012200781138883964
77,422.28000000000003,0.0012483454519196765
78,430.14,0.0012907822251914734
79,441.17,0.0013523312427726347
80,451.45,0.0014072862968736624
81,459.84,0.0014526416990047542
82,469.47,0.0015058754780896664
83,478.630092,0.001556540616656813
84,480.4,0.0015482381989806767
85,490.46,0.0014968636176854032
86,499.58000000000004,0.0014584797563123519
87,506.53,0.0014206286632703889
88,512.4,0.0014041768590752344
89,519.52,0.0013716066251962733
90,530.4,0.0013172381116284232
91,540.26,0.0012638579430825586
92,549.5408739999999,0.0012213698334967832
93,550.31,0.001220857265653003
94,560.54,0.0012209228110771132
95,569.65,0.0012231875159464819
96,580.24,0.0012091715744060446
97,589.67,0.0012102570908624822
98,600.63,0.0011929089877195933
99,610.39,0.001158408441125196
100,620.3100000000001,0.0011964476003243328
101,630.38,0.0011892454399549085
102,630.957344,0.0011890460054061712
103,640.63,0.001228570586624686
104,649.54,0.0012688785083748125
105,658.58,0.001301252174662259
106,664.67,0.0013370475841413018
107,675.4699999999999,0.0013763847226263039
108,684.8700000000001,0.0013977461968632506
109,694.39,0.0014785142737500302
110,705.6800000000001,0.001496980464721852
111,715.49,0.0015776488563457288
112,724.43596,0.0016186163411951436
113,725.4499999999999,0.0016221480550739885
114,735.54,0.0016564068773481508
115,745.7700000000001,0.0017117736586033227
116,754.41,0.0017554886128598895
117,764.9,0.0017666157607940784
118,775.54,0.001858913543350777
119,784.52,0.0019026794694183666
120,795.44,0.001959304969937083
121,804.65,0.002010204935759188
122,815.84,0.0020609813785984225
123,825.2900000000001,0.002143686759816543
124,831.763771,0.0020673518060451454
125,834.84,0.0020169178266482976
126,844.51,0.0021717754539962554
127,854.2900000000001,0.002170442148046206
128,864.18,0.0022151177087981503
129,874.1899999999999,0.002262059578679542
130,884.31,0.0023319613152629265
131,894.5500000000001,0.0023747263609757586
132,904.91,0.002339890715818038
133,915.39,0.0030975903797897646
134,925.99,0.015686186352890936
135,934.56,0.03371826151321896
136,945.38,0.06626150621972413
137,954.13,0.10064699334374633
138,954.992586,0.10090329002469553
139,965.1700000000001,0.10395430478708367
140,974.0999999999999,0.01525161054648834
141,985.38,0.07426372413731529
142,994.5,0.09211604512564345
143,1006.02,0.15915552900563693
144,1015.3299999999999,0.1630040852228886
145,1024.72,0.07364150153652912
146,1034.2,0.10355807295860708
147,1046.18,0.23460819739283642
148,1055.86,0.2347974690558865
149,1065.63,0.169266395827374
150,1075.49,0.21799307770729898
151,1085.44,0.1578720146956614
152,1095.48,0.24091700679246125
153,1096.4782,0.24023288955787495
154,1105.62,0.23395783727933483
155,1115.8500000000001,0.21899276683261532
156,1126.1699999999998,0.19355465588343201
157,1133.98,0.2773076633918504
158,1144.47,0.24844268704912434
159,1155.06,0.2774937545925496
160,1165.75,0.28861136602212617
161,1173.83,0.1829797520231532
162,1184.69,0.28570769805918705
163,1195.65,0.17044338798137215
164,1203.94,0.10861694614331696
165,1215.0800000000002,0.0931584450605745
166,1226.32,0.20035500786398336
167,1234.82,0.33791503818684593
168,1246.25,0.3772665943739423
169,1254.8899999999999,0.35247430613741676
170,1258.92541,0.3241923522737846
171,1263.59,0.2915086242725069
172,1275.28,0.41528182236237926
173,1284.12,0.44741360398038366
174,1296.0,0.3167568231683805
175,1304.99,0.314120421442799
176,1314.03,0.4377702252693555
177,1326.1899999999998,0.41691637554932537
178,1335.3799999999999,0.347894796032296
179,1344.64,0.4608695242882599
180,1353.9599999999998,0.44654845920678937
181,1366.49,0.3824958505725807
182,1375.96,0.4166799021475243
183,1385.5,0.4236480614954612
184,1395.1,0.36668982750596374
185,1404.77,0.38408370128945946
186,1414.51,0.38866618284594845
187,1424.31,0.41368877106500307
188,1434.1899999999998,0.4090835681674786
189,1440.81,0.4420710032705543
190,1445.43977,0.45121667072472565
191,1447.46,0.45520740565247125
192,1454.1399999999999,0.4384913282087605
193,1464.22,0.39541746763501734
194,1474.3700000000001,0.39912051358506756
195,1484.5900000000001,0.4160086660589113
196,1494.88,0.4296252250565485
197,1505.24,0.4000298905779791
198,1512.1899999999998,0.3434311382974716
199,1515.67,0.3802708626232032
200,1526.18,0.36228934212419117
201,1536.76,0.3027465281489727
202,1543.85,0.3544722889160521
203,1554.5500000000002,0.3330326861244795
204,1565.3300000000002,0.33675999078867075
205,1576.18,0.36400180197665555
206,1583.45,0.3931928795192039
207,1594.43,0.40308080282280506
208,1605.48,0.3982615326501997
209,1616.61,0.4044728699333583
210,1624.07,0.376186465183346
211,1635.3300000000002,0.41024841458212097
212,1646.67,0.41853217143665983
213,1654.27,0.3803808797342344
214,1659.58691,0.40126026840560486
215,1665.73,0.42538765624531005
216,1673.4199999999998,0.3633135900639396
217,1677.28,0.42794911718226336
218,1685.0200000000002,0.459973285030923
219,1696.6999999999998,0.4259429344459546
220,1704.53,0.40526596354866845
221,1716.3500000000001,0.37610660824778436
222,1724.27,0.37638139860455233
223,1736.22,0.4102541317817465
224,1744.24,0.4011961901985747
225,1756.3300000000002,0.4382631186598531
226,1764.4299999999998,0.39180953152472947
227,1776.6599999999999,0.40402335527009225
228,1784.8700000000001,0.4155501430010348
229,1793.1,0.4558062443439894
230,1805.53,0.4529889042094726
231,1813.87,0.40769718041849345
232,1826.44,0.4203046355680608
233,1834.8700000000001,0.4006267730311359
234,1843.34,0.36135573771823504
235,1856.12,0.35900083579392883
236,1864.69,0.37598876854108815
237,1873.29,0.42184762170626555
238,1886.28,0.37958196270808575
239,1894.98,0.36424128393332333
240,1903.7299999999998,0.39114703918859106
241,1905.46072,0.388506128810998
242,1916.93,0.3709872550982683
243,1925.77,0.36671659975081256
244,1934.66,0.38042590053826947
245,1943.5900000000001,0.3991535662336564
246,1957.07,0.3698791402060882
247,1966.1000000000001,0.4167495181713003
248,1975.17,0.4302409610444424
249,1984.29,0.4023575600524972
250,1993.45,0.389461523968482
251,2007.27,0.4037731996583193
252,2016.53,0.3836678758441293
253,2025.84,0.40897240816485186
254,2035.19,0.38148360539350445
255,2044.59,0.4037901587570697
256,2054.02,0.3827322858015824
257,2063.5,0.38157906898100774
258,2073.0299999999997,0.4151436082953457
259,2077.81,0.3945029147929884
260,2087.4,0.41461790146922134
261,2097.03,0.38751875305338446
262,2106.71,0.38804766077246006
263,2116.44,0.3930553246264483
264,2126.21,0.39901615338836666
265,2136.02,0.362708547058215
266,2145.88,0.37846259686297595
267,2155.79,0.3957996028026494
268,2165.74,0.38014747365025303
269,2175.73,0.3753158094057867
270,2185.7799999999997,0.36880219252321544
271,2187.7616199999998,0.37263223478916757
272,2195.86,0.38829741858696964
273,2206.0,0.3745871111734364
274,2216.1800000000003,0.349891431738548
275,2226.41,0.3367648872769657
276,2236.69,0.3672037777886894
277,2247.01,0.34952339627905793
278,2257.38,0.3294061497427325
279,2262.5899999999997,0.3410784939612228
280,2273.03,0.3556791963875259
281,2283.52,0.371768733787135
282,2294.06,0.34877500616005014
283,2304.65,0.35058631350627134
284,2315.29,0.32891015582579863
285,2325.98,0.24130743311863193
286,2336.71,0.29966343839011006
287,2347.5,0.2896565856295555
288,2352.91,0.32428086974127
289,2363.77,0.28991196594334384
290,2374.6800000000003,0.3030279971187238
291,2385.64,0.27720996326740976
292,2396.66,0.303357471384063
293,2407.7200000000003,0.28923590747936107
294,2413.27,0.3015442895163325
295,2424.41,0.3300077815689203
296,2435.6,0.317541908594814
297,2446.84,0.34276687059401395
298,2452.48,0.3397252155829362
299,2463.7999999999997,0.33602943353942577
300,2475.17,0.32185938646922135
301,2486.6,0.32954058136698416
302,2492.33,0.3126596893078574
303,2503.8300000000004,0.3590816331682487
304,2511.88643,0.32251288816791823
305,2515.3900000000003,0.306606519910333
306,2527.0,0.30187647694628317
307,2532.83,0.31256909869646315
308,2544.52,0.30703683407546895
309,2556.26,0.34618755591888456
310,2562.16,0.32922645871923817
311,2573.98,0.35780245890570944
312,2585.8599999999997,0.3506875428494724
313,2597.8,0.3444927105505271
314,2603.7900000000004,0.32985038898681834
315,2615.81,0.32477813503092867
316,2627.88,0.3489446675394488
317,2633.94,0.3774233270259137
318,2646.1,0.42656193517037144
319,2652.2000000000003,0.4560874838283642
320,2664.44,0.3858455703158775
321,2676.7400000000002,0.4145902405606826
322,2682.91,0.41948647026884905
323,2695.29,0.3917577188567098
324,2707.73,0.4151683512018623
325,2713.97,0.38054546196020245
326,2726.5,0.3746697699412925
327,2732.79,0.40339246716404237
328,2745.4,0.3297140534881881
329,2758.07,0.3454016235696255
330,2764.43,0.3684715018425491
331,2777.19,0.39139454755992414
332,2783.59,0.35711381500437556
333,2796.44,0.2749545363576882
334,2802.8900000000003,0.3001435902665494
335,2815.82,0.3884868899629177
336,2822.31,0.4309520330433067
337,2835.34,0.4156209056684945
338,2841.88,0.3961523352132933
339,2854.9999999999995,0.36571768347441874
340,2868.17,0.44287641819995394
341,2874.79,0.4628033260878084
342,2884.0315,0.4534792452435812
343,2888.0499999999997,0.4494259020414618
344,2894.7099999999996,0.45895386514387576
345,2908.0699999999997,0.5283912911270966
346,2928.23,0.4993216794371064
347,2948.5299999999997,0.49064666697149134
348,2968.9700000000003,0.5118435537302514
349,2989.55,0.5170350397133864
350,3010.27,0.5319706249208964
351,3031.14,0.5385965092973799
352,3052.15,0.5440545928982383
353,3073.2999999999997,0.5572099757234718
354,3087.49,0.5679062971083448
355,3108.8900000000003,0.5816469785485339
356,3130.44,0.5728527591576962
357,3152.14,0.5760195389358317
358,3166.6899999999996,0.5897849583262406
359,3188.64,0.5471724367193317
360,3210.7400000000002,0.585421914281396
361,3232.9999999999995,0.5381557909570319
362,3247.92,0.6153432082975749
363,3270.44,0.6614117835327644
364,3293.1,0.654446057992329
365,3308.3,0.6533243737816222
366,3311.31121,0.6528102442293491
367,3323.58,0.6507142577499183
368,3331.24,0.6660634465033461
369,3338.92,0.6133153331386366
370,3346.6099999999997,0.6819721187148587
371,3354.33,0.6530027011138747
372,3362.06,0.5971596824538221
373,3369.81,0.6519040616756323
374,3377.58,0.6343361387793051
375,3385.36,0.6508082148239094
376,3393.1699999999996,0.6943201876913078
377,3400.99,0.7527668594996374
378,3408.83,0.6727085291898299
379,3416.69,0.6606457967618852
380,3424.57,0.726205762215803
381,3432.46,0.7553945266106523
382,3440.37,0.7117593888873643
383,3448.3,0.6361339490459391
384,3456.25,0.6695369070863766
385,3464.2200000000003,0.6238019630086769
386,3472.21,0.7148979168128399
387,3480.21,0.6405142695579342
388,3488.23,0.6850786201848913
389,3496.2700000000004,0.6714335686937111
390,3504.33,0.7298325150843936
391,3512.4100000000003,0.6990104593569388
392,3520.51,0.749368501511347
393,3528.6299999999997,0.6324197415476177
394,3536.7599999999998,0.7298034805248198
395,3544.91,0.7699038173838848
396,3553.08,0.7828421521248122
397,3560.59,0.8017707567642696
398,3563.25,0.9034898750520135
399,3565.91,0.8223824933397573
400,3568.5699999999997,0.8031591116275013
401,3571.23,1.0748409299152453
402,3573.8900000000003,0.983744248202989
403,3576.55,0.8408253664907328
404,3579.21,0.7743604847784767
405,3581.87,0.5715550030662205
406,3584.53,0.7440758213539644
407,3587.19,0.4655472396417083
408,3589.85,0.5631002579294522
409,3592.5099999999998,0.7194678762171961
410,3595.1699999999996,0.7062136945049399
411,3597.8300000000004,0.9194225127926838
412,3600.4900000000002,0.8633609310804277
413,3603.15,0.8408241493681716
414,3605.81,0.5642930676559154
415,3608.47,0.7614947859436593
416,3611.13,0.7536252042314031
417,3613.7999999999997,0.6619884214600784
418,3616.46,0.8781199397478222
419,3619.12,0.7243595580355662
420,3621.78,0.50990877632331
421,3624.44,0.6909563946110538
422,3627.1,0.7665573128987977
423,3629.76,0.7353227311865417
424,3632.42,0.6553359494742854
425,3635.08,0.6659340677620293
426,3637.74,0.6960477860497731
427,3640.3999999999996,0.8950032043375171
428,3643.0600000000004,0.6439574226252609
429,3645.7200000000003,0.8056361409130048
430,3648.38,0.6020999592007487
431,3651.04,0.6918563774884926
432,3653.7,0.7646556957762365
433,3656.36,0.9119596140639803
434,3659.02,0.6734611323517242
435,3661.68,0.698726450639468
436,3664.3399999999997,0.8372107689272119
437,3667.0000000000005,0.6813302872149557
438,3669.6600000000003,0.7133444055026996
439,3672.32,0.7770558237904435
440,3674.98,0.7129055420781875
441,3677.64,0.7911136603659312
442,3680.3,0.8054151786536752
443,3682.96,0.869614096941419
444,3685.62,0.9577871152291628
445,3688.2799999999997,1.0241785335169067
446,3690.9500000000003,1.026220250745582
447,3693.61,0.8605454690333258
448,3696.27,0.7002555873210697
449,3698.9300000000003,0.7903287056088135
450,3701.59,0.6265302238965574
451,3704.25,0.5922744421843013
452,3706.91,0.7633574604720452
453,3709.5699999999997,0.705127678759789
454,3712.2300000000005,0.8803280970475329
455,3714.8900000000003,0.8159099153352767
456,3717.55,1.2354554336230206
457,3720.21,1.2749741519107645
458,3722.87,2.1082198701985084
459,3725.53,2.6595985884862525
460,3728.19,2.733665306773996
461,3730.85,2.41162402506174
462,3733.5099999999998,1.828448743349484
463,3736.1699999999996,1.3303284616372277
464,3738.8300000000004,1.0461481799249717
465,3741.4900000000002,0.8217315982127155
466,3744.15,0.8780853165004593
467,3746.81,0.7976597347882033
468,3749.47,0.9193574530759471
469,3752.13,0.9641141713636909
470,3754.79,0.8495789896514347
471,3757.45,0.9077599079391787
472,3760.1099999999997,1.0208089262269224
473,3762.7699999999995,1.0943146445146665
474,3765.4300000000003,0.9942760628024103
475,3768.1,1.1157730800310857
476,3770.76,1.0928467983188295
477,3773.42,1.0569095166065732
478,3776.08,0.9659840348943171
479,3778.74,0.884754653182061
480,3781.3999999999996,1.0381256714698048
481,3784.0600000000004,1.2763553897575488
482,3786.7200000000003,1.1951991080452926
483,3789.38,1.0202178263330366
484,3792.04,0.8570524446207805
485,3794.7,0.9686632629085242
486,3797.36,0.9557014811962682
487,3800.02,0.893865899484012
488,3801.8939600000003,0.9875825815180574
489,3802.68,1.0268924351172661
490,3805.3399999999997,1.1915682121031133
491,3808.0000000000005,1.1225449890889603
492,3810.6600000000003,1.1771447660748073
493,3813.32,1.1841855430606545
494,3815.98,1.1471773200465016
495,3818.64,1.1717360970323487
496,3821.3,1.0796888740181958
497,3823.96,0.886288151004043
498,3826.62,0.7620318279898901
499,3829.2799999999997,0.8006730049757372
500,3831.9399999999996,0.7240483819615843
501,3834.6000000000004,0.7649308589474315
502,3837.26,0.8302263359332785
503,3839.92,0.8630202129191257
504,3842.58,0.9882751899049729
505,3845.25,1.174409866052421
506,3847.91,1.120541643038268
507,3850.5699999999997,1.244090420024115
508,3853.2300000000005,1.3783351970099622
509,3855.8900000000003,1.4339339739958095
510,3858.55,1.3503417509816564
511,3861.21,1.3205935279675036
512,3863.87,1.4334703049533506
513,3866.53,1.4870710819391977
514,3869.19,1.515309858925045
515,3871.85,1.432325635910892
516,3874.5099999999998,1.2236734128967393
517,3877.1699999999996,1.0960311898825863
518,3879.8300000000004,1.0812179668684334
519,3882.4900000000002,1.0906957438542804
520,3885.15,0.9650261208401276
521,3887.81,0.8932743978259748
522,3890.47,0.9221211748118219
523,3893.13,1.0869918517976689
524,3895.79,1.1035836287835161
525,3898.45,1.1435644057693632
526,3901.1099999999997,1.2023791827552104
527,3903.7699999999995,1.1461229597410576
528,3906.4300000000003,1.1478037367269045
529,3909.09,1.3040745137127516
530,3911.75,1.436005290698599
531,3914.41,1.332605067684446
532,3917.07,1.128994844670293
533,3919.74,1.108791620817741
534,3922.3999999999996,1.1483093978035883
535,3925.0600000000004,1.2007891747894355
536,3927.7200000000003,1.1205349517752825
537,3930.38,0.9296685287611296
538,3933.04,0.7773455057469768
539,3935.7,0.7732765827328238
540,3938.36,0.8534823597186709
541,3941.02,1.040986836704518
542,3943.68,1.1689946136903653
543,3946.3399999999997,1.2036153906762124
544,3948.9999999999995,1.2741251676620593
545,3951.6600000000003,1.2289299446479067
546,3954.32,1.1897767216337538
547,3956.98,1.1448494986196007
548,3959.64,1.248031275605448
549,3962.3,1.319636052591295
550,3964.96,1.1251638295771422
551,3967.62,1.0069986065629892
552,3970.2799999999997,0.8937793835488365
553,3972.9399999999996,0.9308368605346835
554,3975.6000000000004,1.0378679375205306
555,3978.26,1.0619877145063779
556,3980.92,1.107207491492225
557,3983.58,1.219622268478072
558,3986.24,1.311304045463919
559,3988.9,1.3469728224497661
560,3991.56,1.4069325994356132
561,3994.22,1.4614353764214605
562,3996.8900000000003,1.5160271525689084
563,3999.55,1.4827949295547556
564,4002.21,1.4075347065406028
565,4004.87,1.3662864835264499
566,4007.53,1.442448260512297
567,4010.19,1.532863037498144
568,4012.85,1.5473348144839911
569,4015.5099999999998,1.3918935914698383
570,4018.1699999999996,1.3927463684556856
571,4020.8300000000004,1.5716011454415326
572,4023.4900000000002,1.4682249224273798
573,4026.15,1.3609996994132267
574,4028.81,1.4682744763990738
575,4031.47,1.4241752533849212
576,4034.13,1.5014820303707683
577,4036.79,1.4045378073566153
578,4039.45,1.5165395843424625
579,4042.1099999999997,1.5174653613283096
