,lambda (Angstroms),Total Flux (erg/s/cm^2/Angstrom)
0,102.00000000000001,80.39724097364457
1,103.9,80.16811189806225
2,104.712855,80.07008625872942
3,106.07000000000001,79.2103838097708
4,108.05,77.95612516464627
5,110.05,76.68919724027894
6,113.91999999999999,74.23769170662956
7,117.92,71.70383585790027
8,120.22644299999999,70.24278733662067
9,120.95,69.85851125753703
10,124.91,67.75538286103576
11,126.94,66.6772640113238
12,128.12,66.05057423661904
13,131.1,64.46791700899492
14,132.01,63.98462235230052
15,133.85,63.007411178239856
16,136.96,61.35571185700435
17,138.038426,60.782967325744025
18,140.15,59.98137875261021
19,143.09,58.86530590858588
20,147.10000000000002,57.34304329381196
21,150.87,55.91188866210612
22,155.1,54.30611038977813
23,158.489319,53.01946859375992
24,159.07999999999998,52.84994484848737
25,162.02999999999997,52.00330334918355
26,166.19,50.80939533995304
27,170.06,49.69871649921914
28,172.82,48.906604462496205
29,176.85,47.750006092057596
30,180.14,46.805785588645506
31,181.8,46.32937038750889
32,181.970086,46.28055619698256
33,186.04,45.38944285803881
34,190.81,44.34504473498109
35,193.91,43.66629543864807
36,197.97,42.77735282058769
37,202.12,41.86870459517747
38,204.93,41.25345123628033
39,208.929613,40.3777304561327
40,210.19,40.17025717201
41,216.07999999999998,39.2006998261005
42,220.09,38.54061071224532
43,223.15,38.03690180907327
44,226.78,37.43936486393615
45,229.94,36.919195876031935
46,234.21,36.216310206406504
47,239.88329199999998,35.28242732665658
48,240.22000000000003,35.23971586995835
49,245.80999999999997,34.530622236531286
50,252.11999999999998,33.73019740430299
51,256.81,33.135267948820974
52,259.78000000000003,32.7585242444716
53,264.0,32.223216883955494
54,268.91,31.60038248108094
55,273.90999999999997,30.966131614213978
56,275.42287,30.774223843700014
57,279.0,30.42598404521946
58,284.19,29.920728644582827
59,290.14000000000004,29.341485068547666
60,296.21000000000004,28.750560994404324
61,301.03000000000003,28.28132603050711
62,308.04,27.598891819067962
63,316.227766,26.80180086680216
64,318.13,26.663485961616967
65,327.79999999999995,25.960362832311446
66,337.76,25.236153312588137
67,348.02,24.49013034555817
68,356.95,23.840815046660417
69,363.078055,23.395234330834224
70,366.09999999999997,23.230680177530505
71,374.63000000000005,22.76619573794923
72,385.13,22.19443539813
73,395.01,21.65644276423069
74,405.14,21.104835390175438
75,413.62,20.64307457039336
76,416.86938299999997,20.466135422532613
77,422.28000000000003,20.241142347525543
78,430.14,19.914296418178562
79,441.17,19.45563294451085
80,451.45,19.028154514868227
81,459.84,18.679269413304844
82,469.47,18.278822015310634
83,478.630092,17.89791498230783
84,480.4,17.841311315840024
85,490.46,17.519576914601792
86,499.58000000000004,17.227913361445072
87,506.53,17.00563922454033
88,512.4,16.81792104644626
89,519.52,16.590216194920398
90,530.4,16.242258115668513
91,540.26,15.926916997643373
92,549.5408739999999,15.630105161786112
93,550.31,15.611341253221315
94,560.54,15.361772924187864
95,569.65,15.139530020308811
96,580.24,14.881165144290021
97,589.67,14.651114425224
98,600.63,14.383719794170274
99,610.39,14.145582895667689
100,620.3100000000001,13.903615218871614
101,630.38,13.657942940131656
102,630.957344,13.643858008028507
103,640.63,13.456794058244265
104,649.54,13.284483363856381
105,658.58,13.10965007412434
106,664.67,12.991883669301988
107,675.4699999999999,12.783012700610612
108,684.8700000000001,12.601204721825528
109,694.39,12.417134924022765
110,705.6800000000001,12.19876474643419
111,715.49,12.009085220363694
112,724.43596,11.836079591594686
113,725.4499999999999,11.821523405994057
114,735.54,11.676684141381992
115,745.7700000000001,11.529855846643592
116,754.41,11.405845325475681
117,764.9,11.255239677516954
118,775.54,11.102561480815726
119,784.52,10.973669246698147
120,795.44,10.816935101544257
121,804.65,10.68474763175485
122,815.84,10.52413094266446
123,825.2900000000001,10.388529327287054
124,831.763771,10.295501752028324
125,834.84,10.26244923014092
126,844.51,10.158863374684024
127,854.2900000000001,10.053941237452124
128,864.18,9.947885018245227
129,874.1899999999999,9.840543693520145
130,884.31,9.732045237820062
131,894.5500000000001,9.622232273601796
132,904.91,9.511054336865348
133,915.39,9.399381563610715
134,925.99,9.2982523148379
135,934.56,9.224344585331012
136,945.38,9.140809803608198
137,954.13,9.081324428324034
138,954.992586,9.0723268173797
139,965.1700000000001,8.968525654450413
140,974.0999999999999,8.786067321814185
141,985.38,8.726651260589474
142,994.5,8.648753142365242
143,1006.02,8.594844703029366
144,1015.3299999999999,8.500948019217129
145,1024.72,8.313000279367836
146,1034.2,8.243386788976853
147,1046.18,8.248659472427915
148,1055.86,8.1472188919443
149,1065.63,7.979113060918994
150,1075.49,7.924320079352006
151,1085.44,7.759734447243329
152,1095.48,7.7373699645929666
153,1096.4782,7.726205793803338
154,1105.62,7.641358069935071
155,1115.8500000000001,7.538467379767626
156,1126.1699999999998,7.424330109921293
157,1133.98,7.440957106675177
158,1144.47,7.321931841879822
159,1155.06,7.259963132996808
160,1165.75,7.179201480026137
161,1173.83,7.0041232377433476
162,1184.69,7.0135107898236555
163,1195.65,6.804046597816305
164,1203.94,6.670968602949433
165,1215.0800000000002,6.559763141584298
166,1226.32,6.570353256131508
167,1234.82,6.634856808680552
168,1246.25,6.575968889461207
169,1254.8899999999999,6.476916840287531
170,1258.92541,6.413951022779988
171,1263.59,6.35268095834796
172,1275.28,6.404813503588282
173,1284.12,6.382770488697304
174,1296.0,6.179308664613048
175,1304.99,6.12157821078161
176,1314.03,6.189827543970022
177,1326.1899999999998,6.094452707196911
178,1335.3799999999999,5.969111401444865
179,1344.64,6.0253374175206025
180,1353.9599999999998,5.953899938020159
181,1366.49,5.813058845193918
182,1375.96,5.789207226753016
183,1385.5,5.737710730139902
184,1395.1,5.621920137950603
185,1404.77,5.580052667589091
186,1414.51,5.524944819055365
187,1424.31,5.489909374945457
188,1434.1899999999998,5.424755870067305
189,1440.81,5.417173491495101
190,1445.43977,5.397946212384408
191,1447.46,5.393295028115418
192,1454.1399999999999,5.348003976419176
193,1464.22,5.261810993021253
194,1474.3700000000001,5.222095477794179
195,1484.5900000000001,5.195265630737952
196,1494.88,5.164864751852572
197,1505.24,5.090952541138042
198,1512.1899999999998,5.004623838100783
199,1515.67,5.026577198594356
200,1526.18,4.963637148245928
201,1536.76,4.8588363660683465
202,1543.85,4.880233299372785
203,1554.5500000000002,4.813022405488084
204,1565.3300000000002,4.770636203798639
205,1576.18,4.751465070280042
206,1583.45,4.749557336023802
207,1594.43,4.712476214822494
208,1605.48,4.660388461792034
209,1616.61,4.618989100956827
210,1624.07,4.558791123164317
211,1635.3300000000002,4.5446862746463985
212,1646.67,4.504461018323736
213,1654.27,4.433799276872922
214,1659.58691,4.4319345687848575
215,1665.73,4.437653307548524
216,1673.4199999999998,4.3525350549081026
217,1677.28,4.40560353914841
218,1685.0200000000002,4.414433688376384
219,1696.6999999999998,4.345402544834106
220,1704.53,4.301261857425197
221,1716.3500000000001,4.23668217911443
222,1724.27,4.213223555068638
223,1736.22,4.211286401615705
224,1744.24,4.17819538130671
225,1756.3300000000002,4.1790328930852905
226,1764.4299999999998,4.108306495765731
227,1776.6599999999999,4.083871372775827
228,1784.8700000000001,4.070795719566741
229,1793.1,4.086389447105015
230,1805.53,4.046323831588701
231,1813.87,3.9760401032374504
232,1826.44,3.95097975295265
233,1834.8700000000001,3.906040187964515
234,1843.34,3.8413875844710987
235,1856.12,3.8007355820335698
236,1864.69,3.7920422822769475
237,1873.29,3.8121300036413652
238,1886.28,3.730937949051108
239,1894.98,3.6895264741523195
240,1903.7299999999998,3.6902116011219315
241,1905.46072,3.6823843403687313
242,1916.93,3.639694816279633
243,1925.77,3.616023767068998
244,1934.66,3.610222943258755
245,1943.5900000000001,3.609352699768825
246,1957.07,3.5504948677145975
247,1966.1000000000001,3.5775478750254526
248,1975.17,3.5711341626566218
249,1984.29,3.523235875688183
250,1993.45,3.490237169040059
251,2007.27,3.4742192697084997
252,2016.53,3.433791813861159
253,2025.84,3.438664483414211
254,2035.19,3.3906560332875775
255,2044.59,3.392333208561336
256,2054.02,3.3505801190753295
257,2063.5,3.328621954989716
258,2073.0299999999997,3.341271816304495
259,2077.81,3.310140864582001
260,2087.4,3.30920949637725
261,2097.03,3.2609762084928136
262,2106.71,3.240261246008769
263,2116.44,3.2239153089251174
264,2126.21,3.2084347521617786
265,2136.02,3.1505979757187546
266,2145.88,3.1447131246761217
267,2155.79,3.1403014990338822
268,2165.74,3.1028129537119566
269,2175.73,3.0760570887103444
270,2185.7799999999997,3.0474875941892035
271,2187.7616199999998,3.046968744092355
272,2195.86,3.0505992778627067
273,2206.0,3.0218203578033918
274,2216.1800000000003,2.981996623463764
275,2226.41,2.953667721273746
276,2236.69,2.9688299512333356
277,2247.01,2.9358134669126126
278,2257.38,2.9002858147414985
279,2262.5899999999997,2.9042158047307467
280,2273.03,2.9033020775690845
281,2283.52,2.9038028825570326
282,2294.06,2.8651461196945887
283,2304.65,2.8512200889817536
284,2315.29,2.8137322904185282
285,2325.98,2.710243624004911
286,2336.71,2.752654243310981
287,2347.5,2.7266128411965824
288,2352.91,2.7531975597842657
289,2363.77,2.702690082679319
290,2374.6800000000003,2.69959323772398
291,2385.64,2.657488024918252
292,2396.66,2.667259190692054
293,2407.7200000000003,2.636701842185542
294,2413.27,2.6407626107921303
295,2424.41,2.6526714337249944
296,2435.6,2.623576588807466
297,2446.84,2.632098276039547
298,2452.48,2.620675262515431
299,2463.7999999999997,2.6001573211868867
300,2475.17,2.5690908120079503
301,2486.6,2.559786381408545
302,2492.33,2.534390385753725
303,2503.8300000000004,2.563722680163772
304,2511.88643,2.515181625205073
305,2515.3900000000003,2.4953987449589468
306,2527.0,2.4778228606995993
307,2532.83,2.4820649006451645
308,2544.52,2.4635982790265794
309,2556.26,2.489759321558471
310,2562.16,2.466270191314703
311,2573.98,2.4817679964873567
312,2585.8599999999997,2.4615084986405833
313,2597.8,2.4421026977743803
314,2603.7900000000004,2.4208327630014703
315,2615.81,2.4024610247760303
316,2627.88,2.4132727507010676
317,2633.94,2.435046345738824
318,2646.1,2.470730567134719
319,2652.2000000000003,2.4935067934928563
320,2664.44,2.4097219775295136
321,2676.7400000000002,2.4248573585467423
322,2682.91,2.422926814715548
323,2695.29,2.381500258373539
324,2707.73,2.3911466990121024
325,2713.97,2.349619584991575
326,2726.5,2.3298801211009956
327,2732.79,2.3516432712309445
328,2745.4,2.2640125699811278
329,2758.07,2.265681465711883
330,2764.43,2.2817143456524995
331,2777.19,2.2905191368541122
332,2783.59,2.249157148115109
333,2796.44,2.15278003478758
334,2802.8900000000003,2.1708325101990535
335,2815.82,2.244869459512287
336,2822.31,2.2801537662441422
337,2835.34,2.250405643858328
338,2841.88,2.22370091474066
339,2854.9999999999995,2.1787496878257047
340,2868.17,2.2413365250612247
341,2874.79,2.2539387585843187
342,2884.0315,2.2343894544558114
343,2888.0499999999997,2.2271952415304974
344,2894.7099999999996,2.231517731855387
345,2908.0699999999997,2.2905129481827937
346,2928.23,2.245686229706784
347,2948.5299999999997,2.2211446861024693
348,2968.9700000000003,2.226365617369848
349,2989.55,2.2154717235089225
350,3010.27,2.2142125045196908
351,3031.14,2.20452634432156
352,3052.15,2.193562958995124
353,3073.2999999999997,2.190187448540382
354,3087.49,2.1897928301785488
355,3108.8900000000003,2.186807217708975
356,3130.44,2.161169464030503
357,3152.14,2.1473754691431317
358,3166.6899999999996,2.1497685718799406
359,3188.64,2.089999874977738
360,3210.7400000000002,2.110975936866636
361,3232.9999999999995,2.046311341466043
362,3247.92,2.111837249220901
363,3270.44,2.140304135724883
364,3293.1,2.115627297100559
365,3308.3,2.1026252545988062
366,3311.31121,2.0997575557248505
367,3323.58,2.0908705416827753
368,3331.24,2.101979762914561
369,3338.92,2.044980611616925
370,3346.6099999999997,2.109380824054579
371,3354.33,2.0761382276981015
372,3362.06,2.0160164950769133
373,3369.81,2.0664710899263046
374,3377.58,2.0446023122462744
375,3385.36,2.056767998301534
376,3393.1699999999996,2.095956975562663
377,3400.99,2.150075116559081
378,3408.83,2.0656771850260776
379,3416.69,2.049263780963653
380,3424.57,2.1104620043718083
381,3432.46,2.135283491515253
382,3440.37,2.087270006129277
383,3448.3,2.007255148213879
384,3456.25,2.0362576177690612
385,3464.2200000000003,1.986111114794822
386,3472.21,2.072784439291162
387,3480.21,1.9939726275227918
388,3488.23,2.0340977432250003
389,3496.2700000000004,2.016002386397788
390,3504.33,2.0699399570411545
391,3512.4100000000003,2.0346454551551
392,3520.51,2.0805199807396253
393,3528.6299999999997,1.9590766337947296
394,3536.7599999999998,2.051960250585123
395,3544.91,2.0875493948460955
396,3553.08,2.0959654665776473
397,3560.59,2.110737131780089
398,3563.25,2.210983885367106
399,3565.91,2.128404138954123
400,3568.5699999999997,2.1077083925411397
401,3571.23,2.377917846128157
402,3573.8900000000003,2.285348799715173
403,3576.55,2.14095755330219
404,3579.21,2.073020306889207
405,3581.87,1.868742460476224
406,3584.53,2.0397909140632406
407,3587.19,1.7597899676502573
408,3589.85,1.8558706212372744
409,3592.5099999999998,2.0107658748242914
410,3595.1699999999996,1.996039328411308
411,3597.8300000000004,2.2077757819983246
412,3600.4900000000002,2.1502418355853417
413,3603.15,2.126232689172358
414,3605.81,1.8482292427593752
415,3608.47,2.0439585963463918
416,3611.13,2.0346166499334086
417,3613.7999999999997,1.9415019672557152
418,3616.46,2.156161120842732
419,3619.12,2.000928374429749
420,3621.78,1.7850052280167654
421,3624.44,1.9645804816037824
422,3627.1,2.0387090351907995
423,3629.76,2.006002088777816
424,3632.42,1.9245429423648326
425,3635.08,1.9336686959518499
426,3637.74,1.9623100495388666
427,3640.3999999999996,2.1597931031258835
428,3643.0600000000004,1.9072749567129001
429,3645.7200000000003,2.0674813102999168
430,3648.38,1.8624727638869336
431,3651.04,1.9507568174739507
432,3653.7,2.0220837710609674
433,3656.36,2.167915324647984
434,3659.02,1.927944478235001
435,3661.68,1.951737431822018
436,3664.3399999999997,2.088749385409035
437,3667.0000000000005,1.9313965389960512
438,3669.6600000000003,1.961938292583068
439,3672.32,2.024177346170085
440,3674.98,1.958554699757102
441,3677.64,2.0352904533441185
442,3680.3,2.0481196069311354
443,3682.96,2.1108461605181525
444,3685.62,2.197546814105169
445,3688.2799999999997,2.2624658676921863
446,3690.9500000000003,2.263029685014492
447,3693.61,2.095882538601509
448,3696.27,1.9341202921885263
449,3698.9300000000003,2.0227210457755427
450,3701.59,1.8574501993625594
451,3704.25,1.8217220529495766
452,3706.91,1.9913327065365933
453,3709.5699999999997,1.9316305601236103
454,3712.2300000000005,2.1053586137106266
455,3714.8900000000003,2.0394680672976433
456,3717.55,2.4575412208846603
457,3720.21,2.4955875744716773
458,3722.87,3.327360928058694
459,3725.53,3.877267281645711
460,3728.19,3.949861635232728
461,3730.85,3.6263479888197447
462,3733.5099999999998,3.0417003424067612
463,3736.1699999999996,2.5421076959937783
464,3738.8300000000004,2.256455049580795
465,3741.4900000000002,2.0305661031678115
466,3744.15,2.085447456754829
467,3746.81,2.0035495103418457
468,3749.47,2.1237748639288623
469,3752.13,2.167059217515879
470,3754.79,2.051051671102896
471,3757.45,2.1077602246899128
472,3760.1099999999997,2.2193368782769296
473,3762.7699999999995,2.2913702318639464
474,3765.4300000000003,2.1898592854509626
475,3768.1,2.3098784027732697
476,3770.76,2.285479756360286
477,3773.42,2.248070109947303
478,3776.08,2.1556722635343197
479,3778.74,2.072970517121337
480,3781.3999999999996,2.224869170708354
481,3784.0600000000004,2.46162652429537
482,3786.7200000000003,2.3789978778823873
483,3789.38,2.202544231469404
484,3792.04,2.0379064850564212
485,3794.7,2.1480449386434377
486,3797.36,2.1336107922304546
487,3800.02,2.070302845817471
488,3801.8939600000003,2.16298225245506
489,3802.68,2.2019832124077876
490,3805.3399999999997,2.3656136773234597
491,3808.0000000000005,2.2955451422391313
492,3810.6600000000003,2.3490996071548036
493,3813.32,2.355095072070476
494,3815.98,2.3170415369861477
495,3818.64,2.34055500190182
496,3821.3,2.2474624668174923
497,3823.96,2.0530164317331647
498,3826.62,1.927714796648837
499,3829.2799999999997,1.965310661564509
500,3831.9399999999996,1.8876407264801813
501,3834.6000000000004,1.927477891395853
502,3837.26,1.9917280563115254
503,3839.92,2.0234766212271977
504,3842.58,2.1476862861428696
505,3845.25,2.332771720475518
506,3847.91,2.2778581853911906
507,3850.5699999999997,2.4003616503068628
508,3853.2300000000005,2.5335611152225344
509,3855.8900000000003,2.588114580138207
510,3858.55,2.503477045053879
511,3861.21,2.472683509969551
512,3863.87,2.584514974885223
513,3866.53,2.6370704398008953
514,3869.19,2.6642639047165675
515,3871.85,2.5802343696322394
516,3874.5099999999998,2.370536834547912
517,3877.1699999999996,2.241849299463584
518,3879.8300000000004,2.2259907643792562
519,3882.4900000000002,2.2344232292949284
520,3885.15,2.1077082942106005
521,3887.81,2.0349112591262726
522,3890.47,2.062712724041945
523,3893.13,2.226538088957617
524,3895.79,2.242084553873289
525,3898.45,2.2810200187889613
526,3901.1099999999997,2.338789483704634
527,3903.7699999999995,2.281487948620306
528,3906.4300000000003,2.282123413535978
529,3909.09,2.43734887845165
530,3911.75,2.568234343367322
531,3914.41,2.4637888082829944
532,3917.07,2.2591332731986666
533,3919.74,2.2378808075313152
534,3922.3999999999996,2.276353272446987
535,3925.0600000000004,2.327787737362659
536,3927.7200000000003,2.2464882022783312
537,3930.38,2.0545764671940034
538,3933.04,1.9012081321096759
539,3935.7,1.8960938970253478
540,3938.36,1.9752543619410199
541,3941.02,2.1617135268566923
542,3943.68,2.2886759917723642
543,3946.3399999999997,2.322251456688037
544,3948.9999999999995,2.3917159216037085
545,3951.6600000000003,2.345475386519381
546,3954.32,2.3052768514350532
547,3956.98,2.2593043163507254
548,3959.64,2.3614407812663973
549,3962.3,2.4320002461820693
550,3964.96,2.2364827110977417
551,3967.62,2.1172721760134134
552,3970.2799999999997,2.003007640929086
553,3972.9399999999996,2.0390198058447586
554,3975.6000000000004,2.1450055707604303
555,3978.26,2.1680800356761023
556,3980.92,2.212254500591775
557,3983.58,2.323623965507447
558,3986.24,2.414260430423119
559,3988.9,2.448883895338791
560,3991.56,2.5077983602544633
561,3994.22,2.5612558251701354
562,3996.8900000000003,2.6147983595027835
563,3999.55,2.580520824418456
564,4002.21,2.504215289334128
565,4004.87,2.4619217542498
566,4007.53,2.5370382191654723
567,4010.19,2.626407684081144
568,4012.85,2.6398341489968167
569,4015.5099999999998,2.483347613912489
570,4018.1699999999996,2.483155078828161
571,4020.8300000000004,2.660964543743833
572,4023.4900000000002,2.5565430086595056
573,4026.15,2.4482724735751775
574,4028.81,2.5545019384908496
575,4031.47,2.509357403406522
576,4034.13,2.585618868322194
577,4036.79,2.487629333237866
578,4039.45,2.5985857981535387
579,4042.1099999999997,2.598466263069211
580,4044.7699999999995,2.561434727984883
581,4047.4300000000003,2.4546261929005544
582,4050.09,2.6056606578162267
583,4052.75,2.5272601227318994
584,4055.41,2.5694605876475713
585,4058.0699999999997,2.5858840525632436
586,4060.73,2.4366575174789156
587,4063.39,2.4017949823945877
588,4066.0499999999997,2.41529444731026
589,4068.71,2.469555912225932
590,4071.3700000000003,2.5492033771416045
591,4074.04,2.5671269114742525
592,4076.7,2.485851376389925
593,4079.36,2.513262841305597
594,4082.02,2.496551306221269
595,4084.68,2.5145837711369414
596,4087.3399999999997,2.5929642360526133
597,4089.9999999999995,2.464885700968286
598,4092.6600000000003,2.403345165883958
599,4095.32,2.33529863079963
600,4097.98,2.2013970957153024
601,4100.639999999999,2.122436560630974
