,lambda (Angstroms),Total Flux (erg/s/cm^2/Angstrom)
0,102.00000000000001,0.014945541435972744
1,103.9,0.017494036809923307
2,104.712855,0.018584332837426845
3,106.07000000000001,0.01706550914044733
4,108.05,0.014849650678826397
5,110.05,0.012611468050830493
6,113.91999999999999,0.008280553382175933
7,117.92,0.00380420388918411
8,120.22644299999999,0.001224799714417857
9,120.95,0.0011879122916317833
10,124.91,0.000983942659004858
11,126.94,0.0008793292723551966
12,128.12,0.0008185950044209102
13,131.1,0.0006651236203834767
14,132.01,0.0006192316402646632
15,133.85,0.0005246168648925561
16,136.96,0.00036618403398100505
17,138.038426,0.0003108223380298995
18,140.15,0.0003079090813713195
19,143.09,0.0003258687625740882
20,147.10000000000002,0.00037881684792208213
21,150.87,0.00038385944439638076
22,155.1,0.00039063130704526227
23,158.489319,0.00039902565639587684
24,159.07999999999998,0.0003999090410567602
25,162.02999999999997,0.0004043532690462475
26,166.19,0.00041357998546532096
27,170.06,0.00042158162862441096
28,172.82,0.00043041507413321944
29,176.85,0.0004402327025391969
30,180.14,0.00044796819917832
31,181.8,0.00045493374611477714
32,181.970086,0.0004554282996027502
33,186.04,0.00048237945989160116
34,190.81,0.0005189451098175932
35,193.91,0.00054428230012589
36,197.97,0.0005745439061425625
37,202.12,0.0006088156980068952
38,204.93,0.0006347365450282868
39,208.929613,0.0006525372185796682
40,210.19,0.0006639284264146361
41,216.07999999999998,0.000765560576152935
42,220.09,0.0008250177054314716
43,223.15,0.0008621769589457661
44,226.78,0.0009237791979186058
45,229.94,0.0012709954067765049
46,234.21,0.0019183278399484125
47,239.88329199999998,0.002347574433055805
48,240.22000000000003,0.002369677852478345
49,245.80999999999997,0.00228616024219559
50,252.11999999999998,0.002438184551518634
51,256.81,0.00212872929172863
52,259.78000000000003,0.002417962835102551
53,264.0,0.0025400207250143177
54,268.91,0.0025544092462149743
55,273.90999999999997,0.0025637566323663567
56,275.42287,0.0025665205926836145
57,279.0,0.0026065143077108307
58,284.19,0.0026698544725467853
59,290.14000000000004,0.002628040212580298
60,296.21000000000004,0.002733666517118688
61,301.03000000000003,0.002751231691397937
62,308.04,0.002852329917891201
63,316.227766,0.002976575993012889
64,318.13,0.0029895250139886508
65,327.79999999999995,0.0029969301738995537
66,337.76,0.0029738164223703494
67,348.02,0.0029436103831444824
68,356.95,0.0029300853860404867
69,363.078055,0.0029331237796866973
70,366.09999999999997,0.00295365612724862
71,374.63000000000005,0.0029712152191542877
72,385.13,0.002909028426072167
73,395.01,0.003015096830295847
74,405.14,0.003061368477541382
75,413.62,0.0030602475208426783
76,416.86938299999997,0.003055597082792687
77,422.28000000000003,0.0030418779416403877
78,430.14,0.0030245884354514227
79,441.17,0.003042957197122633
80,451.45,0.0030184515452622565
81,459.84,0.0029859020113022798
82,469.47,0.002973121601047861
83,478.630092,0.002983460945134062
84,480.4,0.002978682547248458
85,490.46,0.002884112360108468
86,499.58000000000004,0.002875392840554123
87,506.53,0.002827208532341108
88,512.4,0.0030677149698647922
89,519.52,0.003040297423896926
90,530.4,0.0029747512075864804
91,540.26,0.0028544754178051386
92,549.5408739999999,0.002925518460690801
93,550.31,0.00293253276190886
94,560.54,0.0030591388427987955
95,569.65,0.0031608696880487774
96,580.24,0.0030765152732515556
97,589.67,0.003239095900112953
98,600.63,0.0031848289203039296
99,610.39,0.0031191192594520988
100,620.3100000000001,0.003549836489405976
101,630.38,0.0036108056794902036
102,630.957344,0.003614725813833715
103,640.63,0.0036964576377256446
104,649.54,0.003889361002103168
105,658.58,0.003972655243850958
106,664.67,0.0041679864221965375
107,675.4699999999999,0.004258507772957171
108,684.8700000000001,0.004152032059730317
109,694.39,0.004887659694845246
110,705.6800000000001,0.004635412968001502
111,715.49,0.005413880944942411
112,724.43596,0.005602574156264591
113,725.4499999999999,0.005623546359840833
114,735.54,0.005838159875714836
115,745.7700000000001,0.006286712295674305
116,754.41,0.006611510662091687
117,764.9,0.006674673046781309
118,775.54,0.007444646757276789
119,784.52,0.007713193462187447
120,795.44,0.00822254798085386
121,804.65,0.0086515603853335
122,815.84,0.009025065290450456
123,825.2900000000001,0.00977221181621947
124,831.763771,0.008748612187672722
125,834.84,0.008256910733315833
126,844.51,0.010381929177292375
127,854.2900000000001,0.0106965416056368
128,864.18,0.011521752018349107
129,874.1899999999999,0.012277050595826376
130,884.31,0.013173379157671528
131,894.5500000000001,0.013887995884281638
132,904.91,0.014032220775656714
133,915.39,0.01874799383179675
134,925.99,0.10403861505270175
135,934.56,0.22254928565299947
136,945.38,0.41506529684264026
137,954.13,0.5875069546900854
138,954.992586,0.5922813800105109
139,965.1700000000001,0.6486236338113338
140,974.0999999999999,0.10764756551586946
141,985.38,0.5236499581952828
142,994.5,0.5662715544041702
143,1006.02,0.8510282022469755
144,1015.3299999999999,0.8297346629602146
145,1024.72,0.37249030872791783
146,1034.2,0.575440137681893
147,1046.18,1.1165930995878657
148,1055.86,1.0911912911780004
149,1065.63,0.8471137659544073
150,1075.49,1.018383623917086
151,1085.44,0.7942242650660367
152,1095.48,1.0737638894012593
153,1096.4782,1.0694728211037372
154,1105.62,1.0301703576139136
155,1115.8500000000001,0.9837998760277695
156,1126.1699999999998,0.8748278418177007
157,1133.98,1.1347357752304295
158,1144.47,1.0277866416196133
159,1155.06,1.0962004495377693
160,1165.75,1.1269051989848977
161,1173.83,0.7584525745258514
162,1184.69,1.0911471245722324
163,1195.65,0.7446081161475855
164,1203.94,0.5320708688993809
165,1215.0800000000002,0.382848955226884
166,1226.32,0.7531920830833593
167,1234.82,1.1399108130459963
168,1246.25,1.249844129807519
169,1254.8899999999999,1.188125077910717
170,1258.92541,1.1104308713799536
171,1263.59,1.0206259123655925
172,1275.28,1.3300193985533948
173,1284.12,1.395885766209526
174,1296.0,1.0836052602994397
175,1304.99,1.07365363419408
176,1314.03,1.3609860101682232
177,1326.1899999999998,1.2967435159033538
178,1335.3799999999999,1.1425118981160058
179,1344.64,1.3735672832399624
180,1353.9599999999998,1.3269576708593223
181,1366.49,1.177229191982775
182,1375.96,1.238388585840644
183,1385.5,1.2498369826098175
184,1395.1,1.066277381874394
185,1404.77,1.103729784050275
186,1414.51,1.1531031891374606
187,1424.31,1.1826575967200492
188,1434.1899999999998,1.1799540076298431
189,1440.81,1.2469642829560408
190,1445.43977,1.263116455057325
191,1447.46,1.270164546026825
192,1454.1399999999999,1.2298747791996434
193,1464.22,1.1294491310532375
194,1474.3700000000001,1.1320494853502598
195,1484.5900000000001,1.1557548420907096
196,1494.88,1.177224201274587
197,1505.24,1.1088505629018923
198,1512.1899999999998,0.9837326054993606
199,1515.67,1.0540789269726252
200,1526.18,1.030087293835847
201,1536.76,0.8910223631424967
202,1543.85,0.9792293106268205
203,1554.5500000000002,0.9244589841222034
204,1565.3300000000002,0.948152260410075
205,1576.18,1.0277330391413744
206,1583.45,1.0836192929087982
207,1594.43,1.113955676177892
208,1605.48,1.0886070618904136
209,1616.61,1.0860934503954238
210,1624.07,1.0206427107950087
211,1635.3300000000002,1.0961451038378134
212,1646.67,1.126854499673107
213,1654.27,1.023008764959547
214,1659.58691,1.0760249458139755
215,1665.73,1.1372805165044064
216,1673.4199999999998,0.9860145767837614
217,1677.28,1.1908594607471306
218,1685.0200000000002,1.244125433772125
219,1696.6999999999998,1.1478184111535121
220,1704.53,1.1063164071206577
221,1716.3500000000001,1.0687514201898354
222,1724.27,1.0662984390991321
223,1736.22,1.1504774853069724
224,1744.24,1.1216965297075479
225,1756.3300000000002,1.2130416116031788
226,1764.4299999999998,1.0861316763967779
227,1776.6599999999999,1.1347067939801994
228,1784.8700000000001,1.147838886814205
229,1793.1,1.2556729847464667
230,1805.53,1.2299311533124462
231,1813.87,1.150489279285115
232,1826.44,1.158455483538885
233,1834.8700000000001,1.1037906324537043
234,1843.34,1.0066857915650356
235,1856.12,1.0325060493504916
236,1864.69,1.0811572339531017
237,1873.29,1.1452094262030956
238,1886.28,1.0687867375202376
239,1894.98,1.0468839552615103
240,1903.7299999999998,1.0861611857484228
241,1905.46072,1.0832405124704803
242,1916.93,1.0638788582928724
243,1925.77,1.0372879535977382
244,1934.66,1.0207000324733324
245,1943.5900000000001,1.1217270982055099
246,1957.07,1.0614276688740152
247,1966.1000000000001,1.1691867017476505
248,1975.17,1.1881847214778687
249,1984.29,1.1294977247788158
250,1993.45,1.0987127149363463
251,2007.27,1.111430173885808
252,2016.53,1.076168131184796
253,2025.84,1.1063180720545127
254,2035.19,1.0786459997808129
255,2044.59,1.1320799110778417
256,2054.02,1.063833812517308
257,2063.5,1.0638306975275031
258,2073.0299999999997,1.171847566108427
259,2077.81,1.1451589954701078
260,2087.4,1.1745378443359065
261,2097.03,1.1088506800582882
262,2106.71,1.0936404993513988
263,2116.44,1.1088403022152384
264,2126.21,1.126845091935661
265,2136.02,1.0230008685126666
266,2145.88,1.0761256286604013
267,2155.79,1.1113863723788646
268,2165.74,1.061357102953911
269,2175.73,1.056487820385541
270,2185.7799999999997,1.0540505181020452
271,2187.7616199999998,1.0648172587384572
272,2195.86,1.1088229885736585
273,2206.0,1.0736526450376684
274,2216.1800000000003,1.0043073119808266
275,2226.41,0.9771133920229194
276,2236.69,1.067807685163947
277,2247.01,1.014006388784123
278,2257.38,0.9585166055032339
279,2262.5899999999997,0.9769546704122568
280,2273.03,1.0125612054698765
281,2283.52,1.0519109536264313
282,2294.06,0.980723214881921
283,2304.65,1.0002304892363456
284,2315.29,0.9520697766897052
285,2325.98,0.7366503772419998
286,2336.71,0.8626146882734423
287,2347.5,0.8135584150236068
288,2352.91,0.9239654323283696
289,2363.77,0.8151546774170431
290,2374.6800000000003,0.8606240356046514
291,2385.64,0.7662986068911947
292,2396.66,0.8297662938964601
293,2407.7200000000003,0.8008464913808733
294,2413.27,0.825727645362654
295,2424.41,0.9086529638053631
296,2435.6,0.8769818953470073
297,2446.84,0.9323342399875865
298,2452.48,0.9244046175474501
299,2463.7999999999997,0.915077383146325
300,2475.17,0.8730675618441351
301,2486.6,0.8843728562606671
302,2492.33,0.8183688573986136
303,2503.8300000000004,0.9561417701536545
304,2511.88643,0.8577445543157586
305,2515.3900000000003,0.8149524255304454
306,2527.0,0.7901930483617323
307,2532.83,0.8091602572425595
308,2544.52,0.8028469719624342
309,2556.26,0.8835328816126762
310,2562.16,0.8482588833960175
311,2573.98,0.9101638849348471
312,2585.8599999999997,0.8968864803901174
313,2597.8,0.8776883697618286
314,2603.7900000000004,0.8426663624198312
315,2615.81,0.82084564368013
316,2627.88,0.8909962198707961
317,2633.94,0.9357825054313128
318,2646.1,1.0490091724966402
319,2652.2000000000003,1.0866345540014506
320,2664.44,0.9543669129553656
321,2676.7400000000002,1.012338065825721
322,2682.91,1.0154004402330459
323,2695.29,0.9512061849919894
324,2707.73,0.9928612236673735
325,2713.97,0.9251454909772127
326,2726.5,0.9222499205272578
327,2732.79,0.9775718827674642
328,2745.4,0.8087328042060972
329,2758.07,0.8461224195611708
330,2764.43,0.8907402747038914
331,2777.19,0.9427123809336262
332,2783.59,0.8525320320206405
333,2796.44,0.6417664291250366
334,2802.8900000000003,0.6961224751424182
335,2815.82,0.9274782641354019
336,2822.31,1.0130083060970774
337,2835.34,0.9800955849507957
338,2841.88,0.9453575218428385
339,2854.9999999999995,0.8897171915712179
340,2868.17,1.0136506562299645
341,2874.79,1.021434985010595
342,2884.0315,1.0159748723116497
343,2888.0499999999997,1.013601039651901
344,2894.7099999999996,1.0073860258322447
345,2908.0699999999997,1.1242059981099304
346,2928.23,1.0711159562774564
347,2948.5299999999997,1.053973914154479
348,2968.9700000000003,1.0835048717409983
349,2989.55,1.0910308290370145
350,3010.27,1.1087737860425273
351,3031.14,1.1087957427367867
352,3052.15,1.1139796991405426
353,3073.2999999999997,1.1295266552537953
354,3087.49,1.1417736258092117
355,3108.8900000000003,1.1444725814037084
356,3130.44,1.1262755366869517
357,3152.14,1.1394124916589414
358,3166.6899999999996,1.1465234614673494
359,3188.64,1.0800144159205831
360,3210.7400000000002,1.1284403700625636
361,3232.9999999999995,1.0654743238725402
362,3247.92,1.1540942929131894
363,3270.44,1.2058682461836598
364,3293.1,1.2005451991636271
365,3308.3,1.1997481676232695
366,3311.31121,1.2023271996779483
367,3323.58,1.2128346747155168
368,3331.24,1.2138483708704624
369,3338.92,1.1522080662320784
370,3346.6099999999997,1.22428676119703
371,3354.33,1.1728674549719884
372,3362.06,1.1392381483502816
373,3369.81,1.193910840935246
374,3377.58,1.1437675327268815
375,3385.36,1.1633232241218519
376,3393.1699999999996,1.238966914326829
377,3400.99,1.3195276041351414
378,3408.83,1.1961782931501246
379,3416.69,1.2054799813717787
380,3424.57,1.283869668800104
381,3432.46,1.3270463558317644
382,3440.37,1.2596720420700958
383,3448.3,1.160450727515098
384,3456.25,1.193984412166771
385,3464.2200000000003,1.130747096025115
386,3472.21,1.2437337790901297
387,3480.21,1.1484174617584801
388,3488.23,1.2147161436335012
389,3496.2700000000004,1.1880768247151934
390,3504.33,1.2451115050035562
391,3512.4100000000003,1.20943218449859
392,3520.51,1.2616928632002948
393,3528.6299999999997,1.1490405411086704
394,3536.7599999999998,1.2436622186203814
395,3544.91,1.2884728953387632
396,3553.08,1.3045065712638158
397,3560.4,1.3252162809053563
398,3563.06,1.515850175392583
399,3565.72,1.4814980698798093
400,3568.3900000000003,1.1688789639703712
401,3571.05,1.1776298584575977
402,3573.71,1.4113897529448243
403,3576.37,1.3910916474320507
404,3579.03,1.054084541919277
405,3581.69,0.9165820364065036
406,3584.35,1.09287233089373
407,3587.0099999999998,1.0934502253809566
408,3589.6699999999996,1.283675119868183
409,3592.3300000000004,1.1851040143554097
410,3594.9900000000002,1.322172908842636
411,3597.65,1.2195038033298624
412,3600.31,1.212368697817089
413,3602.97,1.2409825923043154
414,3605.63,1.200146486791542
415,3608.29,1.0109833812787683
416,3610.95,1.196603275765995
417,3613.6099999999997,1.1525611702532212
418,3616.27,1.3454370647404479
419,3618.9300000000003,1.0173479592276742
420,3621.59,1.0328248537149007
421,3624.25,1.1063977482021272
422,3626.91,1.2495896426893538
423,3629.5699999999997,1.2249055371765802
424,3632.23,1.3021424316638066
425,3634.89,1.186769326151033
426,3637.5499999999997,1.2553282206382594
427,3640.21,1.324562115125486
428,3642.88,1.299629009216048
429,3645.54,1.0877099037032743
430,3648.2,1.345479798190501
431,3650.86,1.3647646926777273
432,3653.52,1.261420587164954
433,3656.18,1.2740764816521803
434,3658.8399999999997,1.2589623761394069
435,3661.4999999999995,1.3397182706266333
436,3664.1600000000003,1.3341021651138598
437,3666.82,1.1087310596010862
438,3669.48,1.311249954088313
439,3672.14,1.3785788485755393
440,3674.7999999999997,1.4157747430627656
441,3677.46,1.392512637549992
442,3680.12,1.3490975320372185
443,3682.7799999999997,1.332560426524445
444,3685.4399999999996,1.2640013210116714
445,3688.1000000000004,1.454804215498898
446,3690.76,1.2141741099861245
447,3693.42,1.282685004473351
448,3696.08,1.2639298989605774
449,3698.74,1.236617793447804
450,3701.4,1.1334906879350304
451,3704.06,1.154510582422257
452,3706.72,1.2616404769094833
453,3709.38,1.2026763713967097
454,3712.04,1.3358402658839363
455,3714.7000000000003,1.4914961603711627
456,3717.36,2.200661054858389
457,3720.0299999999997,3.060258948948951
458,3722.69,3.6882308434361777
459,3725.35,3.4462027379234037
460,3728.0099999999998,2.6104346324106307
461,3730.6699999999996,1.8217715268978572
462,3733.3300000000004,1.4124684213850833
463,3735.9900000000002,1.35417931587231
464,3738.65,1.3254692103595365
465,3741.31,1.350539104846763
466,3743.97,1.2775459993339893
467,3746.63,1.3923648938212159
468,3749.29,1.4699387883084423
469,3751.95,1.4949616827956687
470,3754.6099999999997,1.4214135772828953
471,3757.27,1.4401444717701217
472,3759.9300000000003,1.5423553662573481
473,3762.59,1.3080412607445746
474,3765.25,1.4102761552318013
475,3767.91,1.4670480497190277
476,3770.5699999999997,1.4080829442062541
477,3773.23,1.6166288386934806
478,3775.89,1.7590977331807072
479,3778.55,1.7396686276679336
480,3781.21,1.76471552215516
481,3783.87,1.6722904166423864
482,3786.53,1.5995143111296128
483,3789.19,1.3124542056168393
484,3791.85,1.2008891001040658
485,3794.5099999999998,1.3239289945912924
486,3797.18,1.4347388886818544
487,3799.8399999999997,1.4137187831690807
488,3801.8939600000003,1.611511961034185
489,3802.4999999999995,1.6698726826652148
490,3805.1600000000003,1.8760555991372843
491,3807.82,1.7013085156093535
492,3810.48,1.743422432081423
493,3813.14,1.723896348553492
494,3815.7999999999997,1.6998862650255613
495,3818.46,1.7676501814976306
496,3821.12,1.6660420979697
497,3823.7799999999997,1.3660370144417693
498,3826.44,1.3485119309138385
499,3829.1,1.254641847385908
500,3831.76,1.1809967638579772
501,3834.42,1.2661896803300465
502,3837.08,1.5622405968021158
503,3839.74,1.598954513274185
504,3842.4,1.5937724297462543
505,3845.06,1.9154483462183236
506,3847.7200000000003,1.829895262690393
507,3850.38,1.8200601791624622
508,3853.04,1.7606860956345316
509,3855.7000000000003,1.9054940121066009
510,3858.36,1.8415879285786703
511,3861.02,1.8966718450507396
512,3863.68,1.7955207615228088
513,3866.3399999999997,2.000064677994878
514,3869.0,1.8246665944669473
515,3871.6600000000003,1.6566445109390169
516,3874.3300000000004,1.6305524270970713
517,3876.9900000000002,1.5644053435691405
518,3879.65,1.4891212600412098
519,3882.31,1.3592841765132793
520,3884.97,1.2738270929853484
521,3887.63,1.3224500094574179
522,3890.29,1.650706925929487
523,3892.95,1.6975218424015563
524,3895.61,1.8478257588736258
525,3898.27,1.984243675345695
526,3900.9300000000003,1.9942005918177643
527,3903.59,1.9769405082898335
528,3906.25,1.832350424761903
529,3908.91,1.9287033412339722
530,3911.5699999999997,2.0208872577060415
531,3914.23,1.8375581741781108
532,3916.89,1.87928609065018
533,3919.55,1.8341110071222495
534,3922.21,1.8845179235943186
535,3924.87,1.592058840066388
536,3927.53,1.3919997565384572
537,3930.19,1.5487396730105267
538,3932.85,1.541122589482596
539,3935.5099999999998,1.5181495059546652
540,3938.1699999999996,1.6272314224267346
541,3940.8300000000004,1.9306593388988038
542,3943.4900000000002,2.049022255370873
543,3946.15,2.0405371718429426
544,3948.81,1.9956750883150118
545,3951.48,1.9480070044730662
546,3954.14,1.8901999209451357
547,3956.7999999999997,1.6029968374172048
548,3959.46,1.3864977538892742
549,3962.12,1.3469156703613434
550,3964.7799999999997,1.299329586833413
551,3967.44,1.231108503305482
552,3970.1,1.3177474197775516
553,3972.76,1.5106473362496207
554,3975.42,1.74038125272169
555,3978.08,1.7799881691937594
556,3980.74,1.8106040856658285
557,3983.4,1.938151002137898
558,3986.06,2.0599369186099676
559,3988.7200000000003,2.000562835082037
560,3991.38,1.9361267515541059
561,3994.04,2.023440668026175
562,3996.7000000000003,2.0531885844982445
563,3999.36,2.036145500970314
564,4002.02,2.031951417442383
565,4004.68,1.9333563339144524
566,4007.3399999999997,1.9931162503865218
567,4010.0000000000005,2.1733361668585913
568,4012.6600000000003,2.1032350833306603
569,4015.32,2.0760189998027294
570,4017.98,2.059337916274799
571,4020.64,2.104489832746868
572,4023.3,2.0963177492189375
573,4025.97,1.948125665376992
574,4028.63,1.9649525818490612
575,4031.29,1.9459804983211306
576,4033.95,2.0641744147931997
577,4036.61,2.0660543312652693
578,4039.27,2.0613062477373387
579,4041.9300000000003,2.0291971642094078
580,4044.59,2.1507170806814773
581,4047.25,2.1456309971535465
582,4049.91,2.049085913625616
583,4052.5699999999997,1.967316830097685
584,4055.23,1.9703057465697544
585,4057.8900000000003,1.9822396630418235
586,4060.55,2.098408579513893
587,4063.21,2.0697214959859624
588,4065.87,1.9473814124580318
