,lambda (Angstroms),Total Flux (erg/s/cm^2/Angstrom)
0,102.05000000000001,0.014989865233397865
1,103.95,0.01753448780783434
2,104.712855,0.01855616046809272
3,105.88,0.017251917250787088
4,108.10000000000001,0.014771145845725565
5,110.11,0.012525042009448643
6,113.96999999999998,0.008211628674664285
7,117.97999999999999,0.003730595659500432
8,120.22644299999999,0.0012202752659158623
9,121.01,0.0011797600455970944
10,124.97,0.0009750010645959507
11,127.0,0.0008700362493123495
12,127.88000000000001,0.0008245342837564169
13,130.86,0.0006704480598048629
14,132.07,0.0006078829529379199
15,133.91,0.0005127425386986891
16,137.03,0.00035141773207659355
17,138.038426,0.00029927538469502366
18,139.9,0.0002958761886139671
19,143.16,0.00028992740013721963
20,147.17,0.0002826178760654995
21,150.94,0.00027574007322257054
22,155.17,0.00026802455387912514
23,158.489319,0.000261973066964335
24,159.14999999999998,0.0002601213083264489
25,162.10999999999999,0.0002518269561415811
26,165.89,0.00024123966660779736
27,170.14000000000001,0.00022933660450378114
28,172.91,0.00022158457951219893
29,176.93,0.00021033617209531775
30,179.81,0.00020228296429814917
31,181.89000000000001,0.0001964677077779718
32,181.970086,0.0001962438885104807
33,186.13000000000002,0.00020004623407316965
34,190.9,0.00020442437139943582
35,194.0,0.0002072765306494201
36,198.07000000000002,0.00021102752845149635
37,202.21,0.00021485741744599145
38,205.03,0.0002174806378262998
39,208.929613,0.00022109531479166982
40,209.79999999999998,0.000225888783319842
41,216.17999999999998,0.000261115728826352
42,220.20000000000002,0.0002833315901411124
43,222.75,0.0002974391201915199
44,226.89000000000001,0.00032035904023806417
45,230.04,0.0003386325069473911
46,233.78,0.0003611625335546556
47,239.78,0.00039598406314385
48,239.88329199999998,0.0003965603269781213
49,245.93,0.0003698266097628943
50,252.24,0.00034284350507898684
51,256.93,0.00032116267424578155
52,259.9,0.00030955600768616117
53,264.12,0.0002918504078405051
54,269.03,0.0002708398980769577
55,274.04,0.000249404427890527
56,275.42287,0.00024350452781516708
57,279.13,0.0002623104709468787
58,284.32,0.0002887344839206991
59,290.27,0.0003183900394879884
60,295.67,0.00034648751159947804
61,301.17,0.0003742447361574766
62,308.18,0.00041065706165776194
63,316.227766,0.00045258824688582106
64,318.28000000000003,0.0004461351426010228
65,327.95,0.00041583876499419947
66,337.92,0.0003843873293540723
67,348.18,0.0003520197486150849
68,357.11,0.00032438775815707736
69,363.078055,0.0003062506171562057
70,366.28000000000003,0.0003166571522486936
71,374.81,0.0003441123159394041
72,385.31,0.0003758282763441474
73,395.19,0.00040961642422975356
74,405.33,0.0004430749228491914
75,413.82,0.0004706947941193125
76,416.86938299999997,0.00048020338619629067
77,422.48,0.0004915112814209697
78,430.34000000000003,0.0005079522396329028
79,441.37999999999994,0.0005324452010908853
80,450.62,0.0005520246544850663
81,460.04999999999995,0.0005713089682304264
82,469.68999999999994,0.0005917475634165633
83,478.630092,0.0006114579520801518
84,479.52000000000004,0.0006100180376007794
85,489.56,0.0005912945591867616
86,499.81,0.0005754660510449604
87,505.6,0.0005641902028360796
88,511.46,0.0005597146447179378
89,519.77,0.000545037039775658
90,529.43,0.0005272455722976289
91,540.52,0.0005040655452446947
92,549.5408739999999,0.0004885201907751754
93,550.5600000000001,0.0004882547912987275
94,559.51,0.0004903633824058485
95,569.91,0.0004899520664856314
96,580.51,0.0004848543771823333
97,589.9399999999999,0.0004841541521700596
98,599.53,0.00047809528845132093
99,610.6700000000001,0.00046050183101370386
100,620.59,0.00047670533121288146
101,630.68,0.0004719367340364402
102,630.957344,0.00047194479020452396
103,639.45,0.0004862666442020722
104,649.84,0.0005002993816746315
105,657.37,0.0005091503248092198
106,664.98,0.0005228508852679471
107,674.23,0.0005360882508715249
108,685.1899999999999,0.0005447311242785749
109,694.72,0.0005671334005166394
110,704.38,0.0005725609674064299
111,715.8299999999999,0.0005984448594238316
112,724.43596,0.0006105781318718402
113,725.7800000000001,0.0006119218450566155
114,734.1899999999999,0.0006211212391861391
115,744.4000000000001,0.0006335429720116369
116,754.76,0.0006445882080617992
117,765.26,0.000642153333788315
118,774.1199999999999,0.0006686647375918321
119,784.89,0.0006780082291227441
120,795.81,0.0006923094238783207
121,805.0200000000001,0.0007053413018727219
122,814.34,0.0007161007288985434
123,825.67,0.0007340160791348695
124,831.763771,0.0007222064351949088
125,835.23,0.0007095217017294955
126,844.91,0.000731304071520571
127,854.69,0.0007246324234375874
128,864.5899999999999,0.0007251047539057329
129,874.5999999999999,0.0007259398647124133
130,884.7199999999999,0.0007287307558576286
131,894.9699999999999,0.000727897223766567
132,905.33,0.0007181467720140402
133,915.8199999999999,0.0008306334970252368
134,924.29,0.002504158283092428
135,934.99,0.0049246743705681
136,945.82,0.009076609034807495
137,954.57,0.012824888470827321
138,954.992586,0.012897892555229417
139,965.62,0.014744397331394286
140,974.5600000000001,0.002944681685151026
141,985.84,0.013169995540897783
142,994.97,0.014024732452508413
143,1004.1700000000001,0.020415766306486265
144,1015.8000000000001,0.019775326874069136
145,1025.2,0.008716090420524769
146,1034.68,0.014402855043971511
147,1044.26,0.027555898013657144
148,1053.92,0.027429036060333888
149,1066.12,0.022093220301478433
150,1075.99,0.026563869175256848
151,1085.95,0.02134930126065026
152,1095.99,0.028504748423034784
153,1096.4782,0.02847066679146772
154,1106.13,0.02779303235508659
155,1113.8,0.027038724387018757
156,1124.11,0.024619885110515584
157,1134.51,0.03149206328940666
158,1145.01,0.028868973085402455
159,1155.6,0.031051830336792503
160,1166.29,0.03242314920528727
161,1174.38,0.02291234602905927
162,1185.24,0.032043605646632056
163,1196.21,0.02223097104302005
164,1204.5,0.016233551101001494
165,1215.65,0.010645561408177984
166,1224.07,0.02231659556839557
167,1235.3999999999999,0.03428999078636055
168,1243.96,0.038181653210524746
169,1255.47,0.036885483339278234
170,1258.92541,0.034917186928201414
171,1264.18,0.03192731418019013
172,1275.8700000000001,0.04174392963516879
173,1284.72,0.044206487152410975
174,1293.6200000000001,0.035395426746021766
175,1305.5900000000001,0.03515296382866459
176,1314.6399999999999,0.04441187965138117
177,1323.76,0.042909428381013796
178,1336.0,0.03826400667604706
179,1345.27,0.04596618163478548
180,1354.59,0.04482195866989251
181,1363.98,0.04042890861191557
182,1373.4299999999998,0.04281370104558096
183,1386.1399999999999,0.04370722885847906
184,1395.75,0.03853095793652397
185,1405.43,0.04033805992148491
186,1415.17,0.04136819439808817
187,1424.9800000000002,0.04281568178160748
188,1434.85,0.0428166116567691
189,1441.48,0.04544594698324546
190,1445.43977,0.0460108222604181
191,1448.1299999999999,0.046394575186010714
192,1454.82,0.04534322835590618
193,1464.9,0.04213575967915673
194,1475.05,0.04233020344215208
195,1485.28,0.043411009993427195
196,1495.57,0.04441897863591214
197,1505.94,0.042428090066676846
198,1512.89,0.03800894229848155
199,1516.3799999999999,0.04080693393718635
200,1523.38,0.039791457911665905
201,1533.94,0.03500075596459505
202,1544.5700000000002,0.038891106457269
203,1555.28,0.03689483973822272
204,1566.06,0.037750035458921236
205,1573.29,0.04062243744970511
206,1584.19,0.04291986735282327
207,1595.1699999999998,0.04421889004422119
208,1606.2299999999998,0.04341538552389888
209,1613.64,0.04381575378831224
210,1624.83,0.04166121379894455
211,1636.0900000000001,0.04462789624932167
212,1643.64,0.04576729939322461
213,1655.0400000000002,0.04223939672309131
214,1659.58691,0.04401642578565832
215,1666.51,0.04672363732295964
216,1670.35,0.04157019471264417
217,1678.0600000000002,0.04925737712787015
218,1685.8100000000002,0.05157135972423867
219,1693.5900000000001,0.0482550399564641
220,1705.33,0.046948298121801714
221,1713.2,0.046415561261597876
222,1725.08,0.0469531950609344
223,1733.0400000000002,0.0511120311083013
224,1745.05,0.0499569079963511
225,1753.11,0.05488353949657436
226,1765.26,0.04905403201862308
227,1773.3999999999999,0.05230885388113144
228,1785.7,0.05340233458246471
229,1793.94,0.05989236189782944
230,1806.3799999999999,0.05826956823316162
231,1814.71,0.05565942845609708
232,1823.09,0.056303391405460715
233,1835.7299999999998,0.054030178646505646
234,1844.2,0.049074204503440015
235,1856.98,0.05197107737848385
236,1865.55,0.05618557868827459
237,1874.17,0.058959032724493515
238,1887.1599999999999,0.05619095905053573
239,1895.8700000000001,0.056710235994325384
240,1904.62,0.058562333119257584
241,1905.46072,0.05853693910050481
242,1913.41,0.058292199026040284
243,1926.67,0.05593150855064498
244,1935.5700000000002,0.05173553854830576
245,1944.5000000000002,0.06315311870326201
246,1953.48,0.06129451245371075
247,1967.02,0.06873929011307332
248,1976.1000000000001,0.06873671105450702
249,1985.22,0.06794897887233468
250,1994.38,0.06701748356655633
251,2003.5900000000001,0.06655461185627047
252,2012.83,0.06549165030328008
253,2026.79,0.06533607016477945
254,2036.1399999999999,0.06808951252187251
255,2045.5400000000002,0.07277281847445806
256,2054.98,0.06934496130343756
257,2064.47,0.06855028772790955
258,2074.0,0.07706232102877554
259,2078.78,0.08408889275785626
260,2083.5699999999997,0.0884499712060355
261,2093.19,0.08331555497878793
262,2102.85,0.08049069562793434
263,2117.42,0.08388421535444192
264,2127.2,0.08330459663277028
265,2137.02,0.07529295478749261
266,2146.88,0.08426151981860892
267,2156.79,0.08701222844521772
268,2166.75,0.08139887066731899
269,2176.75,0.08233696976581426
270,2186.79,0.08700226574070348
271,2187.7616199999998,0.08747674494775139
272,2196.89,0.0919398647982857
273,2207.03,0.0886207772582465
274,2217.22,0.07918652279739846
275,2227.45,0.07955436879990331
276,2232.59,0.09300985334075128
277,2242.89,0.08822167765412371
278,2253.24,0.07864351504668726
279,2263.64,0.07985643551844193
280,2274.09,0.08548629906938775
281,2284.59,0.09407632569952468
282,2295.13,0.08554661279301452
283,2305.73,0.09157715558153372
284,2316.37,0.0856048788334058
285,2327.06,0.06508358516446902
286,2332.43,0.07115039986959619
287,2343.19,0.061662584511527
288,2354.01,0.08171496484848716
289,2364.87,0.06357254564880022
290,2375.79,0.07239850214414263
291,2386.76,0.05711043171867616
292,2392.2599999999998,0.06491428042970027
293,2403.2999999999997,0.06338855831510139
294,2414.39,0.06847549927969364
295,2425.54,0.08666879593931524
296,2436.73,0.08482364306228975
297,2442.35,0.09380494316337257
298,2453.62,0.09502528121305288
299,2464.95,0.09193217495776254
300,2476.33,0.08554225178166333
301,2487.7599999999998,0.08032978168475526
302,2493.49,0.07811333056005855
303,2505.0,0.10046530138985628
304,2510.78,0.0703549733443507
305,2511.88643,0.06948280060028703
306,2516.56,0.06579703961712428
307,2522.37,0.06637142141373319
308,2534.0099999999998,0.07436913298215447
309,2545.7000000000003,0.07654868948858445
310,2557.4599999999996,0.09467853890822658
311,2563.35,0.0849514126056494
312,2575.1800000000003,0.09607766493850368
313,2587.07,0.09251932119696839
314,2593.03,0.08831857780760335
315,2605.0,0.08236087596688195
316,2617.03,0.07804819805177098
317,2623.06,0.09309834757561809
318,2635.17,0.11202042156132101
319,2647.33,0.1382645904850326
320,2653.43,0.15645667292209184
321,2665.6800000000003,0.1225048327342191
322,2677.98,0.13571388748435498
323,2684.16,0.14137336182222815
324,2696.5499999999997,0.12331910746077969
325,2702.76,0.13700717876145807
326,2715.24,0.11759511528842523
327,2727.77,0.11481114675340108
328,2734.06,0.12725450995489332
329,2746.6800000000003,0.0888243723082848
330,2753.01,0.10143369146018401
331,2765.72,0.11524200470199113
332,2772.0899999999997,0.12569455980429728
333,2784.89,0.09796048393452
334,2797.7400000000002,0.060147883002751416
335,2804.1899999999996,0.06804533000587147
336,2817.1400000000003,0.12125459895012025
337,2823.6299999999997,0.15111724190364723
338,2836.66,0.1471853227487099
339,2843.2000000000003,0.1369838606402456
340,2856.3300000000004,0.11306753136132562
341,2862.9100000000003,0.15699186520326824
342,2876.13,0.1676345268127639
343,2882.7599999999998,0.16148535559271524
344,2884.0315,0.16204646505424608
345,2896.06,0.16735580194447663
346,2909.4300000000003,0.203263374243229
347,2929.6,0.18809673245308947
348,2949.91,0.18308709037288454
349,2970.35,0.19447954802333314
350,2990.94,0.19729710536299738
351,3011.67,0.2048115624125962
352,3032.55,0.2077760191514106
353,3046.55,0.21334169014486856
354,3067.67,0.221959546386428
355,3088.93,0.22724750233792199
356,3110.3399999999997,0.2353339579786316
357,3131.9,0.22956951330855685
358,3153.61,0.23286466832769773
359,3168.17,0.241856438160894
360,3190.13,0.22068969266206087
361,3212.2400000000002,0.23874274685244343
362,3227.07,0.2154891161262278
363,3249.44,0.25557776977791735
364,3271.96,0.28032002311882265
365,3287.06,0.2780339918331951
366,3309.85,0.27749354461468845
367,3311.31121,0.27709498627287166
368,3325.12,0.27332799466705876
369,3332.79,0.2814406908839187
370,3340.47,0.26250068670471194
371,3348.1699999999996,0.3074595817333718
372,3355.8900000000003,0.29411127596989833
373,3363.63,0.23350546941429154
374,3371.38,0.24773296246261806
375,3379.15,0.2969196547188112
376,3386.94,0.288639346182871
377,3394.7500000000005,0.2825260368547975
378,3402.58,0.32563202673459063
379,3410.42,0.27446311621831704
380,3418.28,0.27301070490991014
381,3426.16,0.28765529280936986
382,3434.06,0.3202923799166963
383,3441.98,0.2737131662318893
384,3449.91,0.2786017521510157
385,3457.87,0.29085293688194197
386,3465.84,0.27125982121680164
387,3473.82,0.31049000515559466
388,3481.8300000000004,0.28040018790618754
389,3489.86,0.30440136986464716
390,3497.9,0.27807865142704014
391,3505.97,0.314644231801233
392,3514.05,0.28546031177935927
393,3522.15,0.3149225909653521
394,3530.27,0.27985966935921164
395,3538.4100000000003,0.3188530469609378
396,3546.57,0.32905262377053063
397,3554.7400000000002,0.32957510018405684
398,3562.94,0.31379867540938294
399,3571.15,0.27566575023864237
400,3579.3799999999997,0.2857973242757685
401,3587.63,0.24704529752076118
402,3593.31,0.35469617255488955
403,3595.9999999999995,0.30211866601295384
404,3598.69,0.25531545947101814
405,3601.38,0.26442075292908246
406,3604.08,0.31686684599108006
407,3606.7700000000004,0.3111623394491444
408,3609.46,0.31754573290720867
409,3612.15,0.328773026365273
410,3614.84,0.3289212198233373
411,3617.5400000000004,0.30109161288533487
412,3620.23,0.35372190634339923
413,3622.92,0.3733411998014635
414,3625.61,0.3918647932595278
415,3628.31,0.34338988632152545
416,3631.0,0.25967087977958975
417,3633.69,0.267654373237654
418,3636.38,0.31532786669571833
419,3639.08,0.3434849597577159
420,3641.7699999999995,0.3463812532157803
421,3644.46,0.33418934667384453
422,3647.15,0.33694644013190883
423,3649.85,0.3723388331939065
424,3652.5400000000004,0.3801137266519708
425,3655.23,0.25183482011003505
426,3657.92,0.21896291356809938
427,3660.62,0.368546706630097
428,3663.3100000000004,0.3641990000881613
429,3666.0,0.43647439354622564
430,3668.69,0.3513030870042899
431,3671.39,0.3447010800662876
432,3674.08,0.39584427352435186
433,3676.77,0.3242392669824161
434,3679.46,0.33977126044048045
435,3682.15,0.4074812538985447
436,3684.85,0.33347394696054233
437,3687.5400000000004,0.3463100404186067
438,3690.23,0.330822233876671
439,3692.92,0.3049510273347352
440,3695.62,0.4018089203967329
441,3698.3100000000004,0.4243067138547972
442,3701.0,0.3011412073128615
443,3703.69,0.2716609007709258
444,3706.39,0.2830953938329234
445,3709.08,0.3760503872909877
446,3711.77,0.38184258074905203
447,3714.46,0.3837560742071163
448,3717.16,0.43337556726911397
449,3719.85,0.46871766072717824
450,3722.54,0.5319838541852425
451,3725.23,0.6615075476433068
452,3727.93,0.6150752407053045
453,3730.62,0.5430444341633688
454,3733.3100000000004,0.4004081276214331
455,3736.0,0.35556162107949735
456,3738.7,0.38390131414149503
457,3741.39,0.3210013075995593
458,3744.0800000000004,0.3217060010576236
459,3746.77,0.34549949451568795
460,3749.47,0.31516538757768553
461,3752.16,0.35342938103574983
462,3754.85,0.4154952744938141
463,3757.54,0.43078376795187845
464,3760.23,0.4406198614099427
465,3762.93,0.40232815447194037
466,3765.62,0.3424544479300047
467,3768.3100000000004,0.32806234138806895
468,3771.0,0.3493860348461333
469,3773.7,0.41441542790813085
470,3776.39,0.4456791213661952
471,3779.0800000000004,0.4516974148242595
472,3781.77,0.4402883082823238
473,3784.47,0.5591822013443214
474,3787.16,0.5637309948023856
475,3789.8500000000004,0.47081138826045
476,3792.54,0.4521843817185143
477,3795.24,0.41238817478051193
478,3797.93,0.3965352682385762
479,3800.62,0.42098966169664054
480,3801.8939600000003,0.442830305704765
481,3803.31,0.4671067668406044
482,3806.01,0.5024725821844083
483,3808.7,0.43528559784175364
484,3811.39,0.4274506134990989
485,3814.0800000000004,0.4826814291564443
486,3816.78,0.41330914450024814
487,3819.47,0.4081526601575935
488,3822.16,0.41893657581493876
489,3824.8500000000004,0.3692983914722841
490,3827.54,0.45082680712962947
491,3830.24,0.2704811224734333
492,3832.93,0.3358863381307786
493,3835.6200000000003,0.287169853788124
494,3838.31,0.29680566944546927
495,3841.01,0.37542768478927313
496,3843.7,0.5019767004466185
497,3846.39,0.48614131610396377
498,3849.08,0.4564872317613091
499,3851.78,0.49259244710511296
500,3854.47,0.3929246627624583
501,3857.16,0.47241807841980366
502,3859.8500000000004,0.47973209407714895
503,3862.55,0.4969140094209528
504,3865.24,0.46672102507829816
505,3867.93,0.5297350407356435
506,3870.6200000000003,0.4582952563929888
507,3873.32,0.48739117173679264
508,3876.0099999999998,0.48978318739413795
509,3878.7,0.4374406030514833
510,3881.3900000000003,0.42428351870882863
511,3884.09,0.4268558340526325
512,3886.78,0.4044459497099778
513,3889.47,0.4333615653673231
514,3892.16,0.4181261810246685
515,3894.86,0.47229359636847235
516,3897.55,0.5403600120258176
517,3900.24,0.502296827683163
518,3902.93,0.5150983433405083
519,3905.6200000000003,0.5823128589978537
520,3908.32,0.5671093743416575
521,3911.0099999999998,0.5471084899990029
522,3913.7,0.5517442056563481
523,3916.3900000000003,0.6040358213136935
524,3919.09,0.5740659366574973
525,3921.78,0.5819019523148427
526,3924.47,0.49078256797218794
527,3927.1600000000003,0.3714346836295333
528,3929.86,0.29839299897333715
529,3932.55,0.2805832146306825
530,3935.24,0.36335503028802785
531,3937.93,0.38301784594537314
532,3940.63,0.42943706128917697
533,3943.32,0.48384157694652236
534,3946.0099999999998,0.47531969260386764
535,3948.7,0.526619808261213
536,3951.4,0.5008419236050169
537,3954.09,0.5172436392623622
538,3956.7799999999997,0.4371945549197075
539,3959.47,0.4591271705770528
540,3962.17,0.45264658592085666
541,3964.86,0.36792770157820204
542,3967.55,0.33500381723554734
543,3970.24,0.2975230328928926
544,3972.9300000000003,0.312254948550238
545,3975.63,0.4433677638940418
546,3978.32,0.47504877955138713
547,3981.0099999999998,0.5358886952087324
548,3983.7,0.6080689108660778
549,3986.4,0.5955177262098816
550,3989.09,0.580073641867227
551,3991.7799999999997,0.6064675575245724
552,3994.47,0.6203128731819176
553,3997.17,0.6721315885257215
554,3999.86,0.7088829041830668
555,4002.55,0.6476181198404122
556,4005.24,0.6528192354977576
557,4007.94,0.6273366508415613
558,4010.63,0.6956466664989066
559,4013.32,0.667123482156252
560,4016.0099999999998,0.6320953978135974
561,4018.7099999999996,0.6982978131574011
562,4021.4,0.7234396288147465
563,4024.09,0.6603920444720918
564,4026.7799999999997,0.6898298601294371
565,4029.4799999999996,0.719620575473241
566,4032.17,0.6802358911305864
567,4034.86,0.6791496067879317
568,4037.5499999999997,0.685316022445277
569,4040.2500000000005,0.7535270377890809
570,4042.94,0.6539987534464261
571,4045.63,0.6953503691037716
572,4048.32,0.6333114847611169
573,4051.0099999999998,0.6823943004184622
574,4053.71,0.6481979157622659
575,4056.4,0.6997328314196113
