,lambda (Angstroms),Total Flux (erg/s/cm^2/Angstrom)
0,102.05000000000001,76.67159023991603
1,103.95,76.45306273772353
2,104.712855,76.36532337052085
3,105.88,75.66018779623487
4,108.10000000000001,74.31896543319093
5,110.11,73.10461545584035
6,113.98,70.76653863377727
7,117.97999999999999,68.34992176342786
8,120.22644299999999,66.9927237504083
9,121.01,66.59583654839717
10,124.97,64.59001780137032
11,127.0,63.56178243357628
12,127.88000000000001,63.116044934236996
13,130.86,61.6066156751108
14,132.07,60.99372661351937
15,133.91,60.06173002399187
16,137.03,58.48138798088023
17,138.038426,57.97060015871136
18,139.9,57.29661332102997
19,143.16,56.11632336702639
20,147.17,54.664494313182935
21,150.94,53.29955777128728
22,155.17,51.76807724815548
23,158.489319,50.56631072367843
24,159.14999999999998,50.385470407698946
25,162.10999999999999,49.57526497527919
26,165.89,48.540610740645825
27,170.14000000000001,47.377309021817126
28,172.91,46.619110019207646
29,176.93,45.51876345225255
30,179.81,44.73045546400174
31,181.89000000000001,44.16112191693609
32,181.970086,44.139200933066135
33,186.13000000000002,43.270524608211055
34,190.9,42.27444967269853
35,194.0,41.62710537501555
36,198.07000000000002,40.777204958414515
37,202.21,39.91268708999428
38,205.03,39.32381259998079
39,208.929613,38.509492523156
40,209.79999999999998,38.37284661616946
41,216.17999999999998,37.371222182138666
42,220.20000000000002,36.74010459219235
43,222.75,36.33976880763263
44,226.89000000000001,35.68981188689729
45,230.04,35.19527944960772
46,233.78,34.60812030452545
47,239.78,33.66615375952778
48,239.88329199999998,33.64993749138888
49,245.93,32.91839894923056
50,252.24,32.155007005447935
51,256.93,31.58760474598386
52,259.9,31.228290318522973
53,264.13,30.716539462018527
54,269.04,30.12252132723654
55,274.04,29.51761487693234
56,275.42287,29.350313480533107
57,279.13,29.00611482483423
58,284.32,28.52423503753625
59,290.28000000000003,27.97086248472498
60,295.67,27.47041315473184
61,301.17,26.959750566857227
62,308.19,26.307959419351814
63,316.227766,25.56167100138383
64,318.28000000000003,25.419352349888655
65,327.95,24.748755649777117
66,337.92,24.057354504161527
67,348.19000000000005,23.34514891447167
68,357.12,22.725869871565617
69,363.078055,22.312689747282892
70,366.28000000000003,22.146398606307237
71,374.81,21.703398042423768
72,385.31,21.158086653529175
73,395.2,20.644455331780335
74,405.33,20.118359747393598
75,413.82,19.67743658842527
76,416.86938299999997,19.519068671176353
77,421.51,19.335020189393003
78,430.34000000000003,18.984819322391008
79,441.37999999999994,18.546969150340658
80,450.62,18.18050758694779
81,460.06,17.8061139215902
82,469.68999999999994,17.42418484528733
83,478.630092,17.069617796729425
84,479.53000000000003,17.04216841204782
85,489.57,16.735923892473117
86,499.82,16.423274009279226
87,505.61,16.24666554166601
88,511.46,16.068233235736752
89,519.77,15.814759223906275
90,529.43,15.520107357929584
91,540.52,15.181835626175936
92,549.5408739999999,14.906685187458002
93,550.57,14.882739645927623
94,559.52,14.67449140730276
95,569.92,14.432503702364983
96,580.51,14.186087964373579
97,589.9499999999999,13.966446030396213
98,599.53,13.743538684636704
99,610.68,13.48411053646673
100,620.6,13.253301485479154
101,630.68,13.018769355724848
102,630.957344,13.012316119882666
103,639.46,12.855481850731719
104,649.85,12.663855756161151
105,657.37,12.52516273493818
106,664.99,12.384619803537243
107,674.24,12.214003678675475
108,685.1899999999999,12.012028156888304
109,694.72,11.836321525568234
110,704.39,11.657949149219014
111,715.8299999999999,11.447005352279815
112,724.43596,11.288289439233901
113,725.7900000000001,11.269754180482067
114,734.2,11.154635897914643
115,744.41,11.014926577701996
116,754.77,10.873138691043907
117,765.27,10.729437184963416
118,774.13,10.608216995459687
119,784.9000000000001,10.460847044957408
120,795.82,10.311398242709698
121,805.0300000000001,10.18537028529995
122,814.3499999999999,10.057832729636885
123,825.6800000000001,9.902858797244981
124,831.763771,9.819425424892708
125,835.24,9.78377180946004
126,844.91,9.685166475296596
127,854.7,9.585059428544772
128,864.5899999999999,9.484013707802635
129,874.61,9.381649337173089
130,884.7299999999999,9.278321037553228
131,894.9799999999999,9.173602926045957
132,905.34,9.067619604249337
133,915.8199999999999,8.961951815864346
134,924.3,8.902382149285645
135,935.0,8.833583549321958
136,945.83,8.79492147447086
137,954.58,8.775537187818312
138,954.992586,8.772351308297589
139,965.63,8.69256372615615
140,974.57,8.396623462810872
141,985.85,8.450843195234281
142,994.98,8.384814058126631
143,1004.18,8.42217736542232
144,1015.8100000000001,8.303055299862413
145,1025.21,8.007203576881919
146,1034.7,8.005844125277145
147,1044.27,8.1756000815619
148,1053.93,8.079010509222371
149,1066.14,7.84259622586154
150,1076.0,7.840240223245831
151,1085.96,7.6307035554920315
152,1096.0,7.686544895627762
153,1096.4782,7.681175371027068
154,1106.15,7.5901283568352795
155,1113.81,7.508740374993396
156,1124.12,7.376036958963393
157,1134.52,7.447719960640207
158,1145.02,7.307003093102374
159,1155.61,7.273046543271363
160,1166.31,7.215678137304239
161,1174.39,6.94197370476084
162,1185.26,7.059057321128818
163,1196.22,6.749579755203616
164,1204.52,6.552175210387995
165,1215.6599999999999,6.374267279876431
166,1224.0900000000001,6.54875980508177
167,1235.41,6.728004309983841
168,1243.98,6.744975118288679
169,1255.49,6.615057971682922
170,1258.92541,6.541243677702603
171,1264.19,6.440519794800011
172,1275.89,6.602529674294203
173,1284.73,6.608464127689816
174,1293.64,6.335391051304623
175,1305.6100000000001,6.266232258787142
176,1314.66,6.432826922840343
177,1323.77,6.343222604224283
178,1336.02,6.156264892583586
179,1345.2800000000002,6.292832367294373
180,1354.6,6.213623759335903
181,1363.99,6.049868421596625
182,1373.45,6.053516654076545
183,1386.1599999999999,5.998899075304852
184,1395.77,5.82200480111162
185,1405.44,5.807535544249127
186,1415.18,5.772262057605831
187,1424.9899999999998,5.751693241181732
188,1434.8700000000001,5.693540994976826
189,1441.49,5.716875507135079
190,1445.43977,5.70524244034818
191,1448.15,5.702043778294743
192,1454.83,5.648828833301082
193,1464.92,5.530047488392989
194,1475.07,5.494236162841243
195,1485.29,5.477026659871897
196,1495.59,5.460076782711011
197,1505.96,5.362042328132525
198,1512.91,5.230299770242412
199,1516.3999999999999,5.282529696136443
200,1523.4,5.229547054376617
201,1533.95,5.072199157867165
202,1544.5900000000001,5.11149549039223
203,1555.29,5.02760854227364
204,1566.07,5.002137019963508
205,1573.3,5.028727652403002
206,1584.21,5.034411572031616
207,1595.19,5.006885714242633
208,1606.25,4.952248282262108
209,1613.66,4.936983272770634
210,1624.85,4.843330282728857
211,1636.1100000000001,4.859314415269479
212,1643.66,4.84600845094281
213,1655.06,4.731479828648237
214,1659.58691,4.746266919102377
215,1666.53,4.7774332105717505
216,1670.37,4.668887615623225
217,1678.0800000000002,4.74265230545314
218,1685.8300000000002,4.770136501585674
219,1693.6100000000001,4.692158477445173
220,1705.35,4.618387777264006
221,1713.22,4.5395383923044
222,1725.09,4.503762637606745
223,1733.06,4.543623618403688
224,1745.07,4.488613835765202
225,1753.12,4.5290749291673835
226,1765.28,4.4164609451637205
227,1773.42,4.411359877746795
228,1785.72,4.398801465802301
229,1793.96,4.438163064141925
230,1806.3899999999999,4.399948997680945
231,1814.73,4.290034461777118
232,1823.11,4.29696043217591
233,1835.7499999999998,4.222894123803682
234,1844.22,4.126285633383368
235,1857.0,4.081680897070308
236,1865.57,4.082930872406543
237,1874.19,4.145854680621052
238,1882.8400000000001,4.038169768562526
239,1895.89,3.9570898497921485
240,1904.6399999999999,3.9955291034901723
241,1905.46072,3.9893665382965104
242,1913.43,3.935611380114146
243,1926.69,3.89196994980633
244,1935.5900000000001,3.9156896617415065
245,1944.5200000000002,3.919530756413543
246,1953.5,3.8388236556470132
247,1967.04,3.8939465308832264
248,1976.1200000000001,3.9047612392395625
249,1985.24,3.8277401912450477
250,1994.4,3.784219186899678
251,2003.6100000000001,3.7987848871157426
252,2012.85,3.7451469700686677
253,2026.81,3.7649938036209223
254,2036.1599999999999,3.6837188566090004
255,2045.56,3.6951858141585125
256,2055.0,3.6396817153571717
257,2064.49,3.6258581211172647
258,2074.02,3.658703970526503
259,2078.8,3.588040786599553
260,2083.5899999999997,3.6153322635848903
261,2093.21,3.5462860612047096
262,2102.87,3.539261302473677
263,2112.58,3.524739348304077
264,2127.22,3.504667923891828
265,2137.04,3.430738539757382
266,2146.9,3.4172413992720827
267,2156.81,3.4294662633482176
268,2166.77,3.3863104319857857
269,2176.77,3.356137744272501
270,2186.8199999999997,3.31181706112065
271,2187.7616199999998,3.312984078304938
272,2196.91,3.330518315823531
273,2207.05,3.2942238772484624
274,2217.2400000000002,3.2481152071222352
275,2227.47,3.2031974717550815
276,2232.6099999999997,3.238438188295924
277,2242.91,3.190642088757147
278,2253.27,3.153103491356979
279,2263.67,3.1610462287158825
280,2274.12,3.1645500345236286
281,2284.61,3.166720875090446
282,2295.16,3.1161355177958736
283,2305.75,3.0993927952603726
284,2316.3900000000003,3.0551746411737133
285,2327.09,2.898767089225663
286,2332.4500000000003,2.999868846941406
287,2343.22,2.978540930821734
288,2354.03,2.998346749461133
289,2364.9,2.946146570239142
290,2375.81,2.9441143257762232
291,2386.78,2.8988074834519137
292,2392.2799999999997,2.931340512824412
293,2403.33,2.888377540018248
294,2414.42,2.889057601971156
295,2425.56,2.8979190323729056
296,2436.76,2.855687664913264
297,2442.38,2.88502399856298
298,2453.65,2.8578420669317155
299,2464.98,2.8432489374390606
300,2476.35,2.8068344427054788
301,2487.78,2.820248350110505
302,2493.52,2.7702317880374387
303,2505.0299999999997,2.813438464960611
304,2510.8,2.7531227039568487
305,2511.88643,2.757109133933158
306,2516.59,2.7760664669273427
307,2522.39,2.7388758071809067
308,2534.0299999999997,2.73255966727599
309,2545.73,2.7064679967530063
310,2557.4799999999996,2.727738250714968
311,2563.38,2.7151796399384196
312,2575.21,2.736148953076292
313,2587.1,2.720190035596098
314,2593.06,2.7121997942014846
315,2605.0299999999997,2.6801898358972016
316,2617.05,2.665804702077863
317,2623.09,2.6753113198591603
318,2635.19,2.6688934452157334
319,2647.36,2.692643284851228
320,2653.46,2.6844230720144586
321,2665.71,2.633087970825865
322,2678.01,2.644689894122216
323,2684.19,2.6330731404613577
324,2696.58,2.601765467830609
325,2702.79,2.6049506488607177
326,2715.27,2.5753693803028685
327,2727.8,2.5652104362299637
328,2734.09,2.586493576435984
329,2746.71,2.5119364364359793
330,2753.04,2.5098245562299555
331,2765.75,2.511912820302851
332,2772.1200000000003,2.529289319684782
333,2784.92,2.509105987830578
334,2797.77,2.4029571804613186
335,2804.2200000000003,2.433889639019161
336,2817.17,2.4877638806197906
337,2823.66,2.485826318765589
338,2836.69,2.442545119542129
339,2843.23,2.429210982172872
340,2856.36,2.416772131919301
341,2862.94,2.4355912741379995
342,2876.16,2.41165802795733
343,2882.79,2.409470094660972
344,2884.0315,2.4073855426973325
345,2896.09,2.3908775441332883
346,2909.46,2.40871416005434
347,2929.6299999999997,2.3817587578948487
348,2949.9399999999996,2.359769793598405
349,2970.38,2.3491801216033625
350,2990.97,2.3335534330330145
351,3011.71,2.32275602788736
352,3032.5800000000004,2.308583815043107
353,3046.58,2.2929785013478727
354,3067.7,2.2736687275447762
355,3088.96,2.2591646916047274
356,3110.37,2.2363537390893726
357,3131.93,2.216734269998712
358,3146.39,2.2073792521392055
359,3168.2,2.1859518220897005
360,3190.1600000000003,2.15179487546489
361,3212.27,2.146069412264774
362,3227.1,2.1268826801861795
363,3249.47,2.1146142015888656
364,3272.0,2.0990754519778916
365,3287.1,2.0859981500637463
366,3309.88,2.0686796394939284
367,3311.31121,2.0686371638595418
368,3325.16,2.0712373431408837
369,3332.83,2.0622570008617758
370,3340.5099999999998,2.0330231784753936
371,3348.2099999999996,2.0538980958744637
372,3355.93,2.0277236530589855
373,3363.66,2.0220041301362337
374,3371.42,1.9995539668916598
375,3379.19,2.0213125235398124
376,3386.98,2.039234319973417
377,3394.79,2.028579856192474
378,3402.6099999999997,2.0148390123042565
379,3410.46,1.9889350280942177
380,3418.32,2.003176863776905
381,3426.2,2.008329839245044
382,3434.1,2.002454354498635
383,3442.0099999999998,1.9887249896449528
384,3449.95,1.9828481844694483
385,3457.8999999999996,1.9584802991866699
386,3465.87,1.9553553536893438
387,3473.8599999999997,1.9629128479774698
388,3481.8700000000003,1.9521141820510473
389,3489.9,1.9612928559100777
390,3497.94,1.9535066496618338
391,3506.0099999999998,1.9365420030917684
392,3514.09,1.927308076414429
393,3522.19,1.9362724895225414
394,3530.31,1.926956742416106
395,3538.4500000000003,1.9298699350951227
396,3546.6,1.929756447666866
397,3554.78,1.9296396199167871
398,3562.97,1.9248772120594344
399,3568.73,1.7237213702696477
400,3571.4,1.638157281627507
401,3574.0699999999997,1.8832586929853665
402,3576.74,2.192901904343226
403,3579.3999999999996,1.8915840958083592
404,3582.07,1.4024275071662182
405,3584.7400000000002,1.2287975055240776
406,3587.41,1.6489535298819373
407,3590.07,1.6060247213470702
408,3592.74,2.41911033270493
409,3595.41,2.415936544062789
410,3598.0800000000004,2.0279109554206483
411,3600.75,1.4634262667785076
412,3603.4100000000003,1.368363658243641
413,3606.08,1.6106913696015004
414,3608.75,1.7753049809593597
415,3611.42,2.190536292317219
416,3614.08,1.4036769837823524
417,3616.7500000000005,1.5369893951402114
418,3619.42,1.404354606498071
419,3622.09,1.5392571178559302
420,3624.76,1.6842994292137896
421,3627.42,1.118081820678923
422,3630.09,1.7825272320367822
423,3632.7599999999998,1.4535561433946418
424,3635.43,1.1719590847525012
425,3638.09,1.0112387462176342
426,3640.76,1.9804576575754935
427,3643.43,2.384291468933353
428,3646.1,1.7552227802912126
429,3648.7599999999998,1.5451882717563459
430,3651.43,1.4467235831142051
431,3654.1,1.7890201944720645
432,3656.7699999999995,2.164047905829924
433,3659.44,2.020270917187783
434,3662.1,1.8769037086529163
435,3664.77,1.4773397200107756
436,3667.44,2.252563931368635
437,3670.1099999999997,2.1439228427264947
438,3672.77,1.6925857341916277
439,3675.4399999999996,1.8980245455494873
440,3678.11,2.129904856907346
441,3680.78,2.2270902682652056
442,3683.45,1.4373476796230649
443,3686.11,1.8661291710881982
444,3688.7799999999997,1.7424840824460577
445,3691.45,1.6036551938039167
446,3694.1200000000003,1.9284630051617762
447,3696.78,2.1108744966269093
448,3699.4500000000003,1.5679017079847688
449,3702.12,1.7275474193426283
450,3704.79,1.6651401307004874
451,3707.46,1.6253487420583468
452,3710.12,1.74535943352348
453,3712.7900000000004,1.9242558448813392
454,3715.46,2.0607442562391984
455,3718.13,1.580412767597058
456,3720.79,1.8926493590621913
457,3723.46,2.3375887704200506
458,3726.13,2.48695798177791
459,3728.7999999999997,3.0996821931357696
460,3731.4700000000003,2.8503364044936284
461,3734.13,2.610879895958762
462,3736.8,1.9904035073166213
463,3739.47,1.7583862186744807
464,3742.14,1.8133853300323401
465,3744.7999999999997,1.8543109214974733
466,3747.47,2.072269432855333
467,3750.1400000000003,2.064428144213192
468,3752.81,1.8275632555710515
469,3755.4700000000003,1.6621202470361847
470,3758.14,2.0271932583940444
471,3760.81,2.1181492697519033
472,3763.48,1.9977091811097627
473,3766.1499999999996,2.045736992467622
474,3768.8100000000004,1.761605883932755
475,3771.48,1.5643036952906146
476,3774.15,1.859505006648474
477,3776.82,2.017187018006333
478,3779.48,1.7373026094714663
479,3782.15,1.972989520829326
480,3784.8199999999997,2.1076149321871855
481,3787.4900000000002,1.9554644435450446
482,3790.1600000000003,1.800409754902904
483,3792.82,1.3235189463680372
484,3795.4900000000002,1.8025252577258963
485,3798.16,2.129737369083756
486,3800.83,1.6171139804416153
487,3801.8939600000003,1.570345175319506
488,3803.49,1.5004319876208414
489,3806.1600000000003,1.9905721796813318
490,3808.8300000000004,2.089809671741822
491,3811.5,2.145597763802313
492,3814.17,2.1922918558628037
493,3816.83,2.0239522966421686
494,3819.5,2.1599277887026593
495,3822.1699999999996,2.29017488076315
496,3824.8399999999997,1.6287433728236405
497,3827.5,1.8292492136030054
498,3830.17,1.792831105663496
499,3832.84,1.9072728977239868
500,3835.5099999999998,1.7449146897844772
501,3838.18,1.6713978818449675
502,3840.8399999999997,1.919719822624333
503,3843.5099999999998,2.0904311146848236
504,3846.1800000000003,1.475433206745314
505,3848.85,1.8167955988058047
506,3851.51,2.21217213958517
507,3854.18,2.3665772316456604
508,3856.85,2.151815323706151
509,3859.52,1.8584486157666413
510,3862.18,2.1158862565460064
511,3864.8500000000004,1.935478448606497
512,3867.52,2.3617964406669874
513,3870.19,2.306227532727478
514,3872.86,2.230606624787969
515,3875.52,2.262506465567334
516,3878.19,1.8864271576278244
517,3880.8599999999997,2.2694756496883155
518,3883.53,2.1687947417488056
519,3886.19,2.173631582528171
520,3888.86,1.8199881745886615
521,3891.53,1.4013221666491518
522,3894.2,1.3601571587096426
523,3896.87,2.1660969507701333
524,3899.5299999999997,2.0211152915494983
525,3902.2000000000003,2.0971158836099884
526,3904.87,1.5595607756704792
527,3907.54,1.9173092677309698
528,3910.2,1.978594508510335
529,3912.87,2.4009860005708257
530,3915.54,2.255314092631316
531,3918.2099999999996,2.211644184691807
532,3920.88,2.142794276752297
533,3923.54,2.0480317175316625
534,3926.21,2.292760209592153
535,3928.88,2.4208433016526434
536,3931.5499999999997,1.766843693713134
537,3934.21,1.540730834492499
538,3936.8799999999997,2.14803732655299
539,3939.55,1.5939156186134802
540,3942.2200000000003,1.770235910673971
541,3944.89,1.8693932027344615
542,3947.55,1.8410157435138266
543,3950.22,2.269537535574317
544,3952.89,2.1638086276348076
545,3955.5600000000004,2.236142719695298
546,3958.2200000000003,1.8808259604746633
547,3960.8900000000003,2.2269966525351537
548,3963.56,2.1972687445956445
549,3966.23,1.840501236656135
550,3968.9,1.9314053287166257
551,3971.56,1.487466469495991
552,3974.2300000000005,1.7016873615564811
553,3976.9,1.718734453616972
554,3979.57,1.6161714456774625
555,3982.23,2.1467428864568276
556,3984.9,2.090472978517318
557,3987.5699999999997,1.858623570577809
558,3990.24,1.9486864626382996
559,3992.8999999999996,2.2177630034176645
560,3995.57,2.139818095478155
561,3998.2400000000002,2.7629281875386456
562,4000.91,2.076697279599136
563,4003.58,2.0340485716596266
564,4006.24,2.036080012438992
565,4008.91,2.152905304499482
566,4011.58,2.0345166965599732
567,4014.2499999999995,2.4333894886204637
568,4016.9100000000003,2.3290933293998286
569,4019.58,2.118017421460319
570,4022.25,2.3482025135208096
571,4024.92,2.4119626055813
572,4027.5899999999997,2.127189697641791
573,4030.25,1.9787023384211562
574,4032.9199999999996,2.071990630481647
575,4035.59,2.342479722542137
576,4038.26,2.1534388146026275
577,4040.92,2.1170896553819927
578,4043.59,2.2820917474424833
579,4046.2599999999998,2.195713839502974
580,4048.93,2.1357379315634644
581,4051.6000000000004,2.073678023623955
582,4054.26,1.7243509644033201
583,4056.9300000000003,1.8111689564638107
584,4059.6,2.194338048524301
585,4062.27,2.245218140584792
586,4064.93,2.270466981364157
587,4067.6,2.555260073424648
588,4070.2700000000004,2.043886165485138
589,4072.94,1.9336500575456286
590,4075.6,1.8315552983249939
591,4078.27,2.1455951903854844
592,4080.94,2.297536282445975
593,4083.6099999999997,2.0610193745064658
594,4086.2799999999997,2.038222466566956
595,4088.9399999999996,2.2592233073463213
596,4091.61,2.050029399406812
597,4094.28,2.0429374914673026
598,4096.95,2.1272715835277927
599,4099.610000000001,2.104043424307158
600,4102.28,1.9705299163676486
601,4104.95,1.8842923084281393
602,4107.62,1.74745450048863
603,4110.29,1.6880801925491205
604,4112.95,1.8890671333284854
605,4115.62,1.926085725388976
606,4118.29,2.0991208174494664
607,4120.96,2.291525909509957
