,lambda (Angstroms),Total Flux (erg/s/cm^2/Angstrom)
0,102.00000000000001,4.516808857187643
1,103.9,4.503936155786387
2,104.712855,4.49842897975878
3,106.07000000000001,4.450129942252293
4,108.05,4.379664321721899
5,110.05,4.308486985489082
6,113.91999999999999,4.170758808595097
7,117.92,4.028404151892462
8,120.22644299999999,3.9463226335888133
9,120.95,3.924734146852285
10,124.91,3.806579092118667
11,126.94,3.7460096548039834
12,128.12,3.710801880026158
13,131.1,3.6218872385408694
14,132.01,3.5947364254895637
15,133.85,3.5398362560208017
16,136.96,3.447044521507041
17,138.038426,3.4148675646340387
18,140.15,3.3698343524869396
19,143.09,3.307155443037393
20,147.10000000000002,3.2216932737029085
21,150.87,3.141301310645327
22,155.1,3.0511013626361834
23,158.489319,2.9788309509360906
24,159.07999999999998,2.9693094566417026
25,162.02999999999997,2.9217569045329332
26,166.19,2.8547027059066674
27,170.06,2.792322376762281
28,172.82,2.7478372068554324
29,176.85,2.6828793311831123
30,180.14,2.6298489250024843
31,181.8,2.603095004475176
32,181.970086,2.600353539951059
33,186.04,2.5503130439108466
34,190.81,2.4916698135880835
35,193.91,2.4535594343181537
36,197.97,2.4036442092052774
37,202.12,2.352625828316499
38,204.93,2.3180835674689173
39,208.929613,2.268898752878378
40,210.19,2.2572471349457057
41,216.07999999999998,2.2028455678101544
42,220.09,2.1657984325567488
43,223.15,2.13751983802198
44,226.78,2.1039911833160296
45,229.94,2.0750972943056154
46,234.21,2.0362321206355296
47,239.88329199999998,1.9841634785224174
48,240.22000000000003,1.9817875191630563
49,245.80999999999997,1.9418915500119764
50,252.11999999999998,1.897103222045373
51,256.81,1.8633911911636976
52,259.78000000000003,1.8425278341746616
53,264.0,1.8125946960892314
54,268.91,1.7776396504305902
55,273.90999999999997,1.7420385760450094
56,275.42287,1.7312665522481663
57,279.0,1.7117246797764396
58,284.19,1.6833770073392034
59,290.14000000000004,1.650763800982448
60,296.21000000000004,1.6176411331647167
61,301.03000000000003,1.5912731336488246
62,308.04,1.5530002052201102
63,316.227766,1.5083031173821646
64,318.13,1.500552034533618
65,327.79999999999995,1.4610910103739627
66,337.76,1.4204158225766335
67,348.02,1.3785090824299877
68,356.95,1.3420474629319807
69,363.078055,1.3170386393159144
70,366.09999999999997,1.3078058363153777
71,374.63000000000005,1.281704140914139
72,385.13,1.2494904685198835
73,395.01,1.2193435199965268
74,405.14,1.1883712631542593
75,413.62,1.162403990016803
76,416.86938299999997,1.152449578556163
77,422.28000000000003,1.1397862850957559
78,430.14,1.1213929667282856
79,441.17,1.0956241092380565
80,451.45,1.071565815202739
81,459.84,1.0519181407137979
82,469.47,1.0293912180727365
83,478.630092,1.0079860211618616
84,480.4,1.0048049182113858
85,490.46,0.9866564011529629
86,499.58000000000004,0.970280684072166
87,506.53,0.957759842631208
88,512.4,0.9474658890156072
89,519.52,0.9346607277595466
90,530.4,0.9150696405929818
91,540.26,0.8972543433170326
92,549.5408739999999,0.8806696799866508
93,550.31,0.8796230074507847
94,560.54,0.865734723457261
95,569.65,0.853355941245042
96,580.24,0.8387635041432416
97,589.67,0.8260071782792213
98,600.63,0.8109379362050261
99,610.39,0.7975012268250857
100,620.3100000000001,0.7843417476192445
101,630.38,0.7706070234516216
102,630.957344,0.7698199941534017
103,640.63,0.7593822047356469
104,649.54,0.7498850152999629
105,658.58,0.7401368349162831
106,664.67,0.7337089713524991
107,675.4699999999999,0.722053925672882
108,684.8700000000001,0.7117244564332151
109,694.39,0.7021065842415528
110,705.6800000000001,0.6895758697579529
111,715.49,0.6796854476823009
112,724.43596,0.6701449397055601
113,725.4499999999999,0.6693474630588826
114,735.54,0.6614182667654189
115,745.7700000000001,0.6536100130060398
116,754.41,0.6469613211095557
117,764.9,0.638557826913477
118,775.54,0.6307400765039175
119,784.52,0.6237607131902105
120,795.44,0.6154563508488207
121,804.65,0.60845181634111
122,815.84,0.599793682815455
123,825.2900000000001,0.5929135743661752
124,831.763771,0.5866648845718003
125,834.84,0.5843221787414582
126,844.51,0.5806286406619192
127,854.2900000000001,0.5750585082298725
128,864.18,0.5699327854453181
129,874.1899999999999,0.564664945367119
130,884.31,0.5594719469364121
131,894.5500000000001,0.5540250312120606
132,904.91,0.5479355181940642
133,915.39,0.5463453478824232
134,925.99,0.6252578202771373
135,934.56,0.7386118177226753
136,945.38,0.9246173034123739
137,954.13,1.0917939799174448
138,954.992586,1.0960493767583053
139,965.1700000000001,1.1463901694165575
140,974.0999999999999,0.6001482204167062
141,985.38,1.009498974311631
142,994.5,1.0467426498011445
143,1006.02,1.3247061346300038
144,1015.3299999999999,1.2979226346088821
145,1024.72,0.8351411448990722
146,1034.2,1.0325007667894877
147,1046.18,1.5665893109083882
148,1055.86,1.5354793585770825
149,1065.63,1.285640617846002
150,1075.49,1.4510961887151472
151,1085.44,1.221069471184518
152,1095.48,1.494688665254114
153,1096.4782,1.489808974098908
154,1105.62,1.446096751763705
155,1115.8500000000001,1.3947915928724095
156,1126.1699999999998,1.2808414677738595
157,1133.98,1.53698206689986
158,1144.47,1.4249728389653842
159,1155.06,1.4882783152450698
160,1165.75,1.513826495738917
161,1173.83,1.1414762962431528
162,1184.69,1.468932273901074
163,1195.65,1.1171064557731565
164,1203.94,0.9005703351271314
165,1215.0800000000002,0.7459747845847042
166,1226.32,1.1108960382564386
167,1234.82,1.4935145964601522
168,1246.25,1.597934388138793
169,1254.8899999999999,1.5320476322423326
170,1258.92541,1.4524068522859601
171,1263.59,1.3609957153687586
172,1275.28,1.6663639346661794
173,1284.12,1.7291863879244516
174,1296.0,1.4128151916244822
175,1304.99,1.3997680009900781
176,1314.03,1.6839875957247816
177,1326.1899999999998,1.6155579974918164
178,1335.3799999999999,1.4581619483338437
179,1344.64,1.686028798692622
180,1353.9599999999998,1.6362099914943296
181,1366.49,1.4821670049927627
182,1375.96,1.5400655539017938
183,1385.5,1.5482290023275762
184,1395.1,1.3613637931962879
185,1404.77,1.3954864835817506
186,1414.51,1.4415060734839646
187,1424.31,1.4676860058291077
188,1434.1899999999998,1.4615803947648238
189,1440.81,1.5263111776347063
190,1445.43977,1.5408691615502692
191,1447.46,1.5474316796968421
192,1454.1399999999999,1.5055363400105546
193,1464.22,1.402687911262384
194,1474.3700000000001,1.4028486600923513
195,1484.5900000000001,1.4240975865004561
196,1494.88,1.4430936904866987
197,1505.24,1.372229972051079
198,1512.1899999999998,1.2454415458804655
199,1515.67,1.314951431193597
200,1526.18,1.2884336647111296
201,1536.76,1.1468257758068
202,1543.85,1.2333286047924616
203,1554.5500000000002,1.1759864774506537
204,1565.3300000000002,1.1970887244838604
205,1576.18,1.2740616490952044
206,1583.45,1.328200520424649
207,1594.43,1.355897803395392
208,1605.48,1.3278932639442727
209,1616.61,1.3227044988681675
210,1624.07,1.2554607093382715
211,1635.3300000000002,1.328256702621565
212,1646.67,1.3562404702798734
213,1654.27,1.2505680359062528
214,1659.58691,1.3023062696962635
215,1665.73,1.3625262904149542
216,1673.4199999999998,1.2099640357644152
217,1677.28,1.4141582336901521
218,1685.0200000000002,1.4661194632096355
219,1696.6999999999998,1.3678435253268924
220,1704.53,1.3250216063524163
221,1716.3500000000001,1.285464104145736
222,1724.27,1.2816760366773006
223,1736.22,1.3638406533126783
224,1744.24,1.3337077541842879
225,1756.3300000000002,1.423014806495729
226,1764.4299999999998,1.2947394420393747
227,1776.6599999999999,1.341252930026879
228,1784.8700000000001,1.3530010507445738
229,1793.1,1.459447805130278
230,1805.53,1.431610629797872
231,1813.87,1.3507628693576255
232,1826.44,1.3566101297012827
233,1834.8700000000001,1.3005242207670766
234,1843.34,1.2019915791688884
235,1856.12,1.2256574930266402
236,1864.69,1.272864019768497
237,1873.29,1.3354664970123677
238,1886.28,1.2568540643842139
239,1894.98,1.2334847099681294
240,1903.7299999999998,1.2712869397220676
241,1905.46072,1.2680745163562879
242,1916.93,1.247301949659203
243,1925.77,1.2196235776886881
244,1934.66,1.201942038455896
245,1943.5900000000001,1.301870565413283
246,1957.07,1.2399128715034928
247,1966.1000000000001,1.3465610639363266
248,1975.17,1.3644433225593384
249,1984.29,1.304634413920074
250,1993.45,1.2727225714709884
251,2007.27,1.2837399401777168
252,2016.53,1.2473387632040778
253,2025.84,1.2763434189681617
254,2035.19,1.2475211409224247
255,2044.59,1.2997986956144107
256,2054.02,1.230392549949031
257,2063.5,1.2292232370213743
258,2073.0299999999997,1.3360677568314412
259,2077.81,1.3087911665577916
260,2087.4,1.3369902856531264
261,2097.03,1.27011847093864
262,2106.71,1.2537174889618767
263,2116.44,1.267720339722837
264,2126.21,1.2845232566739757
265,2136.02,1.179472239815293
266,2145.88,1.231384055694334
267,2155.79,1.2654257043110981
268,2165.74,1.2141724191180407
269,2175.73,1.2080742001151623
270,2185.7799999999997,1.204400580397552
271,2187.7616199999998,1.2149235487599548
272,2195.86,1.2582513548605172
273,2206.0,1.2222321814759356
274,2216.1800000000003,1.1520346701292847
275,2226.41,1.123984386330047
276,2236.69,1.2138181300782225
277,2247.01,1.1591529358643289
278,2257.38,1.1027950691978485
279,2262.5899999999997,1.120796999638315
280,2273.03,1.155529591538213
281,2283.52,1.1940012109855247
282,2294.06,1.1219311579802496
283,2304.65,1.1405519325223876
284,2315.29,1.091500534611939
285,2325.98,0.8751862642489038
286,2336.71,1.0002523559237992
287,2347.5,0.9502928406555905
288,2352.91,1.0602469812857103
289,2363.77,0.9505271245838802
290,2374.6800000000003,0.9950831954294634
291,2385.64,0.8998402938224601
292,2396.66,0.9623854852723527
293,2407.7200000000003,0.9325398387601758
294,2413.27,0.9569563965230529
295,2424.41,1.0389491740867374
296,2435.6,1.006341379197835
297,2446.84,1.060752811856346
298,2452.48,1.052351059204567
299,2463.7999999999997,1.0420762159389394
300,2475.17,0.9991146002207252
301,2486.6,1.009463077559407
302,2492.33,0.9429794144929717
303,2503.8300000000004,1.079789650398032
304,2511.88643,0.9807180225032239
305,2515.3900000000003,0.9377084088014842
306,2527.0,0.9122283382030086
307,2532.83,0.9308336484881842
308,2544.52,0.9237947037598313
309,2556.26,1.0037518502003049
310,2562.16,0.9681116081218375
311,2573.98,1.0292828804324337
312,2585.8599999999997,1.0152680221456214
313,2597.8,0.9953287332614011
314,2603.7900000000004,0.9599348952868216
315,2615.81,0.9373680322727239
316,2627.88,1.0067693604274528
317,2633.94,1.0511794700892303
318,2646.1,1.163651302347847
319,2652.2000000000003,1.200898024944686
320,2664.44,1.0678705830734248
321,2676.7400000000002,1.1250782106047557
322,2682.91,1.1277575808379519
323,2695.29,1.0627948342394051
324,2707.73,1.1036776570434503
325,2713.97,1.0355745749130039
326,2726.5,1.0319012018209368
327,2732.79,1.0868327108593165
328,2745.4,0.917210863637372
329,2758.07,0.9538139858180193
330,2764.43,0.9980370424927564
331,2777.19,1.0492170687772915
332,2783.59,0.9586394383870896
333,2796.44,0.7470761687755125
334,2802.8900000000003,0.8010318295541373
335,2815.82,1.0315849858126827
336,2822.31,1.1167121595263687
337,2835.34,1.0829905981225671
338,2841.88,1.0478465630050797
339,2854.9999999999995,0.991391805705166
340,2868.17,1.114507739574079
341,2874.79,1.1218811303267138
342,2884.0315,1.1158473493821917
343,2888.0499999999997,1.1132970661648591
344,2894.7099999999996,1.1067896146909766
345,2908.0699999999997,1.2230229552779024
346,2928.23,1.1690476967623655
347,2948.5299999999997,1.1510142906182488
348,2968.9700000000003,1.1796477368455516
349,2989.55,1.1862700354442746
350,3010.27,1.2031031864144173
351,3031.14,1.2022087506396528
352,3052.15,1.206470167236308
353,3073.2999999999997,1.2210884362043832
354,3087.49,1.232712330136156
355,3108.8900000000003,1.2344716211960525
356,3130.44,1.2153283255110416
357,3152.14,1.2275124430811235
358,3166.6899999999996,1.2339845288251186
359,3188.64,1.1665116684870216
360,3210.7400000000002,1.2139672214040176
361,3232.9999999999995,1.1500237484597788
362,3247.92,1.2379885868996694
363,3270.44,1.288773696930925
364,3293.1,1.2824556593336003
365,3308.3,1.2809912025163304
366,3311.31121,1.2834380136717924
367,3323.58,1.2935643746917305
368,3331.24,1.2943401229011124
369,3338.92,1.232461249043156
370,3346.6099999999997,1.30430106415153
371,3354.33,1.252641946158897
372,3362.06,1.218772517132594
373,3369.81,1.273204466038953
374,3377.58,1.2228197928779738
375,3385.36,1.2421338086833251
376,3393.1699999999996,1.3175348913876688
377,3400.99,1.3978526630583432
378,3408.83,1.2742598126616793
379,3416.69,1.2833173401976767
380,3424.57,1.3614622456663361
381,3432.46,1.404393840101326
382,3440.37,1.3367738124689776
383,3448.3,1.2373061627692907
384,3456.25,1.2705928910022655
385,3464.2200000000003,1.2071079971679017
386,3472.21,1.3198464812661994
387,3480.21,1.2242816543308281
388,3488.23,1.2903312053281182
389,3496.2700000000004,1.2634421342580702
390,3504.33,1.3202264411206834
391,3512.4100000000003,1.2842961259159582
392,3520.51,1.3363051886438948
393,3528.6299999999997,1.223400629304493
394,3536.7599999999998,1.317769758931422
395,3544.91,1.3623272664910122
396,3553.08,1.378107151983264
397,3560.4,1.3985894753373993
398,3563.06,1.5891407403813884
399,3565.72,1.5547060054253772
400,3568.3900000000003,1.242003959435697
401,3571.05,1.250672224479686
402,3573.71,1.4843494895236753
403,3576.37,1.463968754567664
404,3579.03,1.1268790196116532
405,3581.69,0.9892938846556422
406,3584.35,1.1655015496996313
407,3587.0099999999998,1.1659968147436202
408,3589.6699999999996,1.3561390797876092
409,3592.3300000000004,1.2574853448315984
410,3594.9900000000002,1.3944716098755872
411,3597.65,1.2917198749195764
412,3600.31,1.2845021399635652
413,3602.97,1.3130334050075545
414,3605.63,1.2721146700515433
415,3608.29,1.0828689350955323
416,3610.95,1.2684062001395215
417,3613.6099999999997,1.2242814651835103
418,3616.27,1.4170747302274995
419,3618.9300000000003,1.0889029952714884
420,3621.59,1.1042972603154773
421,3624.25,1.1777875253594665
422,3626.91,1.3208967904034554
423,3629.5699999999997,1.2961300554474446
424,3632.23,1.3732843204914336
425,3634.89,1.2578285855354225
426,3637.5499999999997,1.3263048505794115
427,3640.21,1.3954561156234004
428,3642.88,1.3704400696337204
429,3645.54,1.1584383346777094
430,3648.2,1.4161255997216984
431,3650.86,1.4353278647656873
432,3653.52,1.3319011298096766
433,3656.18,1.3444743948536655
434,3658.8399999999997,1.3292776598976546
435,3661.4999999999995,1.4099509249416435
436,3664.1600000000003,1.4042521899856324
437,3666.82,1.1787984550296216
438,3669.48,1.3812347200736106
439,3672.14,1.4484809851175997
440,3674.7999999999997,1.4855942501615886
441,3677.46,1.4622495152055777
442,3680.12,1.4187517802495666
443,3682.7799999999997,1.4021320452935555
444,3685.4399999999996,1.3334903103375446
445,3688.1000000000004,1.5242105753815336
446,3690.76,1.2834978404255228
447,3693.42,1.3519261054695118
448,3696.08,1.3330883705135008
449,3698.74,1.3056936355574897
450,3701.4,1.2024839006014787
451,3704.06,1.2234211656454679
452,3706.72,1.3304684306894567
453,3709.38,1.2714216957334459
454,3712.04,1.4045029607774349
455,3714.7000000000003,1.5600762258214238
456,3717.36,2.2691584908654128
457,3720.0299999999997,3.1286734448757327
458,3722.69,3.756562709919722
459,3725.35,3.5144519749637104
460,3728.0099999999998,2.6786012400076995
461,3730.6699999999996,1.8898555050516888
462,3733.3300000000004,1.4804697700956777
463,3735.9900000000002,1.4220980351396668
464,3738.65,1.3933053001836557
465,3741.31,1.4182925652276448
466,3743.97,1.3452168302716336
467,3746.63,1.4599530953156228
468,3749.29,1.5374443603596117
469,3751.95,1.562384625403601
470,3754.6099999999997,1.4887538904475899
471,3757.27,1.5074021554915789
472,3759.9300000000003,1.6095304205355678
473,3762.59,1.3751336855795568
474,3765.25,1.477285950623546
475,3767.91,1.533975215667535
476,3770.5699999999997,1.474927480711524
477,3773.23,1.683390745755513
478,3775.89,1.825777010799502
479,3778.55,1.8062652758434912
480,3781.21,1.83122954088748
481,3783.87,1.738721805931469
482,3786.53,1.665863070975458
483,3789.19,1.3787203360194469
484,3791.85,1.267072601063436
485,3794.5099999999998,1.390029866107425
486,3797.18,1.500756820117745
487,3799.8399999999997,1.479654085161734
488,3801.8939600000003,1.6773834594286308
489,3802.4999999999995,1.735730817233747
490,3805.1600000000003,1.9418550778795836
491,3807.82,1.76704933852542
492,3810.48,1.8091045991712564
493,3813.14,1.789519859817093
494,3815.7999999999997,1.7654511204629295
495,3818.46,1.8331563811087659
496,3821.12,1.7314896417546026
497,3823.7799999999997,1.431425902400439
498,3826.44,1.4138421630462754
499,3829.1,1.3199134236921122
500,3831.76,1.2462096843379487
501,3834.42,1.331343944983785
502,3837.08,1.6273362056296217
503,3839.74,1.663991466275458
504,3842.4,1.6587507269212944
505,3845.06,1.9803679875671312
506,3847.7200000000003,1.8947562482129676
507,3850.38,1.884862508858804
508,3853.04,1.8254297695046406
509,3855.7000000000003,1.9701790301504771
510,3858.36,1.9062142907963138
511,3861.02,1.9612395514421503
512,3863.68,1.8600298120879868
513,3866.3399999999997,2.064515072733823
514,3869.0,1.8890583333796598
515,3871.6600000000003,1.7209775940254963
516,3874.3300000000004,1.694826633846693
517,3876.9900000000002,1.6286208944925296
518,3879.65,1.553278155138366
519,3882.31,1.4233824157842028
520,3884.97,1.337866676430039
521,3887.63,1.3864309370758756
522,3890.29,1.7146291977217123
523,3892.95,1.7613854583675488
524,3895.61,1.9116307190133852
525,3898.27,2.0479899796592216
526,3900.9300000000003,2.0578882403050582
527,3903.59,2.0405695009508946
528,3906.25,1.8959207615967313
529,3908.91,1.9922150222425679
530,3911.5699999999997,2.0843402828884043
531,3914.23,1.900952543534241
532,3916.89,1.9426218041800773
533,3919.55,1.8973880648259138
534,3922.21,1.9477363254717504
535,3924.87,1.6552185861175868
536,3927.53,1.4551008467634232
537,3930.19,1.61178210740926
538,3932.85,1.6041063680550964
539,3935.5099999999998,1.581074628700933
540,3938.1699999999996,1.6900978893467695
541,3940.8300000000004,1.993467149992606
542,3943.4900000000002,2.1117714106384424
543,3946.15,2.103227671284279
544,3948.81,2.0583069319301157
545,3951.48,2.010579971751312
546,3954.14,1.952714232397149
547,3956.7999999999997,1.6654524930429853
548,3959.46,1.448894753688822
549,3962.12,1.4092540143346584
550,3964.7799999999997,1.3616092749804949
551,3967.44,1.2933295356263315
552,3970.1,1.379909796272168
553,3972.76,1.5727510569180043
554,3975.42,1.802426317563841
555,3978.08,1.8419745782096775
556,3980.74,1.8725318388555139
557,3983.4,2.0000200995013504
558,3986.06,2.1217473601471872
559,3988.7200000000003,2.062314620793024
560,3991.38,1.9978198814388601
561,3994.04,2.0850751420846967
562,3996.7000000000003,2.1147644027305335
563,3999.36,2.0976626633763695
564,4002.02,2.093409924022206
565,4004.68,1.9947561846680428
566,4007.3399999999997,2.0544574453138793
567,4010.0000000000005,2.234618705959716
568,4012.6600000000003,2.1644589666055523
569,4015.32,2.1371842272513883
570,4017.98,2.1204444878972253
571,4020.64,2.165537748543062
572,4023.3,2.157307009188898
573,4025.97,2.0090560490100953
574,4028.63,2.0258243096559316
575,4031.29,2.006793570301768
576,4033.95,2.1249288309476047
577,4036.61,2.126750091593441
578,4039.27,2.1219433522392777
579,4041.9300000000003,2.089775612885114
580,4044.59,2.2112368735309507
581,4047.25,2.2060921341767874
582,4049.91,2.1094883948226237
583,4052.5699999999997,2.0276606554684604
584,4055.23,2.030590916114297
585,4057.8900000000003,2.0424661767601333
586,4060.55,2.1585764374059697
587,4063.21,2.1298306980518062
588,4065.87,2.007431958697643
589,4068.53,1.9779642193434794
590,4071.19,2.114999479989316
591,4073.85,2.0493227406351524
592,4076.5099999999998,2.0451910012809886
593,4079.1699999999996,1.9277822619268254
594,4081.8300000000004,1.8923355225726621
595,4084.4900000000002,1.8301547832184986
596,4087.15,1.811028043864335
597,4089.81,1.7276573045101715
598,4092.4700000000003,1.759395565156008
