,lambda (Angstroms),Total Flux (erg/s/cm^2/Angstrom)
0,102.00000000000001,0.04655387793931131
1,103.9,0.054492149785923934
2,104.712855,0.05788828871328565
3,106.07000000000001,0.05315718339282268
4,108.05,0.04625476063474883
5,110.05,0.03928261643558568
6,113.91999999999999,0.025791517411575947
7,117.92,0.011847229018600712
8,120.22644299999999,0.003806802478160799
9,120.95,0.003690088364066134
10,124.91,0.0030513164250402154
11,126.94,0.002723865162908633
12,128.12,0.0025335240398236462
13,131.1,0.002052832071115363
14,132.01,0.0019060436473348234
15,133.85,0.0016092405953802612
16,136.96,0.0011075790539619968
17,138.038426,0.0009336225052894644
18,140.15,0.0009215931727440231
19,143.09,0.0009048470051219925
20,147.10000000000002,0.0008820119609481991
21,150.87,0.0008605397516518574
22,155.1,0.0008364490338331503
23,158.489319,0.000817148774685958
24,159.07999999999998,0.0008119798973832132
25,162.02999999999997,0.0007861671755533304
26,166.19,0.0007497702098671902
27,170.06,0.0007159149242299875
28,172.82,0.0006917748000580294
29,176.85,0.0006565287429852061
30,180.14,0.0006277571460758792
31,181.8,0.0006132474420550634
32,181.970086,0.0006117605319949636
33,186.04,0.000623269855043955
34,190.81,0.0006367796309962679
35,193.91,0.0006455675295072049
36,197.97,0.0006570855917053999
37,202.12,0.0006688761688555252
38,204.93,0.0006768774944880197
39,208.929613,0.000688244942837453
40,210.19,0.0007098367888190195
41,216.07999999999998,0.0008108731504761481
42,220.09,0.0008796732014697113
43,223.15,0.0009321706660508343
44,226.78,0.000994534127279421
45,229.94,0.0010497377301671165
46,234.21,0.0011252382741577685
47,239.88329199999998,0.0012245559557928641
48,240.22000000000003,0.001219946206090321
49,245.80999999999997,0.0011420606741464863
50,252.11999999999998,0.001055219361440654
51,256.81,0.000988707998949314
52,259.78000000000003,0.0009492561090560771
53,264.0,0.000891708851867708
54,268.91,0.0008242687975324244
55,273.90999999999997,0.0007556451283518925
56,275.42287,0.0007349326677089875
57,279.0,0.000790179211960231
58,284.19,0.0008704201871078395
59,290.14000000000004,0.0009615392560150219
60,296.21000000000004,0.0010562212944631882
61,301.03000000000003,0.0011310440193594256
62,308.04,0.0012407338708786426
63,316.227766,0.0013694318896797697
64,318.13,0.001349752770062014
65,327.79999999999995,0.0012499297738959908
66,337.76,0.0011471454012885864
67,348.02,0.001041357557879755
68,356.95,0.0009502701743572529
69,363.078055,0.0008882190167906803
70,366.09999999999997,0.000916909073129383
71,374.63000000000005,0.000998056840838989
72,385.13,0.0010945361498953606
73,395.01,0.001191937773197928
74,405.14,0.0012902377912399324
75,413.62,0.0013718776480016502
76,416.86938299999997,0.0014024275500711448
77,422.28000000000003,0.0014346833105729558
78,430.14,0.0014829140627233856
79,441.17,0.0015525938165680737
80,451.45,0.0016151267463526062
81,459.84,0.0016666668155055464
82,469.47,0.001726999324437944
83,478.630092,0.0017844168013733265
84,480.4,0.0017744037488107893
85,490.46,0.0017133060706329703
86,499.58000000000004,0.0016661076323644104
87,506.53,0.0016215392904821203
88,512.4,0.0015994140689211068
89,519.52,0.001559962279395652
90,530.4,0.0014950781302331601
91,540.26,0.0014321681669296517
92,549.5408739999999,0.0013807099940181607
93,550.31,0.0013799554765951702
94,560.54,0.0013768028962566322
95,569.65,0.001376201801937562
96,580.24,0.001358854486807052
97,589.67,0.0013569735393395626
98,600.63,0.001336177669006192
99,610.39,0.0012986068479793951
100,620.3100000000001,0.0013335254003783881
101,630.38,0.0013231554466140597
102,630.957344,0.0013227743927495543
103,640.63,0.0013664004843954667
104,649.54,0.0014104865264372812
105,658.58,0.0014466934371059688
106,664.67,0.0014850711981648518
107,675.4699999999999,0.0015289878763973543
108,684.8700000000001,0.0015543352463404593
109,694.39,0.0016391401027083686
110,705.6800000000001,0.0016623936088421606
111,715.49,0.0017472217490700171
112,724.43596,0.0017919826023823529
113,725.4499999999999,0.0017957589642529864
114,735.54,0.0018324521069061758
115,745.7700000000001,0.0018902869850372095
116,754.41,0.001936086431669871
117,764.9,0.0019497444042597578
118,775.54,0.0020446092005759063
119,784.52,0.002090541647654761
120,795.44,0.002149801714926597
121,804.65,0.0022029236917190526
122,815.84,0.0022563998416981596
123,825.2900000000001,0.0023413851364526336
124,831.763771,0.0022666120491504583
125,834.84,0.002214560097756347
126,844.51,0.0023643316963289644
127,854.2900000000001,0.0023578545060539066
128,864.18,0.0023973283269311755
129,874.1899999999999,0.002439005341792799
130,884.31,0.0025035843678067474
131,894.5500000000001,0.0025409635878050514
132,904.91,0.002500679001787711
133,915.39,0.003252866609754725
134,925.99,0.015835887411706093
135,934.56,0.033863455098755456
136,945.38,0.06640100892301148
137,954.13,0.10078189390103738
138,954.992586,0.10103773689664872
139,965.1700000000001,0.10408790558493096
140,974.0999999999999,0.015384468970903063
141,985.38,0.07439564482686783
142,994.5,0.09224720764658403
143,1006.02,0.15928573383990974
144,1015.3299999999999,0.16313351609337004
145,1024.72,0.07377015179261731
146,1034.2,0.10368593511837494
147,1046.18,0.23473506362497581
148,1055.86,0.2349235305652009
149,1065.63,0.16939164513193633
150,1075.49,0.21811750732518215
151,1085.44,0.15799561714493832
152,1095.48,0.2410397745912048
153,1096.4782,0.24035557437373378
154,1105.62,0.23407814349255732
155,1115.8500000000001,0.2191104113047179
156,1126.1699999999998,0.19366961519733733
157,1133.98,0.2774205906238255
158,1144.47,0.24855288489064506
159,1155.06,0.2776011970246412
160,1165.75,0.2887160270258139
161,1173.83,0.18308231069367872
162,1184.69,0.28580743106905154
163,1195.65,0.17054026931160085
164,1203.94,0.10871167050053646
165,1215.0800000000002,0.09325027090400359
166,1226.32,0.20044390917464724
167,1234.82,0.3380017278846536
168,1246.25,0.3773503101029327
169,1254.8899999999999,0.3525557738269862
170,1258.92541,0.32427276999104393
171,1263.59,0.2915891283179247
172,1275.28,0.4153625427561091
173,1284.12,0.4474944879771143
174,1296.0,0.31683792702977726
175,1304.99,0.3142016916832655
176,1314.03,0.4378516628142481
177,1326.1899999999998,0.41699803814087955
178,1335.3799999999999,0.3479766287043453
179,1344.64,0.4609515283363032
180,1353.9599999999998,0.4466306357412543
181,1366.49,0.3825782590013441
182,1375.96,0.4167624858387784
183,1385.5,0.4237308217447047
184,1395.1,0.36677276542362436
185,1404.77,0.38416681817103604
186,1414.51,0.38874947998693987
187,1424.31,0.41377224957583697
188,1434.1899999999998,0.40916722952872503
189,1440.81,0.44215478714898004
190,1445.43977,0.4513005402868917
191,1447.46,0.4552913065945498
192,1454.1399999999999,0.4385753329102206
193,1464.22,0.3955016289075202
194,1474.3700000000001,0.3992048325159122
195,1484.5900000000001,0.4160931437353965
196,1494.88,0.4297098625659732
197,1505.24,0.4001146890076423
198,1512.1899999999998,0.3435160446803836
199,1515.67,0.3803558230604037
200,1526.18,0.3623744658115564
201,1536.76,0.30283181617380145
202,1543.85,0.3545576870687274
203,1554.5500000000002,0.3331182504785594
204,1565.3300000000002,0.3368457225867826
205,1576.18,0.36408770230609816
206,1583.45,0.3932788927724045
207,1594.43,0.40316698662660594
208,1605.48,0.39834788809189964
209,1616.61,0.4045593982555847
210,1624.07,0.3762731093805703
211,1635.3300000000002,0.4103352336791411
212,1646.67,0.41861916667610316
213,1654.27,0.3804679930232735
214,1659.58691,0.4013474642813645
215,1665.73,0.4254755489528617
216,1673.4199999999998,0.3634023550745962
217,1677.28,0.4280383200459739
218,1685.0200000000002,0.46006336586941016
219,1696.6999999999998,0.4260343401869471
220,1704.53,0.40535825747344656
221,1716.3500000000001,0.3762002429557484
222,1724.27,0.3764759317053111
223,1736.22,0.4103500204120376
224,1744.24,0.40129298856500384
225,1756.3300000000002,0.43836128843649536
226,1764.4299999999998,0.3919086201121844
227,1776.6599999999999,0.40412383114844097
228,1784.8700000000001,0.415651550167874
229,1793.1,0.4559085850679877
230,1805.53,0.45309265491105133
231,1813.87,0.407801877154909
232,1826.44,0.42041075816273765
233,1834.8700000000001,0.40073385186965854
234,1843.34,0.36146377733794083
235,1856.12,0.35911032509291696
236,1864.69,0.3760992299646028
237,1873.29,0.4219590586573098
238,1886.28,0.3796948731594334
239,1894.98,0.36435518125554395
240,1903.7299999999998,0.39126192905335627
241,1905.46072,0.3886212149972755
242,1916.93,0.371100664281313
243,1925.77,0.366828716375948
244,1934.66,0.3805367172946477
245,1943.5900000000001,0.3992630772725991
246,1957.07,0.36998668024043624
247,1966.1000000000001,0.416855737866517
248,1975.17,0.4303458545518495
249,1984.29,0.4024611200612467
250,1993.45,0.3895637446298956
251,2007.27,0.40387339960137253
252,2016.53,0.38376672181815086
253,2025.84,0.40906989285899387
254,2035.19,0.38157972295908854
255,2044.59,0.403884901883248
256,2054.02,0.38282565010184616
257,2063.5,0.38167104714450906
258,2073.0299999999997,0.4152341930112366
259,2077.81,0.3945928005918198
260,2087.4,0.4147063850474249
261,2097.03,0.3876058285622819
262,2106.71,0.38813332090120345
263,2116.44,0.3931395620641897
264,2126.21,0.39909896228642777
265,2136.02,0.3627899215679175
266,2145.88,0.3785425296734719
267,2155.79,0.395878086603091
268,2165.74,0.3802245025919619
269,2175.73,0.37539137764008446
270,2185.7799999999997,0.36887629127708466
271,2187.7616199999998,0.37270604379658834
272,2195.86,0.38837217168479793
273,2206.0,0.37466304636900916
274,2216.1800000000003,0.34996855369497265
275,2226.41,0.3368432018231266
276,2236.69,0.36728329075347094
277,2247.01,0.34960411232556754
278,2257.38,0.3294880746998546
279,2262.5899999999997,0.34116102628809325
280,2273.03,0.35576294578544687
281,2283.52,0.37185370608499085
282,2294.06,0.3488612071867252
283,2304.65,0.3506737490906499
284,2315.29,0.3289988317967651
285,2325.98,0.2413973553050706
286,2336.71,0.29975461145512844
287,2347.5,0.28974901656781477
288,2352.91,0.324373931364815
289,2363.77,0.29000629360056784
290,2374.6800000000003,0.30312359663851113
291,2385.64,0.27730684047864473
292,2396.66,0.30345563328140684
293,2407.7200000000003,0.2893353587259212
294,2413.27,0.30164438776905456
295,2424.41,0.33010917849707366
296,2435.6,0.31764461002728306
297,2446.84,0.34287088235968294
298,2452.48,0.33982988484675897
299,2463.7999999999997,0.3361354224626634
300,2475.17,0.32196670088075824
301,2486.6,0.3296492282614815
302,2492.33,0.3127690041925003
303,2503.8300000000004,0.35919228869629016
304,2511.88643,0.3226244828959332
305,2515.3900000000003,0.3067179565620552
306,2527.0,0.3019873897706637
307,2532.83,0.312679748479207
308,2544.52,0.30714695642138046
309,2556.26,0.346297148572032
310,2562.16,0.32933578517244455
311,2573.98,0.357911252056661
312,2585.8599999999997,0.35079579999105115
313,2597.8,0.34460042897561494
314,2603.7900000000004,0.32995783715128807
315,2615.81,0.3248850408694168
316,2627.88,0.3490510287960236
317,2633.94,0.377529414863566
318,2646.1,0.42666747436543334
319,2652.2000000000003,0.45619274779975827
320,2664.44,0.38595028203519044
321,2676.7400000000002,0.4146943973207964
322,2682.91,0.4195903486469906
323,2695.29,0.39186103866616145
324,2707.73,0.415271109735506
325,2713.97,0.38064793895356946
326,2726.5,0.37477168159817453
327,2732.79,0.4034940950247161
328,2745.4,0.3298151124028861
329,2758.07,0.3455021108312298
330,2764.43,0.36857170214964063
331,2777.19,0.39149417215324483
332,2783.59,0.3572131508384382
333,2796.44,0.2750532924173029
334,2802.8900000000003,0.3002420553109743
335,2815.82,0.388584771623404
336,2822.31,0.4310496218838578
337,2835.34,0.4157179066132436
338,2841.88,0.3962490410821755
339,2854.9999999999995,0.36581379738682185
340,2868.17,0.44297193789994627
341,2874.79,0.4628985471024431
342,2884.0315,0.45357404929435907
343,2888.0499999999997,0.44952070238170544
344,2894.7099999999996,0.4590486593345217
345,2908.0699999999997,0.5284860729816127
346,2928.23,0.49941644267662416
347,2948.5299999999997,0.4907414114667399
348,2968.9700000000003,0.5119382793519599
349,2989.55,0.517129746332284
350,3010.27,0.5320653124077125
351,3031.14,0.5386911775136098
352,3052.15,0.5441492417146113
353,3073.2999999999997,0.5573046050107171
354,3087.49,0.568000913293069
355,3108.8900000000003,0.5817415749732895
356,3130.44,0.5729473356839788
357,3152.14,0.576114095425137
358,3166.6899999999996,0.589879501380614
359,3188.64,0.5472669595058869
360,3210.7400000000002,0.5855164166616287
361,3232.9999999999995,0.5382502727832039
362,3247.92,0.6154376763471707
363,3270.44,0.6615062307882251
364,3293.1,0.6545404843243838
365,3308.3,0.6534187860785592
366,3311.31121,0.6529046537458462
367,3323.58,0.6508084507082381
368,3331.24,0.6661575042539039
369,3338.92,0.6134092553284095
370,3346.6099999999997,0.6820659051673351
371,3354.33,0.6530963512995205
372,3362.06,0.5972531961961257
373,3369.81,0.651997438621571
374,3377.58,0.6344293785758559
375,3385.36,0.6509013172945609
376,3393.1699999999996,0.6944131523065257
377,3400.99,0.7528596860829103
378,3408.83,0.6728012173881349
379,3416.69,0.6607383462221993
380,3424.57,0.7262981725851035
381,3432.46,0.7554867977124278
382,3440.37,0.7118515203685918
383,3448.3,0.6362259405535956
384,3456.25,0.6696287582674394
385,3464.2200000000003,0.623893673510123
386,3472.21,0.7149894862816466
387,3480.21,0.6406056978175899
388,3488.23,0.6851699068823732
389,3496.2700000000004,0.6715247134759962
390,3504.33,0.7299235175984592
391,3512.4100000000003,0.699101319249762
392,3520.51,0.7494592184299048
393,3528.6299999999997,0.6325103151388873
394,3536.7599999999998,0.7298939106122898
395,3544.91,0.7699941036145322
396,3553.08,0.7829322941456144
397,3560.59,0.8018607662249811
398,3563.25,0.9035798375606824
399,3565.91,0.8224724088963836
400,3568.5699999999997,0.8032489802320848
401,3571.23,1.074930751567786
402,3573.8900000000003,0.9838340229034871
403,3576.55,0.8409150942391883
404,3579.21,0.7744501655748895
405,3581.87,0.5716446369105906
406,3584.53,0.7441654082462918
407,3587.19,0.465636779581993
408,3589.85,0.5631897509176942
409,3592.5099999999998,0.7195573222533954
410,3595.1699999999996,0.7063030935890965
411,3597.8300000000004,0.9195118649247978
412,3600.4900000000002,0.863450236260499
413,3603.15,0.8409134075962001
414,3605.81,0.5643822789319013
415,3608.47,0.7615839502676024
416,3611.13,0.7537143216033036
417,3613.7999999999997,0.6620774917034248
418,3616.46,0.8782089630391259
419,3619.12,0.7244485343748271
420,3621.78,0.5099977057105284
421,3624.44,0.6910452770462294
422,3627.1,0.7666461483819307
423,3629.76,0.735411519717632
424,3632.42,0.655424691053333
425,3635.08,0.6660227623890342
426,3637.74,0.6961364337247353
427,3640.3999999999996,0.8950918050604366
428,3643.0600000000004,0.6440459763961378
429,3645.7200000000003,0.8057246477318389
430,3648.38,0.6021884190675402
431,3651.04,0.6919447904032413
432,3653.7,0.7647440617389425
433,3656.36,0.9120479330746437
434,3659.02,0.6735494044103448
435,3661.68,0.698814675746046
436,3664.3399999999997,0.8372989470817472
437,3667.0000000000005,0.6814184184174483
438,3669.6600000000003,0.7134324897531495
439,3672.32,0.7771438610888507
440,3674.98,0.712993532424552
441,3677.64,0.7912016037602532
442,3680.3,0.8055030750959543
443,3682.96,0.8697019464316555
444,3685.62,0.9578749177673567
445,3688.2799999999997,1.0242662891030578
446,3690.9500000000003,1.026307959203179
447,3693.61,0.8606331305388801
448,3696.27,0.7003432018745813
449,3698.9300000000003,0.7904162732102825
450,3701.59,0.6266177445459836
451,3704.25,0.5923619158816849
452,3706.91,0.7634448872173861
453,3709.5699999999997,0.7052150585530872
454,3712.2300000000005,0.8804154298887884
455,3714.8900000000003,0.8159972012244895
456,3717.55,1.2355426725601908
457,3720.21,1.275061343895892
458,3722.87,2.1083070152315933
459,3725.53,2.6596856865672946
460,3728.19,2.7337523579029956
461,3730.85,2.4117110292386967
462,3733.5099999999998,1.8285357005743978
463,3736.1699999999996,1.330415371910099
464,3738.8300000000004,1.0462350432458003
465,3741.4900000000002,0.8218184145815014
466,3744.15,0.8781720859172025
467,3746.81,0.7977464572529038
468,3749.47,0.9194441285886049
469,3752.13,0.9642007999243061
470,3754.79,0.8496655712600073
471,3757.45,0.9078464425957085
472,3760.1099999999997,1.0208954139314095
473,3762.7699999999995,1.0944010852671109
474,3765.4300000000003,0.994362456602812
475,3768.1,1.1158594267029331
476,3770.76,1.0929330980386345
477,3773.42,1.0569957693743355
478,3776.08,0.9660702407100367
479,3778.74,0.8848408120457378
480,3781.3999999999996,1.038211783381439
481,3784.0600000000004,1.27644145471714
482,3786.7200000000003,1.1952851260528414
483,3789.38,1.0203037973885427
484,3792.04,0.8571383687242438
485,3794.7,0.968749140059945
486,3797.36,0.9557873113956462
487,3800.02,0.8939516827313473
488,3801.8939600000003,0.9876683316878553
489,3802.68,1.026978174303477
490,3805.3399999999997,1.1916539141202986
491,3808.0000000000005,1.1226306539371202
492,3810.6600000000003,1.177230393753942
493,3813.32,1.1842711335707636
494,3815.98,1.1472628733875851
495,3818.64,1.1718216132044068
496,3821.3,1.0797743530212285
497,3823.96,0.8863735928380502
498,3826.62,0.7621172326548717
499,3829.2799999999997,0.8007583724716935
500,3831.9399999999996,0.724133712288515
501,3834.6000000000004,0.7650161521053367
502,3837.26,0.8303115919221583
503,3839.92,0.86310543173898
504,3842.58,0.9883603715558017
505,3845.25,1.1744950103944911
506,3847.91,1.1206267502113127
507,3850.5699999999997,1.244175490028134
508,3853.2300000000005,1.378420229844956
509,3855.8900000000003,1.4340189696617776
510,3858.55,1.350426709478599
511,3861.21,1.3206784492954209
512,3863.87,1.4335551891122424
513,3866.53,1.4871559289290641
514,3869.19,1.515394668745886
515,3871.85,1.4324104085627074
516,3874.5099999999998,1.223758148379529
517,3877.1699999999996,1.0961158881963506
518,3879.8300000000004,1.0813026280131723
519,3882.4900000000002,1.0907803678299939
520,3885.15,0.9651107076468156
521,3887.81,0.8933589474636373
522,3890.47,0.9222056872804588
523,3893.13,1.0870763270972805
524,3895.79,1.1036680669141021
525,3898.45,1.1436488067309236
526,3901.1099999999997,1.2024635465477453
527,3903.7699999999995,1.1462072863645671
528,3906.4300000000003,1.1478880261813886
529,3909.09,1.3041587659982103
530,3911.75,1.436089505815032
531,3914.41,1.3326892456318538
532,3917.07,1.1290789854486754
533,3919.74,1.1088757242873646
534,3922.3999999999996,1.1483934641041862
535,3925.0600000000004,1.200873203921008
536,3927.7200000000003,1.1206189437378296
537,3930.38,0.9297524835546512
538,3933.04,0.7774294233714729
539,3935.7,0.7733604631882944
540,3938.36,0.8535662030051161
541,3941.02,1.0410706428219378
542,3943.68,1.1690783826387594
543,3946.3399999999997,1.203699122455581
544,3948.9999999999995,1.2742088622724026
545,3951.6600000000003,1.2290136020892244
546,3954.32,1.189860341906046
547,3956.98,1.1449330817228676
548,3959.64,1.2481148215396893
549,3962.3,1.319719561356511
550,3964.96,1.1252473011733324
551,3967.62,1.007082040990154
552,3970.2799999999997,0.8938627808069759
553,3972.9399999999996,0.9309202206237974
554,3975.6000000000004,1.0379512604406191
555,3978.26,1.0620710002574407
556,3980.92,1.1072907400742624
557,3983.58,1.219705479891084
558,3986.24,1.3113872197079057
559,3988.9,1.3470559595247271
560,3991.56,1.4070156993415488
561,3994.22,1.4615184391583704
562,3996.8900000000003,1.5161101779970598
563,3999.55,1.4828779178138816
564,4002.21,1.4076176576307033
565,4004.87,1.3663693974475248
566,4007.53,1.4425311372643466
567,4010.19,1.5329458770811681
568,4012.85,1.5474176168979896
569,4015.5099999999998,1.3919763567148113
570,4018.1699999999996,1.392829096531633
571,4020.8300000000004,1.5716838363484547
572,4023.4900000000002,1.4683075761652764
573,4026.15,1.361082315982098
574,4028.81,1.4683570557989196
575,4031.47,1.4242577956157414
576,4034.13,1.501564535432563
577,4036.79,1.4046202752493844
578,4039.45,1.5166220150662062
579,4042.1099999999997,1.5175477548830278
