,lambda (Angstroms),Total Flux (erg/s/cm^2/Angstrom)
0,102.05000000000001,0.019085475431967897
1,103.95,0.02232535323322848
2,104.712855,0.02362617269642889
3,105.88,0.02196557725282916
4,108.10000000000001,0.01880699636974164
5,110.11,0.01594720016478494
6,113.98,0.01044102538210857
7,117.97999999999999,0.004749888655832426
8,120.22644299999999,0.0015536850906880642
9,121.01,0.0015021000297234218
10,124.97,0.001241395522673099
11,127.0,0.0011077515455895387
12,127.88000000000001,0.0010498172107121135
13,130.86,0.0008536304857819006
14,132.07,0.0007739707753972703
15,133.91,0.0006528353479932704
16,137.03,0.0004474317974001929
17,138.038426,0.0003810426048212299
18,139.9,0.0003767142240499138
19,143.16,0.00036913434043544705
20,147.17,0.0003598106261361945
21,150.94,0.00035104493672131007
22,155.17,0.0003412096967756598
23,158.489319,0.0003334919011887358
24,159.14999999999998,0.00033113162974148034
25,162.10999999999999,0.0003205570851591246
26,165.89,0.0003070531166975887
27,170.14000000000001,0.0002918700884936375
28,172.91,0.00028197434191529934
29,176.93,0.00026761301457842244
30,179.81,0.0002573243179906704
31,181.89000000000001,0.00024989359704345493
32,181.970086,0.000249607493235705
33,186.13000000000002,0.00025438996437565187
34,190.9,0.00025987388986493416
35,194.0,0.000263437896164466
36,198.07000000000002,0.00026811712589600565
37,202.21,0.00027287689713886945
38,205.03,0.0002761191300147043
39,208.929613,0.00028060261673691514
40,209.79999999999998,0.0002866792635703176
41,216.17999999999998,0.00033122188440936674
42,220.20000000000002,0.00035928807283428193
43,222.75,0.00037709135977035475
44,226.89000000000001,0.0004059955989990732
45,230.04,0.00042799035530216307
46,233.78,0.0004541074481315368
47,239.78,0.0004960044426017084
48,239.88329199999998,0.0004967256354025879
49,245.93,0.0004619546188306668
50,252.24,0.00042567410033470676
51,256.93,0.00039870159485140197
52,259.9,0.0003816306940882006
53,264.13,0.00035731232074515595
54,269.04,0.00032908350180346573
55,274.04,0.0003003378442910726
56,275.42287,0.0002923877300069668
57,279.13,0.0003151571942169069
58,284.32,0.00034703649449411504
59,290.28000000000003,0.0003836422430699073
60,295.67,0.0004167559810699944
61,301.17,0.00045053926067416483
62,308.19,0.0004936691193802151
63,316.227766,0.0005430563126240301
64,318.28000000000003,0.0005338355327474607
65,327.95,0.0004903934887285822
66,337.92,0.00044560598411139276
67,348.19000000000005,0.0003994744486958927
68,357.12,0.00035937616961951376
69,363.078055,0.00033263265167451716
70,366.28000000000003,0.000343899700280651
71,374.81,0.00037391268396158887
72,385.31,0.0004108306012240566
73,395.2,0.00044567593516584757
74,405.33,0.00048136278691249495
75,413.82,0.0005112633264592903
76,416.86938299999997,0.0005219990176233542
77,421.51,0.0005318211344579378
78,430.34000000000003,0.0005505097300606188
79,441.37999999999994,0.0005739383362739363
80,450.62,0.0005935407103111696
81,460.06,0.0006135338851457459
82,469.68999999999994,0.0006339842419377975
83,478.630092,0.0006530112493367548
84,479.53000000000003,0.0006505464323726444
85,489.57,0.0006229684128214207
86,499.82,0.0005949628026252012
87,505.61,0.000579731404984605
88,511.46,0.0005706434137311531
89,519.77,0.0005491001413506084
90,529.43,0.0005242914776808055
91,540.52,0.0004941814219046031
92,549.5408739999999,0.0004776517113772489
93,550.57,0.0004776827374856876
94,559.52,0.000476903005424487
95,569.92,0.00047507208833661146
96,580.51,0.0004661038930038612
97,589.9499999999999,0.000472886334416405
98,599.53,0.0004717591439643041
99,610.68,0.000480389371172976
100,620.6,0.0004886336033353099
101,630.68,0.0004966586690809075
102,630.957344,0.0004966276580931387
103,639.46,0.0005136188957421198
104,649.85,0.0005552332666539535
105,657.37,0.0005860976298163202
106,664.99,0.000611784336105846
107,674.24,0.0006334176753680656
108,685.1899999999999,0.0006561069477919903
109,694.72,0.0007524848878102555
110,704.39,0.0007657433282065435
111,715.8299999999999,0.000859346801953548
112,724.43596,0.0009003766282304554
113,725.7900000000001,0.0009061251256467793
114,734.2,0.0009468267582503024
115,744.41,0.0010440735708403107
116,754.77,0.0011167191734291933
117,765.27,0.0011927795733503578
118,774.13,0.001293469975950502
119,784.9000000000001,0.0013982233778696395
120,795.82,0.0014780902697876506
121,805.0300000000001,0.0015635983157185006
122,814.3499999999999,0.0016457492809818577
123,825.6800000000001,0.001814657672230124
124,831.763771,0.0016869795489179028
125,835.24,0.0016064055148941835
126,844.91,0.0019563790497861442
127,854.7,0.0020326272686684906
128,864.5899999999999,0.0021935242242094926
129,874.61,0.002366090837406746
130,884.7299999999999,0.002598051187262655
131,894.9799999999999,0.002770519194774816
132,905.34,0.0028034319126114975
133,915.8199999999999,0.004379865314438565
134,924.3,0.03158796598309253
135,935.0,0.07228489780556864
136,945.83,0.14444867428570102
137,954.58,0.21460512624333333
138,954.992586,0.21564133302891864
139,965.63,0.24237057984516147
140,974.57,0.03595023655579795
141,985.85,0.20312127750613124
142,994.98,0.22851460909093116
143,1004.18,0.3580013240504229
144,1015.8100000000001,0.35533526187421505
145,1025.21,0.15360962933282613
146,1034.7,0.24727747541604095
147,1044.27,0.5128618024989035
148,1053.93,0.5130018082063698
149,1066.14,0.39885130827760823
150,1076.0,0.49522756648419386
151,1085.96,0.38542450094033925
152,1096.0,0.5418005163961324
153,1096.4782,0.541219406311182
154,1106.15,0.5294613133297649
155,1113.81,0.5108696193010529
156,1124.12,0.4626870554060111
157,1134.52,0.6196287246098486
158,1145.02,0.5649903194791078
159,1155.61,0.6178500474472463
160,1166.31,0.6481996936473483
161,1174.39,0.44073468741340677
162,1185.26,0.6469300072447254
163,1196.22,0.4273019601749235
164,1204.52,0.2979403904049092
165,1215.6599999999999,0.21135760953286603
166,1224.0900000000001,0.45495884312789975
167,1235.41,0.7270041284536153
168,1243.98,0.814231357980239
169,1255.49,0.7786726020702555
170,1258.92541,0.733021623379264
171,1264.19,0.6630680267310654
172,1275.89,0.8934616453533559
173,1284.73,0.9510638127568644
174,1293.64,0.7300675838615319
175,1305.6100000000001,0.7308706167597214
176,1314.66,0.9503603952667069
177,1323.77,0.9140018769461143
178,1336.02,0.79864252464894
179,1345.2800000000002,0.9893325142594025
180,1354.6,0.964597107042287
181,1363.99,0.8557241035263305
182,1373.45,0.914663803711533
183,1386.1599999999999,0.9343331757362606
184,1395.77,0.8136070838525181
185,1405.44,0.8556566951411977
186,1415.18,0.8773112101310361
187,1424.9899999999998,0.9140795288220337
188,1434.8700000000001,0.9136735512141901
189,1441.49,0.9757004012380845
190,1445.43977,0.9871528080662276
191,1448.15,0.9950111303471639
192,1454.83,0.969048726781207
193,1464.92,0.8914317745386164
194,1475.07,0.897029624958607
195,1485.29,0.9215148784849424
196,1495.59,0.9465861355613862
197,1505.96,0.8908583957441746
198,1512.91,0.7874699041598331
199,1516.3999999999999,0.8539380590333078
200,1523.4,0.8295134696677839
201,1533.95,0.7152066378383161
202,1544.5900000000001,0.7979112100027201
203,1555.29,0.7576772848297053
204,1566.07,0.7761851632067986
205,1573.3,0.8322721840478364
206,1584.21,0.8824658681938558
207,1595.19,0.8997353554462201
208,1606.25,0.8902196462486925
209,1613.66,0.9051853750774739
210,1624.85,0.8571844716488725
211,1636.1100000000001,0.9191062713266157
212,1643.66,0.9366022063680866
213,1655.06,0.8685824122585193
214,1659.58691,0.9018380359932714
215,1666.53,0.9528453632087512
216,1670.37,0.855273207646011
217,1678.0800000000002,0.9510705062426965
218,1685.8300000000002,1.0007016178022703
219,1693.6100000000001,0.94495623908401
220,1705.35,0.9047345436916738
221,1713.22,0.8483749941399119
222,1725.09,0.8465197408769622
223,1733.06,0.9091563237324205
224,1745.07,0.8884671158395793
225,1753.12,0.9519324246208138
226,1765.28,0.874067665338803
227,1773.42,0.8922280032865358
228,1785.72,0.9148188893746334
229,1793.96,0.9777276597295868
230,1806.3899999999999,0.9750343879470706
231,1814.73,0.8889527907092442
232,1823.11,0.9198260064343057
233,1835.7499999999998,0.8818806027069523
234,1844.22,0.8094765475985122
235,1857.0,0.8013927892412672
236,1865.57,0.8271329665400474
237,1874.19,0.9146898600424379
238,1882.8400000000001,0.8317237632669943
239,1895.89,0.7879363924092441
240,1904.6399999999999,0.8513802280410209
241,1905.46072,0.8475630069027509
242,1913.43,0.8104914649849042
243,1926.69,0.7946097258496287
244,1935.5900000000001,0.8369615080288179
245,1944.5200000000002,0.8594974776760268
246,1953.5,0.797589926436602
247,1967.04,0.8810586703361774
248,1976.1200000000001,0.910882277323485
249,1985.24,0.8529538676014856
250,1994.4,0.8286092411701791
251,2003.6100000000001,0.862455993852239
252,2012.85,0.8281619340023185
253,2026.81,0.8772339024541702
254,2036.1599999999999,0.8155330966536556
255,2045.56,0.846678869966507
256,2055.0,0.8109373265700515
257,2064.49,0.8169809622869622
258,2074.02,0.869777781294566
259,2078.8,0.8091214845323776
260,2083.5899999999997,0.8464407835928626
261,2093.21,0.7975339650045254
262,2102.87,0.8107323297068814
263,2112.58,0.8165381735226034
264,2127.22,0.827115457916236
265,2137.04,0.7737441557813639
266,2146.9,0.7808888369371846
267,2156.81,0.8138601972063717
268,2166.77,0.791555536588925
269,2176.77,0.7823177592621713
270,2186.8199999999997,0.7590366610487836
271,2187.7616199999998,0.7621749512648881
272,2196.91,0.7926721146182967
273,2207.05,0.7707456917973865
274,2217.2400000000002,0.7390758856292332
275,2227.47,0.7086536927832853
276,2232.6099999999997,0.7511776046866897
277,2242.91,0.7179762351546015
278,2253.27,0.6951173856058215
279,2263.67,0.7177965493792469
280,2274.12,0.7361076298054291
281,2284.61,0.753142423553817
282,2295.16,0.7175060372855129
283,2305.75,0.7157689643394144
284,2316.3900000000003,0.6866273080460727
285,2327.09,0.5453812717360393
286,2332.4500000000003,0.6540779569115739
287,2343.22,0.6480107439154001
288,2354.03,0.6831339442414317
289,2364.9,0.6463361645507716
290,2375.81,0.6597629981823169
291,2386.78,0.6300002517971705
292,2392.2799999999997,0.6703265836004242
293,2403.33,0.6430210638596888
294,2414.42,0.6594152574411588
295,2425.56,0.6840616676753857
296,2436.76,0.6577002978929207
297,2442.38,0.6949999696627911
298,2453.65,0.6837872231941857
299,2464.98,0.6852482967088885
300,2476.35,0.6649446835457969
301,2487.78,0.6945544903660136
302,2493.52,0.6526713021025004
303,2505.0299999999997,0.7121872355671278
304,2510.8,0.6600473572952686
305,2511.88643,0.665573219555186
306,2516.59,0.6894946128409826
307,2522.39,0.6584251652145633
308,2534.0299999999997,0.6643936648056805
309,2545.73,0.6506499566627313
310,2557.4799999999996,0.6843209420747268
311,2563.38,0.6779890815581969
312,2575.21,0.7114435566581039
313,2587.1,0.7080331240239445
314,2593.06,0.7063329557733481
315,2605.0299999999997,0.6869559128271001
316,2617.05,0.6852564634357968
317,2623.09,0.701137584873112
318,2635.19,0.70748982516972
319,2647.36,0.7440836564432507
320,2653.46,0.7423012701464994
321,2665.71,0.7038945911079416
322,2678.01,0.7284777056243283
323,2684.19,0.7233832090154886
324,2696.58,0.7051517119307757
325,2702.79,0.7148908114549027
326,2715.27,0.6984807027690902
327,2727.8,0.7015456876382224
328,2734.09,0.7294671768502609
329,2746.71,0.6682289501182935
330,2753.04,0.6727976341742877
331,2765.75,0.6882997958412207
332,2772.1200000000003,0.7123990747411706
333,2784.92,0.705724624807004
334,2797.77,0.613137468427782
335,2804.2200000000003,0.6508771370156434
336,2817.17,0.7184185677463109
337,2823.66,0.7233304311781279
338,2836.69,0.6938008515967067
339,2843.23,0.6873689085834684
340,2856.36,0.6887872161119367
341,2862.94,0.714550767942654
342,2876.16,0.7045696638700226
343,2882.79,0.7093789092556848
344,2884.0315,0.7086046133001487
345,2896.09,0.701085517414756
346,2909.46,0.728888682144827
347,2929.6299999999997,0.7169688289365648
348,2949.9399999999996,0.7101197753589839
349,2970.38,0.7147669214384641
350,2990.97,0.714488867122246
351,3011.71,0.7191519124103293
352,3032.5800000000004,0.7205370573554738
353,3046.58,0.7153679204236112
354,3067.7,0.7118018647092581
355,3088.96,0.7131459086255866
356,3110.37,0.7062948521462163
357,3131.93,0.7027470952711476
358,3146.39,0.7041711571258095
359,3168.2,0.6990017995912432
360,3190.1600000000003,0.6812147416609784
361,3212.27,0.6919709833350152
362,3227.1,0.6838391442136206
363,3249.47,0.6882461852017798
364,3272.0,0.6895022257678607
365,3287.1,0.6876810859342086
366,3309.88,0.687343725840792
367,3311.31121,0.688368133102512
368,3325.16,0.6982799236955757
369,3332.83,0.6933490369112005
370,3340.5099999999998,0.6681699496225433
371,3348.2099999999996,0.6931101613253219
372,3355.93,0.6710115720195361
373,3363.66,0.6693731822094684
374,3371.42,0.6510199908865543
375,3379.19,0.6768807990593582
376,3386.98,0.6989154062235977
377,3394.79,0.6923843123792731
378,3402.6099999999997,0.6827721180306664
379,3410.46,0.6610126221692134
380,3418.32,0.6794042258034783
381,3426.2,0.6887175284291789
382,3434.1,0.6870129300463153
383,3442.0099999999998,0.6774597311591697
384,3449.95,0.6757749307591776
385,3457.8999999999996,0.6556043298549035
386,3465.87,0.6566872279420652
387,3473.8599999999997,0.6684631250206626
388,3481.8700000000003,0.6618934210906959
389,3489.9,0.6753116161521651
390,3497.94,0.671770210709352
391,3506.0099999999998,0.6590662037536926
392,3514.09,0.6540981962937511
393,3522.19,0.6673390878252454
394,3530.31,0.6623103783481756
395,3538.4500000000003,0.6695211678625415
396,3546.6,0.6737105568726253
397,3554.78,0.6779124443698628
398,3562.97,0.677474031362818
399,3568.73,0.47935924089632514
400,3571.4,0.39520480625300297
401,3574.0699999999997,0.6417158716096807
402,3576.74,0.9527687369663584
403,3579.3999999999996,0.6528553028273183
404,3582.07,0.16510836818399607
405,3584.7400000000002,-0.007111979459326184
406,3587.41,0.41445369889735156
407,3590.07,0.37292926475831145
408,3592.74,1.187424530114989
409,3595.41,1.185660395471667
410,3598.0800000000004,0.7990444608283447
411,3600.75,0.23596942618502245
412,3603.4100000000003,0.14231119204598233
413,3606.08,0.3860485574026601
414,3608.75,0.5520718227593377
415,3611.42,0.9687127881160157
416,3614.08,0.18325785397697547
417,3616.7500000000005,0.3179799193336532
418,3619.42,0.18675478469033097
419,3622.09,0.32306695004700875
420,3624.76,0.46951891540368645
421,3627.42,-0.09529431873535364
422,3630.09,0.570560746621324
423,3632.7599999999998,0.24299931197800187
424,3635.43,-0.03718809266532038
425,3638.09,-0.1965040568043605
426,3640.76,0.7741245085523172
427,3643.43,1.1793679739089948
428,3646.1,0.5517089392656728
429,3648.7599999999998,0.34307880512663264
430,3651.43,0.24602377048331037
431,3654.1,0.5897300358399882
432,3656.7699999999995,0.9661674011966659
433,3659.44,0.8238000665533436
434,3662.1,0.6818372324143035
435,3664.77,0.28368289777098127
436,3667.44,1.060316763127659
437,3670.1099999999997,0.9530853284843368
438,3672.77,0.5031525943452966
439,3675.4399999999996,0.7100010597019745
440,3678.11,0.9432910250586521
441,3680.78,1.04188609041533
442,3683.45,0.25355315577200765
443,3686.11,0.6837390216329675
444,3688.7799999999997,0.5615035869896453
445,3691.45,0.424084352346323
446,3694.1200000000003,0.7503018177030009
447,3696.78,0.9341176835639606
448,3699.4500000000003,0.3925545489206384
449,3702.12,0.5536099142773162
450,3704.79,0.4926122796339939
451,3707.46,0.4542305449906717
452,3710.12,0.5756456108516316
453,3712.7900000000004,0.7559516762083093
454,3715.46,0.893849741564987
455,3718.13,0.4149279069216648
456,3720.79,0.7285688727826246
457,3723.46,1.1749179381393025
458,3726.13,1.3256968034959802
459,3728.7999999999997,1.9398306688526579
460,3731.4700000000003,1.6918945342093357
461,3734.13,1.4538424000702956
462,3736.8,0.8347756654269733
463,3739.47,0.604168030783651
464,3742.14,0.6605767961403289
465,3744.7999999999997,0.7029067620012887
466,3747.47,0.9222749273579665
467,3750.1400000000003,0.9158432927146443
468,3752.81,0.680388058071322
469,3755.4700000000003,0.5163494239322819
470,3758.14,0.8828320892889596
471,3760.81,0.9751977546456373
472,3763.48,0.8561673200023151
473,3766.1499999999996,0.9056047853589929
474,3768.8100000000004,0.6228780512199527
475,3771.48,0.4269855165766305
476,3774.15,0.7235964819333083
477,3776.82,0.882688147289986
478,3779.48,0.6042081131509459
479,3782.15,0.8413046785076237
480,3784.8199999999997,0.9773397438643013
481,3787.4900000000002,0.8265989092209791
482,3790.1600000000003,0.6729538745776569
483,3792.82,0.19746744043861675
484,3795.4900000000002,0.6778834057952945
485,3798.16,1.0065051711519721
486,3800.83,0.49529143650865004
487,3801.8939600000003,0.44908436002645946
488,3803.49,0.37976941913970996
489,3806.1600000000003,0.8709104125509274
490,3808.8300000000004,0.9711487059621446
491,3811.5,1.027937599373362
492,3814.17,1.0756324927845793
493,3816.83,0.9082899865950055
494,3819.5,1.0452662800062227
495,3822.1699999999996,1.17651417341744
496,3824.8399999999997,0.5160834668286574
497,3827.5,0.7175863606390837
498,3830.17,0.6821690540503009
499,3832.84,0.7976116474615182
500,3835.5099999999998,0.6362542408727355
501,3838.18,0.5637382342839529
502,3840.8399999999997,0.8130572280943791
503,3843.5099999999998,0.9847693215055964
504,3846.1800000000003,0.37077221491681367
505,3848.85,0.713135408328031
506,3851.51,1.1095090021384573
507,3854.18,1.2649148955496745
508,3856.85,1.0511537889608917
509,3859.52,0.7587878823721091
510,3862.18,1.0172225761825353
511,3864.8500000000004,0.8378155695937526
512,3867.52,1.2651343630049698
513,3870.19,1.2105662564161872
514,3872.86,1.1359461498274046
515,3875.52,1.1688430436378308
516,3878.19,0.793764537049048
517,3880.8599999999997,1.1778138304602654
518,3883.53,1.0781337238714828
519,3886.19,1.0839676176819089
520,3888.86,0.7313250110931262
521,3891.53,0.31365980450434355
522,3894.2,0.27349559791556083
523,3896.87,1.0804361913267782
524,3899.5299999999997,0.9364515851372043
525,3902.2000000000003,1.0134529785484216
526,3904.87,0.47689867195963903
527,3907.54,0.8356479653708563
528,3910.2,0.8979302591812826
529,3912.87,1.3213225525924999
530,3915.54,1.1766514460037172
531,3918.2099999999996,1.1339823394149344
532,3920.88,1.0661332328261517
533,3923.54,0.972367726636578
534,3926.21,1.2180970200477952
535,3928.88,1.3471809134590125
536,3931.5499999999997,0.69418210687023
537,3934.21,0.46906630068065613
538,3936.8799999999997,1.0773735940918734
539,3939.55,0.5242526875030907
540,3942.2200000000003,0.7015737809143081
541,3944.89,0.8017318743255254
542,3947.55,0.7743514681359516
543,3950.22,1.2038740615471688
544,3952.89,1.0991459549583862
545,3955.5600000000004,1.1724808483696034
546,3958.2200000000003,0.8181611421800298
547,3960.8900000000003,1.165332635591247
548,3963.56,1.1366055290024641
549,3966.23,0.7808388224136816
550,3968.9,0.872743715824899
551,3971.56,0.42980190963532516
552,3974.2300000000005,0.6450236030465425
553,3976.9,0.6630714964577598
554,3979.57,0.5615092898689771
555,3982.23,1.0930777836794034
556,3984.9,1.0378086770906207
557,3987.5699999999997,0.8069600705018379
558,3990.24,0.8980237639130553
559,3992.8999999999996,1.1680973577234814
560,3995.57,1.0911532511346989
561,3998.2400000000002,1.7152641445459162
562,4000.91,1.0300340379571336
563,4003.58,0.9883861313683506
564,4006.24,0.9914146251787769
565,4008.91,1.1092407185899944
566,4011.58,0.9918529120012115
567,4014.2499999999995,1.3917265054124288
568,4016.9100000000003,1.2884273992228552
569,4019.58,1.0783522926340725
570,4022.25,1.3095381860452897
571,4024.92,1.374299079456507
572,4027.5899999999997,1.0905269728677243
573,4030.25,0.9430366666781506
574,4032.9199999999996,1.037325760089368
575,4035.59,1.3088156535005853
576,4038.26,1.1207755469118026
577,4040.92,1.0854234407222287
578,4043.59,1.251426334133446
579,4046.2599999999998,1.1660492275446632
580,4048.93,1.1070741209558805
581,4051.6000000000004,1.0460150143670979
582,4054.26,0.6976850081775241
583,4056.9300000000003,0.7855038015887414
584,4059.6,1.1696736949999587
585,4062.27,1.221554588411176
