,lambda (Angstroms),Total Flux (erg/s/cm^2/Angstrom)
0,102.05000000000001,0.007050551751726217
1,103.95,0.00824742663501959
2,104.712855,0.008727975051593721
3,105.88,0.008114518288603679
4,108.10000000000001,0.006947676114193283
5,110.11,0.00589121091860216
6,113.98,0.003857121223046043
7,117.97999999999999,0.0017547029697638908
8,120.22644299999999,0.0005739628810767118
9,121.01,0.0005549065713604656
10,124.97,0.00045859784196877816
11,127.0,0.0004092274970082236
12,127.88000000000001,0.000387825670276515
13,130.86,0.00031535115999295715
14,132.07,0.0002859240873008586
15,133.91,0.00024117496480510474
16,137.03,0.00016529708012595683
17,138.038426,0.00014077223136938462
18,139.9,0.00013917440641083133
19,143.16,0.00013639337709611774
20,147.17,0.00013300567645655896
21,150.94,0.00012979082603423062
22,155.17,0.0001261876354855439
23,158.489319,0.0001233693620821098
24,159.14999999999998,0.00012250396624682112
25,162.10999999999999,0.00011863096325965946
26,165.89,0.00011369873032605439
27,170.14000000000001,0.00010815061606948781
28,172.91,0.0001045514053065021
29,176.93,9.932811007393796e-05
30,179.81,9.559631738642932e-05
31,181.89000000000001,9.290298539545088e-05
32,181.970086,9.279944464864347e-05
33,186.13000000000002,9.467794747933775e-05
34,190.9,9.686926514243607e-05
35,194.0,9.830745005618967e-05
36,198.07000000000002,0.00010020070025489206
37,202.21,0.00010215457857003398
38,205.03,0.00010350976911802923
39,208.929613,0.00010534192737026098
40,209.79999999999998,0.00010762601459091401
41,216.17999999999998,0.00012456648261316918
42,220.20000000000002,0.0001352559503575997
43,222.75,0.00014205719159846963
44,226.89000000000001,0.00015312102342482337
45,230.04,0.0001631983810753098
46,233.78,0.00017642024229525251
47,239.78,0.00019533061639141725
48,239.88329199999998,0.0001956075813213601
49,245.93,0.00018337961231733454
50,252.24,0.00017237469337811674
51,256.93,0.00016114205990348424
52,259.9,0.00015783113655174472
53,264.13,0.0001508573345053277
54,269.04,0.00014196342078241813
55,274.04,0.00013280205786703162
56,275.42287,0.00013028936076966407
57,279.13,0.00013983811162429356
58,284.32,0.0001533444561396259
59,290.28000000000003,0.00016768730271214644
60,295.67,0.0001823565771124627
61,301.17,0.00019617247894952012
62,308.19,0.00021504287991245516
63,316.227766,0.00023686522875196952
64,318.28000000000003,0.00023437237407864238
65,327.95,0.00022227458217926298
66,337.92,0.0002093758011620124
67,348.19000000000005,0.00019596435102689063
68,357.12,0.0001848412976182601
69,363.078055,0.0001779633915163152
70,366.28000000000003,0.0001837388070276492
71,374.81,0.00019817139417790036
72,385.31,0.00021347418786812745
73,395.2,0.00023290040770587467
74,405.33,0.0002512800503708271
75,413.82,0.0002654119603832108
76,416.86938299999997,0.00027014853140975355
77,421.51,0.00027494972294676606
78,430.34000000000003,0.00028421601316432977
79,441.37999999999994,0.00029801901591652716
80,450.62,0.0003082487428939098
81,460.06,0.00031746256829071626
82,469.68999999999994,0.00032838663218597545
83,478.630092,0.0003394019632435887
84,479.53000000000003,0.0003388926792804478
85,489.57,0.0003293403458844162
86,499.82,0.0003245668290308979
87,505.61,0.00032012755798876405
88,511.46,0.0003447322831016341
89,519.77,0.0003410976505696597
90,529.43,0.00033625453152527076
91,540.52,0.0003232520208418055
92,549.5408739999999,0.0003383699787789988
93,550.57,0.0003408027734821816
94,559.52,0.0003616406042519368
95,569.92,0.0003806734238056187
96,580.51,0.0003751522618896082
97,589.9499999999999,0.0004100174088691042
98,599.53,0.0004176356747656688
99,610.68,0.00044231388851793355
100,620.6,0.0004913127717845224
101,630.68,0.0005188005338134758
102,630.957344,0.0005190419390878574
103,639.46,0.000533070918603722
104,649.85,0.0005911399204822916
105,657.37,0.0006304775208794853
106,664.99,0.0006645076739415354
107,674.24,0.0006792881954407431
108,685.1899999999999,0.0006866084122425079
109,694.72,0.0008488655412033134
110,704.39,0.0008346941238949175
111,715.8299999999999,0.000977099528754478
112,724.43596,0.001020141568416648
113,725.7900000000001,0.0010266525026673178
114,734.2,0.0010746344302294962
115,744.41,0.001211328289493449
116,754.77,0.001304963243065883
117,765.27,0.001384566844659566
118,774.13,0.0015229798551471881
119,784.9000000000001,0.0016504622064961371
120,795.82,0.0017392537521535676
121,805.0300000000001,0.0018327548826943124
122,814.3499999999999,0.0019197960223946103
123,825.6800000000001,0.002122981965828556
124,831.763771,0.0019010924875189018
125,835.24,0.001771491405353639
126,844.91,0.00226836856443327
127,854.7,0.0023503181112160603
128,864.5899999999999,0.0025525131477514844
129,874.61,0.0027628270209653317
130,884.7299999999999,0.003038530383931812
131,894.9799999999999,0.0032371135835767154
132,905.34,0.0032384527219495155
133,915.8199999999999,0.005233499248025476
134,924.3,0.039242203979048776
135,935.0,0.08785221438258052
136,945.83,0.1715384826227907
137,954.58,0.2519101254761461
138,954.992586,0.2527221868042928
139,965.63,0.2736639631344913
140,974.57,0.03940453874944606
141,985.85,0.21344868905556347
142,994.98,0.24391238800014253
143,1004.18,0.3882713808030042
144,1015.8100000000001,0.3864999604005349
145,1025.21,0.17034903565563272
146,1034.7,0.2595399030142368
147,1044.27,0.5408760633537353
148,1053.93,0.5346967157967402
149,1066.14,0.4056263445057556
150,1076.0,0.5024724794009965
151,1085.96,0.38206310552235545
152,1096.0,0.5446358246246089
153,1096.4782,0.5437644268866246
154,1106.15,0.5261382267275905
155,1113.81,0.5012994232408752
156,1124.12,0.4467952920466148
157,1134.52,0.6040614361377585
158,1145.02,0.5458712527682402
159,1155.61,0.595768744684126
160,1166.31,0.6180961063932835
161,1174.39,0.40747398757178743
162,1185.26,0.6082160025978194
163,1196.22,0.3918438929092554
164,1204.52,0.26615531367430284
165,1215.6599999999999,0.1996257545565472
166,1224.0900000000001,0.42080403962273394
167,1235.41,0.6745975310757865
168,1243.98,0.7499575776970463
169,1255.49,0.7096489169748409
170,1258.92541,0.6657577282531072
171,1264.19,0.5984982764195854
172,1275.89,0.814765704950883
173,1284.73,0.8670341776189744
174,1293.64,0.6501991516543472
175,1305.6100000000001,0.644236285459444
176,1314.66,0.8531740622293793
177,1323.77,0.81477144017127
178,1336.02,0.7031509794454919
179,1345.2800000000002,0.8811325603172709
180,1354.6,0.8551539423610055
181,1363.99,0.7499665257720212
182,1373.45,0.8035907105503183
183,1386.1599999999999,0.8166388588095312
184,1395.77,0.7063979465177167
185,1405.44,0.7413770353978576
186,1415.18,0.7551551256452798
187,1424.9899999999998,0.790750717259983
188,1434.8700000000001,0.7853132102419677
189,1441.49,0.8395474395477104
190,1445.43977,0.8523077646428922
191,1448.15,0.8610635611271074
192,1454.83,0.8337593706357
193,1464.92,0.7603882360461344
194,1475.07,0.7656708024401788
195,1485.29,0.7889413699817684
196,1495.59,0.8110381388348382
197,1505.96,0.762145408835453
198,1512.91,0.6653398227702914
199,1516.3999999999999,0.726182579983613
200,1523.4,0.6999200947381264
201,1533.95,0.5985049676895716
202,1544.5900000000001,0.679278842116432
203,1555.29,0.6412985175269025
204,1566.07,0.6517093942488531
205,1573.3,0.703159212773872
206,1584.21,0.7482481916269779
207,1595.19,0.767440871627629
208,1606.25,0.7569095529397601
209,1613.66,0.7656700744156093
210,1624.85,0.7195284578588957
211,1636.1100000000001,0.7763171424497273
212,1643.66,0.7925822662206667
213,1655.06,0.7261807531065886
214,1659.58691,0.7582045912259072
215,1666.53,0.8073214585360329
216,1670.37,0.7047735182557456
217,1678.0800000000002,0.8129164412867315
218,1685.8300000000002,0.8610736691064642
219,1693.6100000000001,0.8035999005177572
220,1705.35,0.769213406015004
221,1713.22,0.7245201482009778
222,1725.09,0.7228517692616524
223,1733.06,0.7817203234194937
224,1745.07,0.7639281612407828
225,1753.12,0.8261296249761182
226,1765.28,0.7499724807552085
227,1773.42,0.7727741552652246
228,1785.72,0.7907583278049295
229,1793.96,0.8571363142868131
230,1806.3899999999999,0.8532072023899459
231,1814.73,0.778130000843697
232,1823.11,0.8017719040861951
233,1835.7499999999998,0.7656861173302496
234,1844.22,0.6999522313474286
235,1857.0,0.7015721613520975
236,1865.57,0.729559787341144
237,1874.19,0.8036242193161242
238,1882.8400000000001,0.7346185548826646
239,1895.89,0.704798317211376
240,1904.6399999999999,0.7534563647497838
241,1905.46072,0.7506004321010851
242,1913.43,0.722866833196331
243,1926.69,0.7113187869303117
244,1935.5900000000001,0.7363047134938433
245,1944.5200000000002,0.7727797354278136
246,1953.5,0.7212034496458489
247,1967.04,0.8017662601705924
248,1976.1200000000001,0.8280418589567572
249,1985.24,0.7799219515701737
250,1994.4,0.7569286380108422
251,2003.6100000000001,0.7835163167355754
252,2012.85,0.7534427908307475
253,2026.81,0.7962514365416352
254,2036.1599999999999,0.7499757936617497
255,2045.56,0.7871364430659291
256,2055.0,0.7517044862973604
257,2064.49,0.7551652218128564
258,2074.02,0.8147814511556042
259,2078.8,0.7727590135121974
260,2083.5899999999997,0.8054538743256039
261,2093.21,0.7603928897796682
262,2102.87,0.7656677990609845
263,2112.58,0.7745242006263656
264,2127.22,0.7889365414005343
265,2137.04,0.7278556259908578
266,2146.9,0.7499559044084333
267,2156.81,0.7834975751100736
268,2166.77,0.7586509380957784
269,2176.77,0.7534146949087352
270,2186.8199999999997,0.7396744440057569
271,2187.7616199999998,0.7432598178099546
272,2196.91,0.7780963242867672
273,2207.05,0.756903771883453
274,2217.2400000000002,0.7178703256319965
275,2227.47,0.6919120843020257
276,2232.6099999999997,0.7465677167129691
277,2242.91,0.7116391839955988
278,2253.27,0.6799052586604574
279,2263.67,0.7008884382468019
280,2274.12,0.7225005239850039
281,2284.61,0.7430748146446917
282,2295.16,0.7018170126866086
283,2305.75,0.7005213156500113
284,2316.3900000000003,0.6662354247652714
285,2327.09,0.5091401412627605
286,2332.4500000000003,0.6164951007418766
287,2343.22,0.5985837258519661
288,2354.03,0.6521072558835415
289,2364.9,0.5963826932973458
290,2375.81,0.6162067356326361
291,2386.78,0.5713901853501553
292,2392.2799999999997,0.613808462054472
293,2403.33,0.5864449216149632
294,2414.42,0.6045588860969401
295,2425.56,0.6436348567307746
296,2436.76,0.6163720347468379
297,2442.38,0.6560723262156126
298,2453.65,0.6458791128442762
299,2464.98,0.6432184068551688
300,2476.35,0.6188370057875475
301,2487.78,0.639406312102155
302,2493.52,0.6010261183353874
303,2505.0299999999997,0.6715698344929669
304,2510.8,0.5973264444173138
305,2511.88643,0.6010274390244865
306,2516.59,0.6170496541110703
307,2522.39,0.5880565779230986
308,2534.0299999999997,0.5965399236424105
309,2545.73,0.5845913665046054
310,2557.4799999999996,0.6295857069858697
311,2563.38,0.6139954260360363
312,2575.21,0.6522026627078112
313,2587.1,0.6450536965224692
314,2593.06,0.636356412715519
315,2605.0299999999997,0.6136569427206876
316,2617.05,0.6055314703449255
317,2623.09,0.6356829827284861
318,2635.19,0.6538337065432347
319,2647.36,0.7090617270246802
320,2653.46,0.7191009365511237
321,2665.71,0.65315775322308
322,2678.01,0.6858563675141056
323,2684.19,0.6813236732310599
324,2696.58,0.6540018832364098
325,2702.79,0.6724881875248057
326,2715.27,0.6396143932444803
327,2727.8,0.6414262965832241
328,2734.09,0.6749248970621307
329,2746.71,0.5854450961151991
330,2753.04,0.5978668946893609
331,2765.75,0.6192021894567541
332,2772.1200000000003,0.6500470861261712
333,2784.92,0.6182560766078888
334,2797.77,0.5005314647086757
335,2804.2200000000003,0.5389336575686037
336,2817.17,0.6467736409075289
337,2823.66,0.6758696318627123
338,2836.69,0.6487839113921482
339,2843.23,0.6356540999664007
340,2856.36,0.6172476747339751
341,2862.94,0.6723242614034831
342,2876.16,0.666513731885382
343,2882.79,0.6666929161739591
344,2884.0315,0.6660148673712369
345,2896.09,0.6594296453041294
346,2909.46,0.7118845322747208
347,2929.6299999999997,0.6867088126185373
348,2949.9399999999996,0.6778529928259204
349,2970.38,0.6910407729066149
350,2990.97,0.6916138528411306
351,3011.71,0.7018448326294676
352,3032.5800000000004,0.6992102122911161
353,3046.58,0.6980087986477563
354,3067.7,0.7002325780657734
355,3088.96,0.705686757347357
356,3110.37,0.6998406364827617
357,3131.93,0.6924378154719875
358,3146.39,0.6976557013803458
359,3168.2,0.6950759801259403
360,3190.1600000000003,0.6643910587253558
361,3212.27,0.6851955371785925
362,3227.1,0.6608090227263763
363,3249.47,0.6893892009262363
364,3272.0,0.7077279789701721
365,3287.1,0.7032813642548341
366,3309.88,0.7039341420551386
367,3311.31121,0.7039765056003745
368,3325.16,0.7043861826688218
369,3332.83,0.7062139397830312
370,3340.5099999999998,0.6730881967109487
371,3348.2099999999996,0.7264502532662827
372,3355.93,0.7004060094490331
373,3363.66,0.6553752654454917
374,3371.42,0.651061020883075
375,3379.19,0.7026702761343667
376,3386.98,0.7126691310130746
377,3394.79,0.7047363855191991
378,3402.6099999999997,0.7331033398390319
379,3410.46,0.6765682935999892
380,3418.32,0.6877707471746548
381,3426.2,0.7040082003767368
382,3434.1,0.7273114532062352
383,3442.0099999999998,0.6884394058494421
384,3449.95,0.6902483579337735
385,3457.8999999999996,0.6809989098318131
386,3465.87,0.6672417613572691
387,3473.8599999999997,0.7053656125101417
388,3481.8700000000003,0.6800933632904307
389,3489.9,0.7058361136981361
390,3497.94,0.6821026639195497
391,3506.0099999999998,0.6981999135820881
392,3514.09,0.6747179630583346
393,3522.19,0.7067426121619976
394,3530.31,0.6814099608930771
395,3538.4500000000003,0.708847909251573
396,3546.6,0.7222553574237771
397,3554.78,0.727505905037106
398,3562.97,0.714458752464143
399,3568.73,0.5345741451600812
400,3571.4,0.44068439542017757
401,3574.0699999999997,0.7156977456802739
402,3576.74,1.0627116959403702
403,3579.3999999999996,0.7281199463867583
404,3582.07,0.18400309664685463
405,3584.7400000000002,-0.008125168093049051
406,3587.41,0.4621772971670473
407,3590.07,0.4158447476134354
408,3592.74,1.3245023978735317
409,3595.41,1.322532348133628
410,3598.0800000000004,0.8912122983937243
411,3600.75,0.2630616486538207
412,3603.4100000000003,0.1585700991002088
413,3606.08,0.4304880493603051
414,3608.75,0.6157064996204014
415,3611.42,1.0805050498804978
416,3614.08,0.20424900032688587
417,3616.7500000000005,0.3545500505869822
418,3619.42,0.20814570084707854
419,3622.09,0.36021785110717486
420,3624.76,0.5235877013672712
421,3627.42,-0.10650094818634072
422,3630.09,0.6363152020737556
423,3632.7599999999998,0.27091505233385194
424,3635.43,-0.04167610740605173
425,3638.09,-0.21941434695966364
426,3640.76,0.8634207033004326
427,3643.43,1.3155044535605291
428,3646.1,0.6152920038206254
429,3648.7599999999998,0.38255935426701343
430,3651.43,0.27428120452710975
431,3654.1,0.6577102547872061
432,3656.7699999999995,1.0776512050473024
433,3659.44,0.9188455553073988
434,3662.1,0.7604581057537868
435,3664.77,0.31628485601388323
436,3667.44,1.1827010062739796
437,3670.1099999999997,1.063064956534076
438,3672.77,0.561125606980464
439,3675.4399999999996,0.7918915572405603
440,3678.11,1.0521418075006566
441,3680.78,1.162130757760753
442,3683.45,0.28268430802084926
443,3686.11,0.7625833584672373
444,3688.7799999999997,0.6262168087273337
445,3691.45,0.47290335898742997
446,3694.1200000000003,0.8368254092475264
447,3696.78,1.0419094596939145
448,3699.4500000000003,0.4377497099540108
449,3702.12,0.617417660214107
450,3704.79,0.5493720104742035
451,3707.46,0.5065406607342998
452,3710.12,0.6420030111806878
453,3712.7900000000004,0.8431453614407841
454,3715.46,0.9969883117008805
455,3718.13,0.4627063619609768
456,3720.79,0.8125981124073649
457,3723.46,1.3105439626674613
458,3726.13,1.4787559129275576
459,3728.7999999999997,2.163866863187654
460,3731.4700000000003,1.8872758134477503
461,3734.13,1.6216977638941386
462,3736.8,0.9310698141542347
463,3739.47,0.673828664414331
464,3742.14,0.7367550146744273
465,3744.7999999999997,0.7839780651208155
466,3747.47,1.0286995153809118
467,3750.1400000000003,1.021513465641008
468,3752.81,0.7588593159011044
469,3755.4700000000003,0.5758669663474926
470,3758.14,0.9847074166075889
471,3760.81,1.087728266867685
472,3763.48,0.9549635171277815
473,3766.1499999999996,1.0100951673878777
474,3768.8100000000004,0.694694217834266
475,3771.48,0.4761502680943623
476,3774.15,0.8070641183544586
477,3776.82,0.9845267686145549
478,3779.48,0.6738695190609431
479,3782.15,0.9383723693210393
480,3784.8199999999997,1.0901288195811358
481,3787.4900000000002,0.921973969841232
482,3790.1600000000003,0.7505714201013283
483,3792.82,0.22011027054771642
484,3795.4900000000002,0.7560652208078128
485,3798.16,1.122664571067909
486,3800.83,0.5523618213280054
487,3801.8939600000003,0.5008101796110427
488,3803.49,0.4234778779695999
489,3806.1600000000003,0.9714004385935975
490,3808.8300000000004,1.083219399217595
491,3811.5,1.1465783598415926
492,3814.17,1.1997813204655903
493,3816.83,1.0130902812370632
494,3819.5,1.1659092418610608
495,3822.1699999999996,1.3123312024850584
496,3824.8399999999997,0.5755481631090561
497,3827.5,0.8003533238805293
498,3830.17,0.7608282845045269
499,3832.84,0.8896147451285245
500,3835.5099999999998,0.709610705752522
501,3838.18,0.6287119663765196
502,3840.8399999999997,0.9068586271479928
503,3843.5099999999998,1.0984148877719904
504,3846.1800000000003,0.41343754839598795
505,3848.85,0.7953895090199856
506,3851.51,1.2375777697914587
507,3854.18,1.4109457304154565
508,3856.85,1.172481691039454
509,3859.52,0.8463101516634515
510,3862.18,1.1346346124349247
511,3864.8500000000004,0.9344737730589223
512,3867.52,1.4111815336829199
513,3870.19,1.3503184943069173
514,3872.86,1.267057454930915
515,3875.52,1.3037714157023883
516,3878.19,0.8853436763263859
517,3880.8599999999997,1.3137673369503833
518,3883.53,1.2025752975743809
519,3886.19,1.2090762583458543
520,3888.86,0.8156848189698517
521,3891.53,0.3497422795938493
522,3894.2,0.3049428402178469
523,3896.87,1.2051531008418443
524,3899.5299999999997,1.0445230616133179
525,3902.2000000000003,1.1304190222373154
526,3904.87,0.5318509828613128
527,3907.54,0.9320491434853104
528,3910.2,1.0015349042567836
529,3912.87,1.4738728648807813
530,3915.54,1.312487825504779
531,3918.2099999999996,1.2648727861287763
532,3920.88,1.189189746752774
533,3923.54,1.084577707524247
534,3926.21,1.3587046681482449
535,3928.88,1.5027256287722424
536,3931.5499999999997,0.7742288893962399
537,3934.21,0.5230929501677132
538,3936.8799999999997,1.2017315107917106
539,3939.55,0.5846607714157083
540,3942.2200000000003,0.7824763320397058
541,3944.89,0.8942169926637035
542,3947.55,0.8636915534351767
543,3950.22,1.342859314059174
544,3952.89,1.2260182746831718
545,3955.5600000000004,1.3078202353071693
546,3958.2200000000003,0.9125458960786426
547,3960.8900000000003,1.2998721567026401
548,3963.56,1.2678061173266375
549,3966.23,0.8709323779506353
550,3968.9,0.9734610385746328
551,3971.56,0.4792966993461061
552,3974.2300000000005,0.7194118599701037
553,3976.9,0.7395470205941013
554,3979.57,0.6262299812180988
555,3982.23,1.219249841989572
556,3984.9,1.1576008026135696
557,3987.5699999999997,0.9000638632375672
558,3990.24,1.0016677238615646
559,3992.8999999999996,1.302943684633038
560,3995.57,1.2171236452570355
561,3998.2400000000002,1.913376605881033
562,4000.91,1.1489375665050305
563,4003.58,1.102464527129028
564,4006.24,1.1058344879005015
565,4008.91,1.237278448524499
566,4011.58,1.1063244091484965
567,4014.2499999999995,1.552423369772494
568,4016.9100000000003,1.4371833305439674
569,4019.58,1.202813291167965
570,4022.25,1.4607402517919625
571,4024.92,1.5329962124159602
572,4027.5899999999997,1.2164101730399577
573,4030.25,1.051882133811431
574,4032.9199999999996,1.1570480944354284
575,4035.59,1.459933055059426
576,4038.26,1.2501670156834237
577,4040.92,1.210726976454897
578,4043.59,1.3959249370788944
579,4046.2599999999998,1.300656897702892
580,4048.93,1.2348538583268895
581,4051.6000000000004,1.1667488189508872
582,4054.26,0.7781464797223604
583,4056.9300000000003,0.8761288403463581
584,4059.6,1.3046907009703557
