,lambda (Angstroms),Total Flux (erg/s/cm^2/Angstrom)
0,100.05999999999999,0.05445703488265154
1,101.92,0.06546380951726215
2,104.05,0.07806834176016886
3,104.712855,0.08199086627665408
4,105.99000000000001,0.07568490446525507
5,107.96,0.06595793942380314
6,109.97,0.05603347255545975
7,114.09,0.03569078424938924
8,118.1,0.015891225976024062
9,120.22644299999999,0.005391816533768843
10,121.13000000000001,0.0051853826646841685
11,125.10000000000001,0.004278364632578272
12,127.13000000000001,0.0038145745649807565
13,128.01,0.003613522726279455
14,131.0,0.0029304033996585687
15,131.9,0.00272478227060602
16,134.05,0.0022335760992676576
17,136.85,0.0015938659295635163
18,138.038426,0.0013223486903952673
19,140.04000000000002,0.001306198280057904
20,142.97,0.001282559043663015
21,146.98,0.0012502113776209046
22,151.1,0.001216971993155873
23,154.97,0.001185751563845661
24,158.489319,0.0011573620930057182
25,158.95,0.0011516517009617824
26,161.9,0.0011150863706327419
27,166.06,0.0010635257318311801
28,169.93,0.0010155627442523716
29,173.08,0.0009765254322072945
30,177.11999999999998,0.0009264624964813552
31,179.99,0.0008909024454127292
32,181.970086,0.0008663691015815664
33,182.07999999999998,0.0008668084610885704
34,185.89000000000001,0.0008820463745778687
35,191.1,0.0009028896123401377
36,194.2,0.0009153005932088581
37,197.81,0.0009297649811163037
38,201.95999999999998,0.000946398056164752
39,204.76999999999998,0.0009576739983447857
40,208.929613,0.0009743466132848922
41,210.02,0.0010007848063087986
42,215.9,0.0011434542636295478
43,219.92000000000002,0.0012409986976131217
44,222.98,0.0013152467509871843
45,227.12,0.001415740937034447
46,229.75,0.001480315341088625
47,234.01999999999998,0.00158540316944655
48,239.88329199999998,0.001729130485385962
49,240.03,0.0017262443024449307
50,246.18,0.0016040417667382548
51,251.92,0.0014908950880120242
52,257.19,0.0013853507036292304
53,260.16999999999996,0.0013275355916006304
54,263.79,0.0012565983297001143
55,268.69,0.0011599470850557712
56,273.69,0.001061345644806441
57,275.42287,0.0010271871121055182
58,278.78,0.001099546510954379
59,283.96000000000004,0.0012113369767146158
60,289.90999999999997,0.0013391551663040739
61,295.98,0.0014705768464902968
62,300.79,0.0015743644404105155
63,307.79,0.0017261936052216445
64,316.227766,0.0019095176691509325
65,317.88,0.001884422016209659
66,328.28999999999996,0.0017260559166827197
67,338.27000000000004,0.0015744004843216374
68,347.74,0.0014308999413898298
69,356.66,0.0012962199490190037
70,363.078055,0.001199840491333976
71,365.81,0.0012347319078964724
72,375.2,0.0013536925078942242
73,384.82000000000005,0.001474167006464872
74,394.69,0.001602338824353882
75,404.82,0.0017326220619339919
76,414.24999999999994,0.0018526015234226812
77,416.86938299999997,0.0018858613965830559
78,421.95000000000005,0.0019256174418857154
79,429.79,0.0019872991986256893
80,440.82000000000005,0.0020756793220749136
81,451.09000000000003,0.0021564560794115886
82,459.47,0.002222345086284163
83,470.17,0.0023066543407634643
84,478.630092,0.0023749583278858096
85,480.02000000000004,0.002362703056488941
86,490.07,0.0022705048965961524
87,500.33,0.0021811323088847087
88,506.13,0.0021291836310361337
89,511.99,0.002100384202382229
90,520.3100000000001,0.00202784279070979
91,529.98,0.001943102285917425
92,539.83,0.0018499349287090696
93,549.5408739999999,0.0017800052858331877
94,549.87,0.0017797625401792159
95,560.09,0.0017729317752582712
96,570.5,0.001763426221067759
97,579.77,0.0017373925024946513
98,590.5500000000001,0.0017384339586739284
99,600.15,0.0017199261061063094
100,609.9,0.0017071790199048207
101,619.8100000000001,0.0017357608111605383
102,629.88,0.0017321142798734628
103,630.957344,0.0017307530975250657
104,640.12,0.0017862742922849601
105,650.52,0.0018782093151645158
106,658.0500000000001,0.0019411668309609641
107,665.67,0.0020078498138784845
108,674.93,0.0020656164865577816
109,684.32,0.0021127848895230736
110,695.4399999999999,0.002298722549371214
111,705.11,0.0023281610944909546
112,716.5699999999999,0.002510291041240927
113,724.43596,0.0025819129888067917
114,726.54,0.0025972582022461507
115,734.95,0.0026670186387337267
116,745.1800000000001,0.002816075197148459
117,755.54,0.0029261942142722736
118,764.29,0.0030197911273836036
119,774.9200000000001,0.0031892039818262816
120,785.7,0.0033384046347794405
121,794.8,0.0034546617444152234
122,805.86,0.003581626154587945
123,815.1899999999999,0.003694679421939797
124,824.63,0.003918278808199335
125,831.763771,0.0037202740882807265
126,834.1800000000001,0.003634829929670156
127,845.78,0.004046384992708967
128,855.5799999999999,0.004101452425276238
129,865.48,0.004261309392869705
130,875.51,0.004434006455997229
131,885.64,0.004667705054150949
132,895.9,0.004834250747838724
133,904.1899999999999,0.004850189301510426
134,914.6600000000001,0.006709923918753214
135,925.25,0.038659996778027436
136,935.96,0.0863910478793331
137,944.62,0.1697350690126017
138,954.992586,0.24238000766068407
139,955.5600000000001,0.24635641193510194
140,964.4,0.2833007258199405
141,975.57,0.04528911926944799
142,984.6,0.24802487655226382
143,995.9999999999999,0.2687231804309017
144,1005.22,0.4032700811116949
145,1014.52,0.3932100158547942
146,1023.9,0.16769568466019982
147,1035.76,0.27937030939709856
148,1045.34,0.5548699133582697
149,1055.02,0.5535982348973237
150,1064.78,0.43996639049868386
151,1074.63,0.5360386719201385
152,1084.57,0.42507937916168775
153,1094.6100000000001,0.5782551039811198
154,1096.4782,0.5753518788818863
155,1104.74,0.5624983515108962
156,1114.96,0.5459396873544718
157,1125.28,0.49681936523174175
158,1135.69,0.6455938109393368
159,1146.2,0.5902098986806262
160,1154.14,0.6381584161559677
161,1164.82,0.6681734653545378
162,1175.6,0.4646759565868024
163,1183.75,0.6619802323329023
164,1194.7,0.45200168502244736
165,1205.76,0.32318755394905646
166,1214.1100000000001,0.21480941376254523
167,1225.3500000000001,0.4602835183498044
168,1233.84,0.7189923170104655
169,1245.26,0.8047363572583747
170,1253.89,0.775644094766208
171,1258.92541,0.7282105221084252
172,1265.49,0.6663902096400268
173,1274.2600000000002,0.8822690188451153
174,1286.05,0.9366635821892423
175,1294.97,0.7407662189177929
176,1303.94,0.737361364820831
177,1316.01,0.9409815795420874
178,1325.1299999999999,0.9069647529685877
179,1334.32,0.8065632392393703
180,1343.57,0.9785117365195379
181,1356.0,0.9540501172971035
182,1365.3999999999999,0.8543088421007331
183,1374.86,0.9111659779137476
184,1384.39,0.9302214265710445
185,1393.99,0.8177832880726238
186,1403.6499999999999,0.8582592605835878
187,1413.3799999999999,0.8782251459388343
188,1426.46,0.913277145984736
189,1436.3500000000001,0.9132683606983422
190,1442.98,0.9717990772353703
191,1445.43977,0.9868621376234281
192,1446.3000000000002,0.9921299610542809
193,1456.3300000000002,0.9695712056849328
194,1466.4199999999998,0.8986850595556485
195,1476.5900000000001,0.902822125746449
196,1483.4,0.9259762744936814
197,1493.69,0.9518797591646095
198,1504.0400000000002,0.9049266530756013
199,1510.98,0.8065906218429717
200,1517.9599999999998,0.8702110967703844
201,1524.96,0.8465033747778185
202,1535.53,0.739090602569044
203,1546.18,0.8272679426803543
204,1553.31,0.7846435407079265
205,1564.08,0.8010572992993643
206,1574.9199999999998,0.8622438686708764
207,1585.84,0.9111992503624736
208,1596.83,0.9388713428341452
209,1604.2,0.9238673778219721
210,1615.3200000000002,0.9345436903137817
211,1626.52,0.8863963151256761
212,1634.03,0.9518953716736518
213,1645.35,0.9740622149656738
214,1656.76,0.8987140721177913
215,1659.58691,0.9341415359924199
216,1664.4,0.9944649204629128
217,1672.09,0.8843785689516093
218,1675.9399999999998,1.0082888988191623
219,1683.6799999999998,1.058195603539905
220,1695.35,0.9944925280994743
221,1703.17,0.9607653227914907
222,1714.98,0.9175747048007893
223,1726.8700000000001,0.9196794767813617
224,1734.84,0.9876742401695167
225,1746.8600000000001,0.969714358353409
226,1754.93,1.043771734205656
227,1763.03,0.9542096437971311
228,1775.2499999999998,0.9900083869092081
229,1783.44,1.010722797718366
230,1795.8,1.092973698280172
231,1804.0900000000001,1.0854580215534222
232,1816.6,1.008438090811367
233,1824.98,1.0343035153023001
234,1833.41,0.9946414960252796
235,1846.12,0.9156196902114087
236,1854.6399999999999,0.9283527721520711
237,1863.2,0.9653528990783705
238,1876.11,1.0463180181926843
239,1884.77,0.969858857583076
240,1893.4699999999998,0.9391452419591044
241,1905.46072,0.9919932367519727
242,1906.6,0.9970115756281613
243,1915.3999999999999,0.9676087184911332
244,1924.24,0.9521544033671183
245,1933.1200000000001,0.9698420302561171
246,1946.52,1.0343275046156424
247,1955.51,0.9765134720404282
248,1969.06,1.078030828948754
249,1978.1499999999999,1.1056396514060736
250,1982.71,1.0510640408896135
251,1996.4499999999998,1.0271411223597535
252,2005.6699999999998,1.055883756359367
253,2014.93,1.022378332371994
254,2024.23,1.0705178503976347
255,2033.5700000000002,1.0270893104362888
256,2042.96,1.0754346979912095
257,2057.12,1.0341601705979915
258,2066.61,1.0389154131854463
259,2076.15,1.118278583289168
260,2085.73,1.123436695405903
261,2095.36,1.065500735038905
262,2105.0299999999997,1.0704057166849203
263,2114.75,1.0877756258472029
264,2124.51,1.105436477022499
265,2134.32,1.0222132557140615
266,2144.17,1.065431976418638
267,2154.0699999999997,1.105381624639481
268,2164.01,1.070312214873338
269,2174.0,1.0653867326234614
270,2184.03,1.0604811923865984
271,2187.7616199999998,1.0808649398071883
272,2194.11,1.1155591203029627
273,2204.2400000000002,1.085185828706516
274,2214.42,1.0269525949008071
275,2224.64,0.9994669073276891
276,2234.9,1.0863222659871614
277,2245.22,1.0379601939955194
278,2255.58,0.9917681682364683
279,2266.0,1.0153302118263028
280,2276.46,1.0514913016487277
281,2286.96,1.0914514377037434
282,2297.52,1.028586643107645
283,2302.81,1.0407587573677433
284,2313.44,0.994432043678678
285,2324.12,0.7832402877803509
286,2334.85,0.9184258896727621
287,2345.63,0.8795907493559114
288,2356.45,0.9782542552716513
289,2367.33,0.884539230536277
290,2372.79,0.9242956412848852
291,2383.7400000000002,0.8434855974565443
292,2394.74,0.9104802114189415
293,2405.7999999999997,0.8759987947302246
294,2416.9,0.9030806242740982
295,2422.47,0.9790236621623303
296,2433.66,0.9441314957295326
297,2444.8900000000003,1.0074539755293255
298,2456.17,0.9964770131198565
299,2467.5099999999998,0.9901263200592734
300,2473.2000000000003,0.950227596645277
301,2484.6099999999997,0.9728597844917273
302,2496.08,0.9232196416870634
303,2507.6,1.0434624566731376
304,2511.88643,0.944064507039361
305,2513.39,0.9091958383991273
306,2519.18,0.9242003483541201
307,2524.99,0.8889879493624981
308,2536.64,0.9101610379593318
309,2542.4900000000002,0.9020448210744801
310,2554.22,0.9826808738848543
311,2566.01,0.9520668998553838
312,2577.86,1.0159318989860688
313,2583.8,1.00687424184145
314,2595.73,0.9913313051856755
315,2607.7099999999996,0.9560203461633637
316,2613.72,0.9388220577055929
317,2625.79,1.0018114584235143
318,2637.9,1.0471390412482058
319,2643.98,1.1563413214772829
320,2656.19,1.1948358595689
321,2662.31,1.0702151219047473
322,2674.6,1.1289766242099049
323,2686.9500000000003,1.1347930996752178
324,2693.14,1.0741483306979134
325,2705.5699999999997,1.1175927703767667
326,2718.06,1.0508611832157755
327,2724.33,1.0511673784520115
328,2736.9,1.1114387555045608
329,2743.21,0.9420855328475668
330,2755.8700000000003,0.9779502696403491
331,2762.2200000000003,1.0266294290901257
332,2774.98,1.0830037211498333
333,2787.78,1.0020859953163117
334,2794.2099999999996,0.7873069189796285
335,2807.1099999999997,0.8498931484130323
336,2813.58,1.0798864541831195
337,2826.5699999999997,1.160358643356756
338,2833.08,1.1213257312336136
339,2846.16,1.0914318801474836
340,2852.7200000000003,1.0354809456578036
341,2865.89,1.1650750543119064
342,2872.49,1.170774101928997
343,2884.0315,1.1666780604790143
344,2885.7500000000005,1.1660689233288224
345,2892.4,1.1637578624499043
346,2912.45,1.2859246788976788
347,2932.6400000000003,1.2348594940637914
348,2952.97,1.2190093079482427
349,2966.6,1.2510281831693482
350,2987.16,1.2608349949482127
351,3007.8700000000003,1.2854228053538688
352,3028.72,1.2895576144778633
353,3049.71,1.2997114223201964
354,3070.85,1.319008228789321
355,3092.14,1.335511033885237
356,3113.57,1.3429418376994913
357,3127.95,1.3283937060545532
358,3149.63,1.3450665075801265
359,3171.46,1.355687307732491
360,3193.44,1.287047106511647
361,3208.18,1.3423389715710081
362,3230.42,1.2773097679699357
363,3252.81,1.3762705629956546
364,3267.83,1.438695425491693
365,3290.48,1.4368162181371835
366,3311.31121,1.438105535040385
367,3313.29,1.4382276811388774
368,3320.9300000000003,1.43872734411545
369,3328.58,1.4726830053419917
370,3336.25,1.5144486630684721
371,3343.94,1.4138863172948914
372,3351.65,1.440635968021249
373,3359.38,1.4712686152475454
374,3367.12,1.4449262607238114
375,3374.89,1.3152919009499853
376,3382.6699999999996,1.3650635394261281
377,3390.46,1.4834871761522406
378,3398.28,1.4771518076282613
379,3406.11,1.4440404373542512
380,3413.9599999999996,1.4713880635801795
381,3421.8399999999997,1.523568684556016
382,3429.72,1.4859843055318525
383,3437.6299999999997,1.510635921257597
384,3445.55,1.3315085352333107
385,3453.5,1.5504151439589327
386,3461.46,1.408063750934524
387,3469.4399999999996,1.448008354410054
388,3477.44,1.3865409543855223
389,3485.45,1.4423365526109602
390,3493.4900000000002,1.4230641455863062
391,3501.5400000000004,1.4400447368116212
392,3509.61,1.4505083245368753
393,3517.7000000000003,1.4050229087620676
394,3525.81,1.444861489487199
395,3531.22,0.9633452427206095
396,3533.87,1.8833090789624833
397,3536.5099999999998,1.632075616954388
398,3539.1600000000003,1.246472153196262
399,3541.8100000000004,1.364037689438136
400,3544.4500000000003,1.9035492274300407
401,3547.1000000000004,1.7622297636719146
402,3549.75,1.4559462999137884
403,3552.3900000000003,1.596199837905693
404,3555.04,1.471359374147567
405,3557.68,1.4347119121394716
406,3560.33,1.0367674483813456
407,3562.98,1.5468849846232195
408,3565.62,1.4496835226151241
409,3568.27,1.458044058856998
410,3570.91,1.6803415968489028
411,3573.56,1.2408891330907768
412,3576.21,1.3070156693326505
413,3578.85,1.5741412073245553
414,3581.5000000000005,1.726070743566429
415,3584.1400000000003,1.6601652815583336
416,3586.7900000000004,1.3171038178002077
417,3589.44,1.3548803540420817
418,3592.0800000000004,1.4100508920339865
419,3594.73,1.4247394282758603
420,3597.37,1.677110966267765
421,3600.02,1.4472015025096387
422,3602.67,1.1875950387515126
423,3605.31,1.6586875767434173
424,3607.96,1.4385521129852912
425,3610.6,1.104457650977196
426,3613.25,1.45750518721907
427,3615.9,1.4732587234609438
428,3618.54,1.4858872614528484
429,3621.19,1.6950197976947223
430,3623.83,1.5277093356866271
431,3626.4800000000005,1.602732871928501
432,3629.1299999999997,1.585217408170375
433,3631.7700000000004,1.7094949461622795
434,3634.42,1.6890654824041533
435,3637.06,1.296924020396058
436,3639.71,1.524382556637932
437,3642.36,1.350110092879806
438,3645.0,1.5752266308717107
439,3647.65,1.2776521671135845
440,3650.29,1.4579717051054892
441,3652.94,1.485880241347363
442,3655.59,1.499252777589237
443,3658.23,1.3693143155811416
444,3660.88,1.7390268518230156
445,3663.52,1.4393303898149201
446,3666.17,1.7496479260567943
447,3668.8199999999997,1.564691462298668
448,3671.4599999999996,1.4501980002905728
449,3674.1099999999997,1.5252215365324466
450,3676.7499999999995,1.5307080745243513
451,3679.4,1.4528266107662253
452,3682.05,1.7447541470080994
453,3684.69,1.5134436850000037
454,3687.34,1.5867442212418779
455,3689.98,1.7784057592337823
456,3692.63,1.7179092954756563
457,3695.28,1.4238118317175303
458,3697.92,1.490573369709435
459,3700.57,1.7742309059513088
460,3703.21,1.6083934439432135
461,3705.86,1.4531979801850874
462,3708.5099999999998,1.4629055164269615
463,3711.1499999999996,1.467734054418866
464,3713.7999999999997,1.41106059066074
465,3716.4399999999996,1.9407351286526444
466,3719.0899999999997,1.9222166648945185
467,3721.7400000000002,2.0867702011363924
468,3724.38,2.375012739128297
469,3727.03,2.852391275370171
470,3729.67,3.0927698133620756
471,3732.32,2.6712953496039495
472,3734.9700000000003,2.1297478858458234
473,3737.61,1.7408034238377281
474,3740.26,1.853010960079602
475,3742.9,1.9359374980715067
476,3745.55,1.7635430343133807
477,3748.2,1.7607825705552544
478,3750.8399999999997,1.7969381085471592
479,3753.49,1.7315866447890331
480,3756.1299999999997,1.8575561827809377
481,3758.7799999999997,1.8239697190228117
482,3761.43,1.8592072552646857
483,3764.0699999999997,1.87594179325659
484,3766.7200000000003,1.7618773294984642
485,3769.36,1.680965867490369
486,3772.01,1.5927464037322427
487,3774.6600000000003,1.7892529399741166
488,3777.3,1.8808884779660213
489,3779.9500000000003,2.058851014207895
490,3782.59,2.2821835521998
491,3785.2400000000002,2.1344430884416736
492,3787.89,2.0885446246835477
493,3790.5299999999997,2.183909162675452
494,3793.18,2.0837216989173264
495,3795.8199999999997,1.817764236909231
496,3798.47,1.7083057731511049
497,3801.12,1.5836213093929787
498,3801.8939600000003,1.625106602614298
499,3803.7599999999998,1.7251289154281153
500,3806.41,2.0631065482995172
501,3809.0499999999997,2.1557141825563106
502,3811.7000000000003,2.2264758154277122
503,3814.3500000000004,2.1048304482991145
504,3816.9900000000002,2.1775140825559074
505,3819.6400000000003,2.1857797154273095
506,3822.28,2.1769203496841025
507,3824.9300000000003,2.0637019825555045
508,3827.58,1.9583456154269065
509,3830.22,1.8350502496836996
510,3832.87,1.5914818825551016
511,3835.5099999999998,1.5166165168118946
512,3838.16,1.4636711496832966
513,3840.81,1.6309507825546987
514,3843.45,1.9398674168114916
515,3846.1,2.1018210496828935
516,3848.74,2.261310683939686
517,3851.39,2.2380303168110887
518,3854.0400000000004,2.19012694968249
519,3856.6800000000003,2.4267435839392837
520,3859.3300000000004,2.545591216810686
521,3861.9700000000003,2.5415258510674787
522,3864.6200000000003,2.727662483938881
523,3867.27,2.617356116810283
524,3869.91,2.747870751067076
525,3872.56,2.5380713839384774
526,3875.2,2.293480018195271
527,3877.85,2.1976156510666724
528,3880.5,2.124651283938075
529,3883.14,2.0465599181948675
530,3885.79,1.9415485510662698
531,3888.43,1.7356131853230627
532,3891.08,1.8807458181944647
533,3893.7300000000005,2.019329451065867
534,3896.37,1.9261700853226598
535,3899.0200000000004,2.1537537181940616
536,3901.6600000000003,2.2161313524508546
537,3904.31,2.3837859853222567
538,3906.96,2.396373618193659
539,3909.6,2.4158342524504515
540,3912.25,2.6849248853218537
541,3914.89,2.802595519578647
542,3917.54,2.508745152450049
543,3920.19,2.471618785321451
544,3922.83,2.330874419578244
545,3925.48,2.5624670524496462
546,3928.12,2.0655396867064386
547,3930.77,1.9047993195778408
548,3933.42,1.793303952449243
549,3936.06,1.8480045867060357
550,3938.7100000000005,2.0843282195774377
551,3941.35,2.085054853834231
552,3943.9999999999995,2.219034486705633
553,3946.65,2.360187119577035
554,3949.29,2.3789267538338277
555,3951.94,2.55961338670523
556,3954.58,2.3927430209620226
557,3957.23,2.251110653833425
558,3959.88,2.286097286704827
559,3962.52,2.10669692096162
560,3965.17,1.731337553833022
561,3967.81,1.640119188089815
562,3970.46,1.597322820961217
563,3973.11,1.617306453832619
564,3975.75,1.839604088089412
565,3978.4,2.134006720960814
566,3981.04,2.174142355217607
567,3983.6899999999996,2.426848988089009
568,3986.3399999999997,2.4493046209604112
569,3988.9799999999996,2.373909255217204
570,3991.63,2.697475888088606
571,3994.27,2.6093615223453988
572,3996.92,2.7481331552168013
573,3999.57,2.750100788088203
574,4002.21,2.8267024223449964
575,4004.86,2.932830055216398
576,4007.51,2.7946116880878002
577,4010.15,2.515249322344593
578,4012.8,2.8312659552159953
579,4015.44,3.126621589472788
580,4018.09,2.9528462223441903
581,4020.74,2.814878855215592
582,4023.3799999999997,3.0650294894723853
583,4026.0299999999997,2.9441651223437875
