,lambda (Angstroms),Total Flux (erg/s/cm^2/Angstrom)
0,100.00999999999999,0.17317365137466822
1,102.10000000000001,0.17263237491936828
2,104.0,0.1721403054145559
3,104.712855,0.1719556874109528
4,105.93,0.1702998774896312
5,107.89999999999999,0.16761987999961311
6,109.91000000000001,0.16488546631695516
7,114.03,0.15928059846991838
8,118.04,0.15382537515289332
9,120.22644299999999,0.15085092756372137
10,121.07,0.14988880304321814
11,125.03999999999999,0.14536079326246432
12,127.07,0.14304546332437051
13,127.95,0.14204177349910224
14,130.93,0.13864291477266918
15,132.14,0.13726284126318397
16,133.98,0.13516421708360102
17,137.1,0.13160568043186893
18,138.038426,0.13053535244622555
19,139.97,0.1289606343787653
20,142.9,0.1265719482975411
21,146.91,0.12330279089840113
22,151.02,0.11995210837712093
23,154.9,0.1167889336423624
24,158.489319,0.11386273695185622
25,158.86999999999998,0.11362810617069372
26,161.82,0.11180988881115107
27,165.97,0.10925205761552953
28,169.84,0.10686680299338233
29,173.0,0.10491915322898371
30,177.03,0.10243528344746507
31,179.89999999999998,0.10066637371354481
32,181.970086,0.0993904868597839
33,181.99,0.0993811230525224
34,185.79999999999998,0.09758961430140173
35,191.0,0.09514451050901974
36,194.11,0.09368215037501723
37,198.17000000000002,0.09177308861509033
38,201.85000000000002,0.09004270755599042
39,205.13,0.0885004113857954
40,208.929613,0.08671378686260166
41,209.91,0.08636720801756945
42,215.79000000000002,0.08428855592176872
43,219.81,0.08286743665869074
44,222.86,0.08178922430844708
45,227.01,0.08032214853077534
46,230.16,0.07920859163459584
47,233.9,0.07788646015847438
48,239.88329199999998,0.07577129738206535
49,239.9,0.0757667458065094
50,246.06,0.07408864267716764
51,251.79,0.07252768127382925
52,257.06,0.07109202856496093
53,260.04,0.0702802224076442
54,264.26,0.069130614517092
55,269.18,0.06779031252483571
56,274.18,0.06642821715910813
57,275.42287,0.06608963560238994
58,279.28000000000003,0.06528322780495088
59,283.82,0.06433405391846962
60,289.76,0.06309218146580967
61,295.83000000000004,0.061823131395065366
62,301.33,0.06067324768917614
63,308.35,0.05920558328110344
64,316.227766,0.057558588310521755
65,317.72,0.057325570627111515
66,328.12,0.05570157062147504
67,338.09,0.05414471781790572
68,348.37,0.05253945809045611
69,357.29999999999995,0.051145009576186444
70,363.078055,0.05024275069642362
71,365.63,0.049944322949333785
72,375.01,0.048847408976484055
73,384.63,0.04772243258033925
74,395.4,0.046462985079872135
75,404.60999999999996,0.045385970538923105
76,414.04,0.04428323221462023
77,416.86938299999997,0.04395236697471191
78,421.73,0.04351830965832778
79,429.57,0.04281819997565582
80,440.59000000000003,0.04183413744856971
81,450.86,0.0409170580267294
82,460.3,0.04007410043862642
83,469.94,0.039213330086544575
84,478.630092,0.03843739979972499
85,479.78,0.03835843818890276
86,489.82,0.03766903010950396
87,500.08,0.036964586300529276
88,505.87,0.036571035791514335
89,511.73,0.036182994853057045
90,520.04,0.035612930894118495
91,529.7099999999999,0.03495002826372911
92,539.56,0.03427304280505946
93,549.5408739999999,0.03359360035326328
94,549.59,0.033591056314886895
95,559.8100000000001,0.033061451208912004
96,570.21,0.03252078902705889
97,579.48,0.032034821934330195
98,590.25,0.031477369965949624
99,599.84,0.030976557560548523
100,609.59,0.03047299336881122
101,619.49,0.02996272708550874
102,629.56,0.02943997110109904
103,630.957344,0.02936729472460242
104,639.79,0.02900382258130223
105,650.1899999999999,0.02857936044245417
106,657.72,0.028271023207826672
107,665.3299999999999,0.02796123579890035
108,674.59,0.027582300201310625
109,685.5500000000001,0.027128600802370742
110,695.08,0.026750846160272467
111,704.75,0.026348146220651236
112,716.21,0.025893125144843657
113,724.43596,0.02555773781082153
114,726.17,0.025505599276834916
115,734.5799999999999,0.025254691280629432
116,744.8000000000001,0.02495292384172097
117,755.16,0.024643978636526103
118,765.66,0.024331390765044814
119,774.53,0.02407205059389823
120,785.3000000000001,0.02375669860886457
121,794.4,0.02348785750024745
122,805.45,0.02315898408264095
123,814.78,0.022883179436553294
124,824.2099999999999,0.02261287980026105
125,831.763771,0.022369594624096607
126,835.6800000000001,0.022273955314376585
127,845.35,0.022091722489909087
128,855.1400000000001,0.021881513437940443
129,865.04,0.021674105319095745
130,875.0600000000001,0.021463716772749893
131,885.19,0.021252921559527994
132,895.4399999999999,0.02103711291880495
133,905.81,0.020812058650580757
134,914.19,0.020788144446750593
135,924.7800000000001,0.02324528464477429
136,935.4899999999999,0.026446675315296854
137,944.14,0.032429203874589106
138,954.992586,0.03571895211394287
139,955.0799999999999,0.03574549346662705
140,963.9100000000001,0.039294962430226635
141,975.0699999999999,0.025591370974255092
142,984.1,0.03974404328810607
143,995.49,0.03891139873492365
144,1004.7,0.041912819364000896
145,1014.0,0.040373810650691275
146,1025.74,0.028461244210448818
147,1035.23,0.03731764132987804
148,1044.81,0.04478191910692039
149,1054.48,0.04418502754157587
150,1064.24,0.04134918663384449
151,1074.08,0.043433721866213665
152,1084.02,0.040734322273708545
153,1094.05,0.04386225333881656
154,1096.4782,0.04356683154999358
155,1104.17,0.04266246018769771
156,1114.3899999999999,0.042535594550813446
157,1124.7,0.040385007386794194
158,1135.11,0.04290367408151385
159,1145.61,0.04134941924909851
160,1156.21,0.04201163827542207
161,1164.23,0.04223960774628198
162,1175.0,0.036553798332461675
163,1185.87,0.04133992277738027
164,1194.09,0.038820309965717975
165,1205.1399999999999,0.0348660413563666
166,1216.29,0.025479226605754118
167,1224.72,0.036146626897443516
168,1236.05,0.04010658909256107
169,1244.6200000000001,0.04069125478648492
170,1256.14,0.04022862931320638
171,1258.92541,0.03999957686093891
172,1264.85,0.0395437841659471
173,1273.6100000000001,0.04087257526239823
174,1285.3999999999999,0.040781459032621856
175,1294.31,0.03831295600401221
176,1306.28,0.038574830824162895
177,1315.3400000000001,0.04025894367049249
178,1324.46,0.03937617686679778
179,1333.64,0.03827427041307876
180,1345.98,0.03921930572474622
181,1355.3100000000002,0.03909649514596643
182,1364.7,0.038046584917162334
183,1374.16,0.03792204342999655
184,1383.6899999999998,0.03791808068446907
185,1396.49,0.03487026201261684
186,1406.1699999999998,0.035347195142028595
187,1415.9199999999998,0.03677203701307866
188,1425.73,0.03634746923410441
189,1435.61,0.036572680196768466
190,1442.24,0.0367854138690825
191,1445.43977,0.03656908291919229
192,1445.57,0.036560795880981094
193,1455.59,0.036230447979239674
194,1465.68,0.0354376470282845
195,1475.84,0.035344223028115566
196,1486.07,0.03519298597873287
197,1496.37,0.03498425588013641
198,1503.27,0.034134889600494114
199,1513.69,0.032850567131816916
200,1517.1799999999998,0.033350766535302195
201,1524.19,0.033340039749752554
202,1534.75,0.031578001182647836
203,1545.39,0.031530697702155955
204,1556.1,0.030935511172450317
205,1563.28,0.031669852695952974
206,1574.12,0.0322953119319932
207,1585.03,0.03230055811881967
208,1596.02,0.03230547939225897
209,1603.39,0.03176448549646714
210,1614.5,0.03150725439982571
211,1625.6899999999998,0.03130144838979713
212,1633.1899999999998,0.03170027025975116
213,1644.5100000000002,0.03133505001546844
214,1655.9099999999999,0.03112706485779857
215,1659.58691,0.031318987018581025
216,1663.56,0.03153730427372952
217,1671.24,0.030761130973516675
218,1675.09,0.031621629983175595
219,1686.6999999999998,0.031441040970744454
220,1694.4899999999998,0.030868299927950434
221,1706.23,0.030383624492468814
222,1714.1100000000001,0.02978172438756292
223,1725.99,0.02955767818879617
224,1733.95,0.03000322336201306
225,1745.97,0.029576966399961185
226,1754.03,0.029823648170831555
227,1766.19,0.029103470445494543
228,1774.3400000000001,0.029002483154253043
229,1786.6399999999999,0.029069434665630906
230,1794.89,0.029262003972042882
231,1803.17,0.029258320257750905
232,1815.67,0.028304144964435722
233,1824.0500000000002,0.028489197847797222
234,1836.7,0.02812104745096226
235,1845.1799999999998,0.02704882693197724
236,1853.69,0.02685926339228826
237,1866.54,0.027047236190760254
238,1875.1599999999999,0.027497774908490105
239,1883.81,0.026266750605515997
240,1896.87,0.025493562259060295
241,1905.46072,0.02633029245833053
242,1905.63,0.02634707121639756
243,1914.42,0.02565144670912641
244,1923.26,0.025227896453804802
245,1936.59,0.025719166023551746
246,1945.53,0.026026284272129212
247,1954.5100000000002,0.024954833922266308
248,1968.0600000000002,0.025700906200591213
249,1977.14,0.02609899435462739
250,1986.27,0.025269616760613105
251,1995.44,0.024887380568158448
252,2004.65,0.025182935777263424
253,2013.9,0.025096862387928028
254,2023.19,0.025397520400152265
255,2037.2199999999998,0.02456497949719274
256,2046.6200000000001,0.024604258863705958
257,2056.07,0.023820952482168718
258,2065.56,0.024059917502191108
259,2075.09,0.02476578392377313
260,2079.88,0.023992379260538908
261,2084.67,0.02421675459730469
262,2094.29,0.023640836672395877
263,2103.96,0.023919682999436604
264,2113.67,0.023873880728036964
265,2123.43,0.02395122270858686
266,2133.23,0.023618646090696388
267,2143.08,0.023290593724755455
268,2152.97,0.023485012760374152
269,2162.9100000000003,0.023277076047942387
270,2172.89,0.023110090737070252
271,2182.92,0.02290433967814766
272,2187.7616199999998,0.022938477514737248
273,2193.0,0.022983401719140588
274,2203.12,0.022753749928970002
275,2213.29,0.022526168643788688
276,2223.5,0.022262149762598795
277,2233.77,0.022306149487396034
278,2244.08,0.022158161616184696
279,2254.44,0.021897474249962634
280,2264.8399999999997,0.021901889287731992
281,2275.3,0.021830842931488476
282,2285.8,0.021797448979236383
283,2296.35,0.02128014553197357
284,2306.9500000000003,0.021386032589700028
285,2317.6,0.021124740152415764
286,2322.94,0.019615456085270416
287,2333.66,0.020703130354971136
288,2344.4300000000003,0.020485055129661135
289,2355.25,0.02058426040934041
290,2366.13,0.020261604295006813
291,2377.05,0.020219690584664635
292,2382.5299999999997,0.01992322993148926
293,2393.52,0.019983772928132068
294,2404.57,0.01977086453076201
295,2415.67,0.019660606638381227
296,2426.82,0.01968548925098972
297,2432.42,0.019428895809788606
298,2443.64,0.019419375129382084
299,2454.92,0.019342953054962694
300,2466.25,0.01913404148553258
301,2477.6400000000003,0.018959708522089596
302,2483.35,0.018938014191864888
303,2494.81,0.018258537935406893
304,2506.33,0.018753200284936024
305,2511.88643,0.01830445836145889
306,2512.11,0.018286584458518055
307,2517.9,0.018521493097469307
308,2523.7,0.01831458796895761
309,2535.35,0.01818606887461946
310,2547.05,0.017996550942966552
311,2552.92,0.018133949442214196
312,2564.71,0.01797483760339473
313,2576.54,0.018001550694723454
314,2582.4900000000002,0.017921999054267487
315,2594.41,0.017794608238429658
316,2606.3799999999997,0.017607298585277067
317,2612.39,0.017499114340043396
318,2624.45,0.017433560779724244
319,2636.56,0.017367888382090337
320,2642.64,0.017499907764616008
321,2654.84,0.01740366145981554
322,2667.0899999999997,0.017129776317700317
323,2673.2400000000002,0.017141099327985326
324,2685.5800000000004,0.017075340278703544
325,2697.9700000000003,0.016805792392107003
326,2704.19,0.016816459030151356
327,2716.6800000000003,0.016635913468925304
328,2722.9399999999996,0.01647553503711785
329,2735.5099999999998,0.01652371933618819
330,2748.1299999999997,0.01615055479794377
331,2754.47,0.016132116226432708
332,2767.1800000000003,0.01606761778102173
333,2773.56,0.016159624139658865
334,2786.36,0.015984131787081322
335,2792.79,0.0154814093084037
336,2805.68,0.015603253048659602
337,2812.15,0.01579985550013017
338,2825.13,0.01565395533321951
339,2838.17,0.015429532561531144
340,2844.7099999999996,0.01541069864076106
341,2857.8399999999997,0.01526729196190613
342,2864.43,0.015327109203821286
343,2877.65,0.015210178617799795
344,2884.0315,0.015141389485978119
345,2884.28,0.015138884290687101
346,2897.6000000000004,0.015031885953476999
347,2910.97,0.015002853688574664
348,2931.15,0.014779560471990588
349,2951.47,0.014558882257868267
350,2971.92,0.014465105831746147
351,2992.5299999999997,0.014296990837008892
352,3013.27,0.01413023763027184
353,3027.18,0.014003968946293419
354,3048.16,0.013839662886633661
355,3069.29,0.013676765043897213
356,3090.56,0.01349195220362252
357,3111.9900000000002,0.01335468679473269
358,3133.5600000000004,0.013150308388304615
359,3148.0200000000004,0.013030558499711666
360,3169.8399999999997,0.012873817454822441
361,3191.82,0.01261085584131808
362,3206.55,0.012579922743187089
363,3228.78,0.012384670491221578
364,3251.1600000000003,0.012295889456179375
365,3273.69,0.012186127638060483
366,3288.8,0.01205145568946854
367,3311.31121,0.011904007236661915
368,3311.6,0.011902257054897792
369,3319.23,0.012053580376752141
370,3326.8900000000003,0.0120617720301472
371,3334.55,0.012049636683542262
372,3342.2400000000002,0.011438994668478033
373,3349.95,0.012045597874440947
374,3357.6699999999996,0.011530927190917431
375,3365.41,0.011616976728421054
376,3373.1699999999996,0.011467688486951821
377,3380.94,0.011301475355996156
378,3388.7400000000002,0.011659265556581205
379,3396.5499999999997,0.011626885867679822
380,3404.38,0.011379843399805583
381,3412.23,0.011328786152958485
382,3420.09,0.011510795016624956
383,3427.98,0.011458974211832139
384,3435.88,0.011505337517552892
385,3443.8,0.011337038044300786
386,3451.74,0.011460725792075825
387,3459.69,0.01108351865036443
388,3467.67,0.01105231684019375
389,3475.66,0.011134066140536638
390,3483.6800000000003,0.010824095772420238
391,3491.71,0.011223110514817409
392,3499.76,0.011115162478241722
393,3507.8199999999997,0.010896669552179605
394,3515.91,0.0108656199576582
395,3524.02,0.010964094584163935
396,3532.14,0.010951590321183242
397,3540.28,0.010976225279229689
398,3548.44,0.011095649458303278
399,3556.62,0.011120949858404009
400,3564.82,0.01101306047953188
401,3573.04,0.01085031232168689
402,3581.28,0.010528451384869044
403,3589.53,0.010409543558564768
404,3597.8100000000004,0.010467361063801204
405,3606.1,0.010633797679551209
406,3614.4100000000003,0.010657275516328358
407,3622.74,0.010717415574132647
408,3631.1,0.010965670963477645
409,3639.4700000000003,0.010672956463336216
410,3647.86,0.010678233184221928
411,3656.27,0.010610309126134781
412,3664.7000000000003,0.010597195289074776
413,3673.14,0.010547664562528342
414,3681.61,0.010408719167522618
415,3681.7499999999995,0.010053598714712605
416,3684.5,0.010999146105944515
417,3687.24,0.01131178838666285
418,3689.9900000000002,0.01104859077789476
419,3692.73,0.010170596058613098
420,3695.4700000000003,0.010605209339331434
421,3698.22,0.010698869730563342
422,3700.9599999999996,0.01116111801128168
423,3703.71,0.010806680402513587
424,3706.45,0.009417458683231926
425,3709.19,0.010663220963950261
426,3711.94,0.010337848355182169
427,3714.6800000000003,0.012311856635900507
428,3717.42,0.013786316916618845
429,3720.17,0.024510897307850752
430,3722.91,0.04412965958856909
431,3725.6600000000003,0.068284389979801
432,3728.4,0.06889112226051934
433,3731.14,0.04884626454123767
434,3733.8900000000003,0.026840594932469583
435,3736.63,0.014373557213187919
436,3739.38,0.012284371604419825
437,3742.12,0.010484455885138163
438,3744.8599999999997,0.0103871161658565
439,3747.61,0.010783321557088409
440,3750.35,0.009956065837806746
441,3753.1,0.010531176229038656
442,3755.8399999999997,0.010076027509756991
443,3758.5800000000004,0.010147109790475329
444,3761.33,0.010839188181707237
445,3764.0699999999997,0.011615889462425574
446,3766.82,0.010579897853657481
447,3769.56,0.010629303134375821
448,3772.3,0.010890013415094157
449,3775.0499999999997,0.010474116806326065
450,3777.79,0.010884906087044403
451,3780.5299999999997,0.01205539336776274
452,3783.28,0.012285075758994646
453,3786.02,0.011584320039712985
454,3788.77,0.011206773430944894
455,3791.51,0.00985900371166323
456,3794.25,0.010470853992381568
457,3797.0,0.011918335383613475
458,3799.74,0.011391720664331815
459,3801.8939600000003,0.010959981228367367
460,3802.4900000000002,0.010840716588349382
461,3805.23,0.010907981704704101
462,3807.97,0.011201082821058821
463,3810.7200000000003,0.011738546496232353
464,3813.46,0.011647633612587072
465,3816.21,0.011897322287760605
466,3818.95,0.011769247404115326
467,3821.6899999999996,0.011786010520470045
468,3824.44,0.011707667195643577
469,3827.18,0.010839909311998297
470,3829.93,0.010586236987171831
471,3832.67,0.01124286410352655
472,3835.4100000000003,0.011752511219881268
473,3838.16,0.010985465895054801
474,3840.9,0.010735895011409521
475,3843.64,0.011533077127764241
476,3846.39,0.010992582802937773
477,3849.13,0.011378589919292494
478,3851.8799999999997,0.011972989594466027
479,3854.6200000000003,0.011655048710820745
480,3857.36,0.011844286827175464
481,3860.11,0.013981170502348997
482,3862.85,0.01717202761870372
483,3865.6000000000004,0.02289747629387725
484,3868.34,0.02586799341023197
485,3871.08,0.02333032052658669
486,3873.83,0.01735401920176022
487,3876.5699999999997,0.013408426318114942
488,3879.32,0.011890503993288474
489,3882.06,0.012665052109643193
490,3884.7999999999997,0.013936539225997914
491,3887.55,0.016288057901171445
492,3890.29,0.015618755017526166
493,3893.04,0.012967353692699697
494,3895.7799999999997,0.01173798080905442
495,3898.52,0.011383830925409138
496,3901.27,0.01154656960058267
497,3904.0099999999998,0.011360842716937389
498,3906.75,0.01165108783329211
499,3909.5,0.012250726508465641
500,3912.2400000000002,0.011647157624820362
501,3914.99,0.011831574299993894
502,3917.73,0.011852386416348613
503,3920.47,0.011940380532703333
504,3923.2200000000003,0.011254091207876866
505,3925.96,0.011181282324231585
506,3928.71,0.011426684999405117
507,3931.4500000000003,0.010865996115759837
508,3934.19,0.010896098232114557
509,3936.94,0.01077487790728809
510,3939.68,0.011343840023642809
511,3942.4300000000003,0.011579713698816342
512,3945.17,0.011452589815171062
513,3947.91,0.011217312931525782
514,3950.66,0.010900510606699314
515,3953.4,0.011952113723054034
516,3956.15,0.011535018398227565
517,3958.89,0.011065806514582286
518,3961.6299999999997,0.012370403630937004
519,3964.38,0.015105224306110538
520,3967.12,0.01748565142246526
521,3969.86,0.017099348538819975
522,3972.6099999999997,0.01519453721399351
523,3975.3500000000004,0.01172157233034823
524,3978.1,0.011246351005521762
525,3980.84,0.010788811121876482
526,3983.58,0.011390172238231201
527,3986.33,0.011273714913404734
528,3989.07,0.011597786029759452
529,3991.8199999999997,0.011952769704932987
530,3994.56,0.011868525821287706
531,3997.2999999999997,0.011879335937642425
532,4000.05,0.011821479612815957
533,4002.79,0.010643315729170679
534,4005.5400000000004,0.01220656640434421
535,4008.28,0.01231123552069893
536,4011.02,0.011483973637053651
537,4013.77,0.012047165312227182
538,4016.5099999999998,0.011914324428581901
539,4019.26,0.011948661103755434
540,4022.0,0.012463546220110153
541,4024.74,0.012597993336464875
542,4027.4900000000002,0.012187568011638405
543,4030.23,0.011556843127993125
544,4032.9700000000003,0.011409230244347845
545,4035.72,0.011843305919521378
546,4038.46,0.011734764035876099
547,4041.21,0.012070452711049631
548,4043.95,0.01100568482740435
549,4046.69,0.011505324943759068
550,4049.44,0.011049876618932601
551,4052.1800000000003,0.011521881735287322
552,4054.93,0.012060774410460854
553,4057.67,0.011566074526815573
554,4060.41,0.011054933643170294
555,4063.1600000000003,0.011841580318343824
556,4065.9,0.012124915434698546
557,4068.6499999999996,0.011860997109872078
558,4071.39,0.012410425226226797
559,4074.13,0.012276872342581518
560,4076.88,0.011207045017755051
561,4079.62,0.01118259313410977
562,4082.3700000000003,0.011278155809283302
563,4085.11,0.011369957925638021
564,4087.85,0.011545615041992741
565,4090.6,0.010948900717166275
566,4093.3399999999997,0.011504522833520993
567,4096.08,0.013264123949875714
568,4098.83,0.017044752625049245
