,lambda (Angstroms),Total Flux (erg/s/cm^2/Angstrom)
0,100.00999999999999,8.106394071963043e-05
1,102.10000000000001,9.957508307040972e-05
2,104.0,0.00011640339430412939
3,104.712855,0.00012271715525763812
4,105.93,0.00011372231922347619
5,107.89999999999999,9.916380156794361e-05
6,109.91000000000001,8.430967954390873e-05
7,114.03,5.386242445317302e-05
8,118.04,2.4228081628047772e-05
9,120.22644299999999,8.070026998912265e-06
10,121.07,7.78157121756241e-06
11,125.03999999999999,6.424022554562098e-06
12,127.07,5.7298605676320236e-06
13,127.95,5.428943168376736e-06
14,130.93,4.409927473558616e-06
15,132.14,3.996166308181607e-06
16,133.98,3.3669759058667407e-06
17,137.1,2.3000884366170967e-06
18,138.038426,1.9791928567073872e-06
19,139.97,1.9558677084825567e-06
20,142.9,1.9204905081749677e-06
21,146.91,1.8720753735850587e-06
22,151.02,1.8224529118856757e-06
23,154.9,1.7756129017180835e-06
24,158.489319,1.7322863260458457e-06
25,158.86999999999998,1.7252247107557123e-06
26,161.82,1.670507023999701e-06
27,165.97,1.5935363861585327e-06
28,169.84,1.5217698261799015e-06
29,173.0,1.463174330816988e-06
30,177.03,1.3884594830883356e-06
31,179.89999999999998,1.3352618768473355e-06
32,181.970086,1.296893074899079e-06
33,181.99,1.2970124062920141e-06
34,185.79999999999998,1.3198631180604272e-06
35,191.0,1.3510653630438258e-06
36,194.11,1.3697454547356275e-06
37,198.17000000000002,1.3941544096599736e-06
38,201.85000000000002,1.4163222765313016e-06
39,205.13,1.4360717692731375e-06
40,208.929613,1.458993256213986e-06
41,209.91,1.4946045901885078e-06
42,215.79000000000002,1.7083071254096744e-06
43,219.81,1.854436787315981e-06
44,222.86,1.9653322791279807e-06
45,227.01,2.1162660179541426e-06
46,230.16,2.2374760898583385e-06
47,233.9,2.377783263706495e-06
48,239.88329199999998,2.5995477147184452e-06
49,239.9,2.5990620118579103e-06
50,246.06,2.4174968937029545e-06
51,251.79,2.250016120435438e-06
52,257.06,2.091892229140532e-06
53,260.04,2.0075305920136206e-06
54,264.26,1.8848674786996745e-06
55,269.18,1.7410076867317542e-06
56,274.18,1.5949635692033805e-06
57,275.42287,1.558597520906863e-06
58,279.28000000000003,1.6839692689044103e-06
59,283.82,1.8326589282545371e-06
60,289.76,2.025427033747876e-06
61,295.83000000000004,2.2238226272402298e-06
62,301.33,2.4005063356599864e-06
63,308.35,2.631359167606661e-06
64,316.227766,2.892140425758829e-06
65,317.72,2.8590894313707008e-06
66,328.12,2.625984378105867e-06
67,338.09,2.4035653101971756e-06
68,348.37,2.174966514008473e-06
69,357.29999999999995,1.9801466874262655e-06
70,363.078055,1.8572725735941459e-06
71,365.63,1.909143346530533e-06
72,375.01,2.0951532757757067e-06
73,384.63,2.2895283818885606e-06
74,395.4,2.5186605938257155e-06
75,404.60999999999996,2.7206272561229486e-06
76,414.04,2.9303666638822236e-06
77,416.86938299999997,2.9943421686858307e-06
78,421.73,3.068798444040843e-06
79,429.57,3.198015000375222e-06
80,440.59000000000003,3.399859023437069e-06
81,450.86,3.5976686977424377e-06
82,460.3,3.7848776247573043e-06
83,469.94,4.0225597981072305e-06
84,478.630092,4.258147503100276e-06
85,479.78,4.260250540601399e-06
86,489.82,4.294880603497516e-06
87,500.08,4.401091457214066e-06
88,505.87,8.44752345653364e-06
89,511.73,2.2810397493841533e-05
90,520.04,2.339075286074061e-05
91,529.7099999999999,2.4523082679984182e-05
92,539.56,2.3933110882626292e-05
93,549.5408739999999,2.987321021750776e-05
94,549.59,2.9902922724213195e-05
95,559.8100000000001,3.5731884760326086e-05
96,570.21,3.9934116538757994e-05
97,579.48,3.96298232681872e-05
98,590.25,4.642686785027485e-05
99,599.84,4.8042320788271196e-05
100,609.59,5.5288516830551104e-05
101,619.49,6.369124265809686e-05
102,629.56,6.851070490894391e-05
103,630.957344,6.904231102786473e-05
104,639.79,7.249941985306456e-05
105,650.1899999999999,8.007767996360137e-05
106,657.72,8.455431112055737e-05
107,665.3299999999999,9.0904155662979e-05
108,674.59,9.665068253063007e-05
109,685.5500000000001,9.825539633942654e-05
110,695.08,0.00011639931213302423
111,704.75,0.00011541385885118681
112,716.21,0.00013646806881914374
113,724.43596,0.00014280641174101055
114,726.17,0.00014413783727200706
115,734.5799999999999,0.00015255624619161113
116,744.8000000000001,0.00016592743515217638
117,755.16,0.0001764378253313795
118,765.66,0.00018762251672922047
119,774.53,0.0002017930725100633
120,785.3000000000001,0.00021853923054384878
121,794.4,0.00023030100975531098
122,805.45,0.00024215967022637221
123,814.78,0.0002540500728684538
124,824.2099999999999,0.0002745290335238481
125,831.763771,0.0002641680284138903
126,835.6800000000001,0.00025875181142258894
127,845.35,0.0002992989384560626
128,855.1400000000001,0.00031463442890670453
129,865.04,0.00033530506082308397
130,875.0600000000001,0.0003557598561566316
131,885.19,0.0003783421929559169
132,895.4399999999999,0.0003986756931723704
133,905.81,0.00041252815680599213
134,914.19,0.0005816745521049073
135,924.7800000000001,0.0032827898986700042
136,935.4899999999999,0.006730920308652269
137,944.14,0.012912729796639813
138,954.992586,0.01645250270845894
139,955.0799999999999,0.01648101498592255
140,963.9100000000001,0.020229574093003563
141,975.0699999999999,0.0067776073257356274
142,984.1,0.021133879186091407
143,995.49,0.020558045135089457
144,1004.7,0.023767123773392528
145,1014.0,0.022437802300669246
146,1025.74,0.01078993781789814
147,1035.23,0.019860306110785885
148,1044.81,0.02754058429264728
149,1054.48,0.02716172236348232
150,1064.24,0.024545940323291007
151,1074.08,0.026852338184409602
152,1084.02,0.024377055922165578
153,1094.05,0.0277311335488952
154,1096.4782,0.02749046042217886
155,1104.17,0.02672806085516016
156,1114.3899999999999,0.026789831395468835
157,1124.7,0.024829541588285126
158,1135.11,0.02754035139499876
159,1145.61,0.026179900854220006
160,1156.21,0.027037769927338598
161,1164.23,0.02741376896190568
162,1175.0,0.02192674737864976
163,1185.87,0.026913505409291185
164,1194.09,0.02454561367165296
165,1205.1399999999999,0.020795301007309603
166,1216.29,0.011614287956863593
167,1224.72,0.022437285408409793
168,1236.05,0.026606371662979005
169,1244.6200000000001,0.027349218573981485
170,1256.14,0.027099224094955653
171,1258.92541,0.026921583491446993
172,1264.85,0.02654376496749745
173,1273.6100000000001,0.02798784737327636
174,1285.3999999999999,0.028051900611191134
175,1294.31,0.02570066305816489
176,1306.28,0.02612007634551347
177,1315.3400000000001,0.027923428833682075
178,1324.46,0.027160691338328612
179,1333.64,0.02617960385945309
180,1345.98,0.027287047248415623
181,1355.3100000000002,0.027287029810734945
182,1364.7,0.026360702389532205
183,1374.16,0.026360664987553725
184,1383.6899999999998,0.026482127604799507
185,1396.49,0.023602771120092892
186,1406.1699999999998,0.02420710377853352
187,1415.9199999999998,0.025760266456198402
188,1425.73,0.025464809150341227
189,1435.61,0.02582005186370831
190,1442.24,0.026120043684520432
191,1445.43977,0.025945825254361694
192,1445.57,0.025938734593298117
193,1455.59,0.02570043690286871
194,1465.68,0.02500032922857403
195,1475.84,0.02500024157041407
196,1486.07,0.024942983928388836
197,1496.37,0.02482887630249833
198,1503.27,0.024042897892921192
199,1513.69,0.022854300294690214
200,1517.1799999999998,0.02338656109912149
201,1524.19,0.023440232714898916
202,1534.75,0.021775205148937386
203,1545.39,0.021825647601415542
204,1556.1,0.02132885007002842
205,1563.28,0.022129151724990182
206,1574.12,0.02285419422356755
207,1585.03,0.022959666738279642
208,1596.02,0.023065549271431424
209,1603.39,0.022592260970187437
210,1614.5,0.022437093530998743
211,1625.6899999999998,0.022334086110249736
212,1633.1899999999998,0.02280180783897024
213,1644.5100000000002,0.02254058044818572
214,1655.9099999999999,0.022437323075840884
215,1659.58691,0.022663023713916278
216,1663.56,0.022906910611135888
217,1671.24,0.0221801635386466
218,1675.09,0.023065440019234648
219,1686.6999999999998,0.022959569561994977
220,1694.4899999999998,0.02243696267466535
221,1706.23,0.022027842436250725
222,1714.1100000000001,0.021476655700415362
223,1725.99,0.021329065697658488
224,1733.95,0.021825839096484695
225,1745.97,0.02147693932938557
226,1754.03,0.021775492896538736
227,1766.19,0.02113357336509736
228,1774.3400000000001,0.02108503708374479
229,1786.6399999999999,0.021231147787961164
230,1794.89,0.021476811674935557
231,1803.17,0.02152641561240804
232,1815.67,0.020652686653278338
233,1824.0500000000002,0.020891670759077784
234,1836.7,0.02060493205243852
235,1845.1799999999998,0.01958728632656493
236,1853.69,0.019452490651189425
237,1866.54,0.019723162281204087
238,1875.1599999999999,0.020229176790988245
239,1883.81,0.01905382135127049
240,1896.87,0.018364683334771773
241,1905.46072,0.01925670088860312
242,1905.63,0.01927427742797396
243,1914.42,0.01862007835584269
244,1923.26,0.018238189175223758
245,1936.59,0.01879228025241263
246,1945.53,0.01914153085481837
247,1954.5100000000002,0.01811240137043398
248,1968.0600000000002,0.01892233197027713
249,1977.14,0.01936321226891741
250,1986.27,0.01857686245907003
251,1995.44,0.018237842562432518
252,2004.65,0.018576802579004875
253,2013.9,0.018534322508787098
254,2023.19,0.018878762351779196
255,2037.2199999999998,0.018112341910140772
256,2046.6200000000001,0.018195921514460006
257,2056.07,0.017457151010291577
258,2065.56,0.017740840419333017
259,2075.09,0.01849161974158433
260,2079.88,0.017740789348466148
261,2084.67,0.017987738955347974
262,2094.29,0.017457158082321487
263,2103.96,0.017781577100807338
264,2113.67,0.017781536032503056
265,2123.43,0.017904874855711114
266,2133.23,0.01761848359212904
267,2143.08,0.0173368522200593
268,2152.97,0.01757788076119943
269,2162.9100000000003,0.0174167891938519
270,2172.89,0.017296837539714234
271,2182.92,0.017138355777088908
272,2187.7616199999998,0.017195311158079173
273,2193.0,0.01725695433398858
274,2203.12,0.017059601840860476
275,2213.29,0.016864479434228773
276,2223.5,0.016633047096794192
277,2233.77,0.016709824863155292
278,2244.08,0.016594742698713517
279,2254.44,0.016367120620768144
280,2264.8399999999997,0.016404728612019897
281,2275.3,0.016367066707067328
282,2285.8,0.01636718487131188
283,2296.35,0.015883553122052838
284,2306.9500000000003,0.0160232714592902
285,2317.6,0.01579596988302396
286,2322.94,0.014303729120839763
287,2333.66,0.015425617665668488
288,2344.4300000000003,0.015241916296993618
289,2355.25,0.01537565501481515
290,2366.13,0.015087723836432363
291,2377.05,0.0150806627272467
292,2382.5299999999997,0.01480169220725243
293,2393.52,0.01489731121916173
294,2404.57,0.014719670334866715
295,2415.67,0.0146448395370681
296,2426.82,0.014705308825765888
297,2432.42,0.014466588513362985
298,2443.64,0.014492877923155737
299,2454.92,0.014452457436744172
300,2466.25,0.014279707036829011
301,2477.6400000000003,0.014141726740709534
302,2483.35,0.014138256618598714
303,2494.81,0.0134953564435742
304,2506.33,0.014026786372345368
305,2511.88643,0.013595778518341133
306,2512.11,0.01357843583488319
307,2517.9,0.013827101958317793
308,2523.7,0.01363397807505712
309,2535.35,0.01353314027505939
310,2547.05,0.013371422441585273
311,2552.92,0.01352276851145766
312,2564.71,0.013391670617726052
313,2576.54,0.013446492697213335
314,2582.4900000000002,0.013381078713523505
315,2594.41,0.013282010732753296
316,2606.3799999999997,0.0131231427185067
317,2612.39,0.01302923869464521
318,2624.45,0.012992340620141122
319,2636.56,0.012955442512160647
320,2642.64,0.013101908441432218
321,2654.84,0.01303465027319425
322,2667.0899999999997,0.012789872071479899
323,2673.2400000000002,0.012815807953884529
324,2685.5800000000004,0.012779369691912684
325,2697.9700000000003,0.012539261396464453
326,2704.19,0.012564707232002145
327,2716.6800000000003,0.012413838869601143
328,2722.9399999999996,0.012268334678357728
329,2735.5099999999998,0.012346386262394511
330,2748.1299999999997,0.01200320781295491
331,2754.47,0.011999833568149277
332,2767.1800000000003,0.011965535058452182
333,2773.56,0.012072700786865441
334,2786.36,0.011927622216910853
335,2792.79,0.011440177911847727
336,2805.68,0.011592649281635645
337,2812.15,0.011804624949791412
338,2825.13,0.011689566259321837
339,2838.17,0.0114961275286806
340,2844.7099999999996,0.011492833149969428
341,2857.8399999999997,0.011380624359070697
342,2864.43,0.011456099946883139
343,2877.65,0.011370581095726915
344,2884.0315,0.011316954897796518
345,2884.28,0.011314866819730927
346,2897.6000000000004,0.011230226637219818
347,2910.97,0.011223636454023606
348,2931.15,0.011034216177516534
349,2951.47,0.010847645899091176
350,2971.92,0.010788195618884553
351,2992.5299999999997,0.010654675336485606
352,3013.27,0.010522735052305394
353,3027.18,0.010419814861710083
354,3048.16,0.010290724574241381
355,3069.29,0.010163294284717376
356,3090.56,0.010014183993275087
357,3111.9900000000002,0.00991288969964047
358,3133.5600000000004,0.009744717404087567
359,3148.0200000000004,0.009649239205956136
360,3169.8399999999997,0.009529123906977726
361,3191.82,0.00930305660580699
362,3206.55,0.00929684840397601
363,3228.78,0.009138910099379767
364,3251.1600000000003,0.009087694792728217
365,3273.69,0.00901575048402136
366,3288.8,0.008906441276983606
367,3311.31121,0.008796778793819739
368,3311.6,0.00879537189289141
369,3319.23,0.0089557648943645
370,3326.8900000000003,0.008973061887979685
371,3334.55,0.008970031881594872
372,3342.2400000000002,0.008368530867352154
373,3349.95,0.008984298847870833
374,3357.6699999999996,0.008478804825770212
375,3365.41,0.008574054798430987
376,3373.1699999999996,0.008433990765853161
377,3380.94,0.008277013730656032
378,3388.7400000000002,0.008644075687601
379,3396.5499999999997,0.008620979641926665
380,3404.38,0.00838324459101373
381,3412.23,0.008341518534862192
382,3420.09,0.00853287047609135
383,3427.98,0.008490428409462607
384,3435.88,0.00854618234021456
385,3443.8,0.008387297265727912
386,3451.74,0.008520423186002662
387,3459.69,0.00815266610365811
388,3467.67,0.008130950013455653
389,3475.66,0.008222196920633897
390,3483.6800000000003,0.007921759819954235
391,3491.71,0.00833031971665527
392,3499.76,0.008231940608117706
393,3507.8199999999997,0.008023028496960839
394,3515.91,0.008001595377946067
395,3524.02,0.008109710253692694
396,3532.14,0.008106858126820021
397,3540.28,0.008141168994708743
398,3548.44,0.008270292857358863
399,3556.62,0.00830531671477038
400,3564.82,0.008207174566943296
401,3573.04,0.008054197413877607
402,3581.28,0.007742131255573316
403,3589.53,0.007633030094649724
404,3597.8100000000004,0.007700689925868229
405,3606.1,0.00787698075446743
406,3614.4100000000003,0.00791033657782803
407,3622.74,0.00798037839595003
408,3631.1,0.008238571206214122
409,3639.4700000000003,0.007955806013858913
410,3647.86,0.007971055816265104
411,3656.27,0.00791312861343269
412,3664.7000000000003,0.007910035405361676
413,3673.14,0.00787053719467136
414,3681.61,0.007741659976123137
415,3681.7499999999995,0.007386705939452919
416,3684.5,0.008335522219145054
417,3687.24,0.00865142150145649
418,3689.9900000000002,0.008391492781148627
419,3692.73,0.007516755063460065
420,3695.4700000000003,0.007954625345771503
421,3698.22,0.008051554625463638
422,3700.9599999999996,0.008517059907775076
423,3703.71,0.008165891187467212
424,3706.45,0.0067799264697786495
425,3709.19,0.008028945752090086
426,3711.94,0.007706842031782222
427,3714.6800000000003,0.00968410731409366
428,3717.42,0.011161824596405098
429,3720.17,0.02188967387609723
430,3722.91,0.04151169315840867
431,3725.6600000000003,0.06566969243810081
432,3728.4,0.06627968172041225
433,3731.14,0.04623808100272368
434,3733.8900000000003,0.02423568028241582
435,3736.63,0.011771899564727255
436,3739.38,0.009685982844419391
437,3742.12,0.007889324126730827
438,3744.8599999999997,0.007795241409042265
439,3747.61,0.008194715688734401
440,3750.35,0.007370716971045839
441,3753.1,0.007949096250737975
442,3755.8399999999997,0.007497204533049411
443,3758.5800000000004,0.007571543815360849
444,3761.33,0.008266891095052986
445,3764.0699999999997,0.009046849377364422
446,3766.82,0.008014126657056558
447,3769.56,0.008066788939367997
448,3772.3,0.008330756221679433
449,3775.0499999999997,0.00791812850137157
450,3777.79,0.008332174783683007
451,3780.5299999999997,0.009505919065994444
452,3783.28,0.00973887034568658
453,3786.02,0.009041371627998018
454,3788.77,0.008667093907690155
455,3791.51,0.007322581190001591
456,3794.25,0.007937688472313027
457,3797.0,0.009388438752005164
458,3799.74,0.008865081034316602
459,3801.8939600000003,0.008435901981984082
460,3802.4900000000002,0.008317140346538373
461,3805.23,0.008386717778388769
462,3807.97,0.008682131210239166
463,3810.7200000000003,0.009221915640016022
464,3813.46,0.009133315071866417
465,3816.21,0.009385324501643274
466,3818.95,0.00925956193349367
467,3821.6899999999996,0.009278637365344067
468,3824.44,0.009202614795120924
469,3827.18,0.008337169226971319
470,3829.93,0.008085817656748177
471,3832.67,0.008744757088598572
472,3835.4100000000003,0.009256716520448967
473,3838.16,0.008491991950225824
474,3840.9,0.00824473338207622
475,3843.64,0.009044227813926616
476,3846.39,0.008506054243703473
477,3849.13,0.008894373675553869
478,3851.8799999999997,0.009491094105330725
479,3854.6200000000003,0.009175465537181121
480,3857.36,0.009367015969031518
481,3860.11,0.011506220398808375
482,3862.85,0.01469938983065877
483,3865.6000000000004,0.020427159260435628
484,3868.34,0.023399988692286024
485,3871.08,0.020864628124136416
486,3873.83,0.014890647553913276
487,3876.5699999999997,0.010947366985763672
488,3879.32,0.009431765415540529
489,3882.06,0.010208625847390924
490,3884.7999999999997,0.01148242527924132
491,3887.55,0.013836264709018177
492,3890.29,0.013169274140868574
493,3893.04,0.010520193570645429
494,3895.7799999999997,0.009293133002495827
495,3898.52,0.00894129543434622
496,3901.27,0.009106354864123077
497,3904.0099999999998,0.008922940295973474
498,3906.75,0.00921549772782387
499,3909.5,0.009817457157600728
500,3912.2400000000002,0.009216200589451124
501,3914.99,0.00940293801922798
502,3917.73,0.009426062451078375
503,3920.47,0.00951636888292877
504,3923.2200000000003,0.008832400312705628
505,3925.96,0.008761903744556024
506,3928.71,0.00900962717433288
507,3931.4500000000003,0.008451250606183278
508,3934.19,0.008483665038033671
509,3936.94,0.00836476546781053
510,3939.68,0.008936039899660925
511,3942.4300000000003,0.009174234329437782
512,3945.17,0.009049422761288178
513,3947.91,0.008816458193138574
514,3950.66,0.00850197662291543
515,3953.4,0.009555892054765827
516,3956.15,0.009141117484542683
517,3958.89,0.00867421791639308
518,3961.6299999999997,0.009981127348243475
519,3964.38,0.012718268778020334
520,3967.12,0.015101008209870728
521,3969.86,0.014717017641721123
522,3972.6099999999997,0.01281452707149798
523,3975.3500000000004,0.009343874503348377
524,3978.1,0.008870973933125234
525,3980.84,0.00841574636497563
526,3983.58,0.009019419796826024
527,3986.33,0.008905283226602882
528,3989.07,0.009231666658453277
529,3991.8199999999997,0.009588971088230135
530,3994.56,0.00950703952008053
531,3997.2999999999997,0.009520161951930927
532,4000.05,0.009464626381707784
533,4002.79,0.00828877481355818
534,4005.5400000000004,0.009854346243335036
535,4008.28,0.009961327675185433
536,4011.02,0.009136378107035829
537,4013.77,0.009701890536812686
538,4016.5099999999998,0.009571361968663079
539,4019.26,0.009608019398439938
540,4022.0,0.010125216830290332
541,4024.74,0.01026197626214073
542,4027.4900000000002,0.009853871691917586
543,4030.23,0.009225459123767982
544,4032.9700000000003,0.009080158555618377
545,4035.72,0.009516554985395234
546,4038.46,0.009410325417245631
547,4041.21,0.009748334847022488
548,4043.95,0.008685879278872884
549,4046.69,0.00918783171072328
550,4049.44,0.008734704140500137
551,4052.1800000000003,0.009209021572350531
552,4054.93,0.009750235002127388
553,4057.67,0.009257847433977784
554,4060.41,0.00874901886582818
555,4063.1600000000003,0.009537986295605037
556,4065.9,0.009823633727455434
557,4068.6499999999996,0.009562036157232291
558,4071.39,0.010113776589082685
