,lambda (Angstroms),Total Flux (erg/s/cm^2/Angstrom)
0,100.00999999999999,0.00011580562957882089
1,102.10000000000001,0.00014225011864222952
2,104.0,0.00016629056325106667
3,104.712855,0.00017531022175042775
4,105.93,0.00016246045597768992
5,107.89999999999999,0.00014166257359158338
6,109.91000000000001,0.00012044239922823181
7,114.03,7.694632043700632e-05
8,118.04,3.461154483543346e-05
9,120.22644299999999,1.1528609323247024e-05
10,121.07,1.1116529509170872e-05
11,125.03999999999999,9.177173795878282e-06
12,127.07,8.185513493559461e-06
13,127.95,7.755631307337621e-06
14,130.93,6.299893947564593e-06
15,132.14,5.708806200108582e-06
16,133.98,4.8099621523182e-06
17,137.1,3.285835892914424e-06
18,138.038426,2.827413143488952e-06
19,139.97,2.7940904896307954e-06
20,142.9,2.7435480968399535e-06
21,146.91,2.674377869465798e-06
22,151.02,2.6034827316209652e-06
23,154.9,2.5365604870386903e-06
24,158.489319,2.474656193441949e-06
25,158.86999999999998,2.464567197391017e-06
26,161.82,2.3863895185567154e-06
27,165.97,2.2764158410121893e-06
28,169.84,2.173872952442716e-06
29,173.0,2.0901474316671256e-06
30,177.03,1.983383848997622e-06
31,179.89999999999998,1.9073624538533364e-06
32,181.970086,1.8525312108334253e-06
33,181.99,1.85270150466002e-06
34,185.79999999999998,1.8853024862006101e-06
35,191.0,1.9298121859911795e-06
36,194.11,1.956451159308039e-06
37,198.17000000000002,1.9912501654856763e-06
38,201.85000000000002,2.022835615759002e-06
39,205.13,2.050979041533053e-06
40,208.929613,2.0836242166051013e-06
41,209.91,2.134471798555011e-06
42,215.79000000000002,2.4395557352995345e-06
43,219.81,2.6481604370228295e-06
44,222.86,2.8064561456114004e-06
45,227.01,3.0218852613630604e-06
46,230.16,3.192049655511912e-06
47,233.9,3.390480373866421e-06
48,239.88329199999998,3.7052314930218216e-06
49,239.9,3.704531892654157e-06
50,246.06,3.44410583100422e-06
51,251.79,3.2032690177649115e-06
52,257.06,2.9776780530579025e-06
53,260.04,2.855166154305172e-06
54,264.26,2.6784781738566775e-06
55,269.18,2.471632043902506e-06
56,274.18,2.2615774202905432e-06
57,275.42287,2.209300024454804e-06
58,279.28000000000003,2.3873911270063e-06
59,283.82,2.59813362607791e-06
60,289.76,2.8720898082112516e-06
61,295.83000000000004,3.1534503217717563e-06
62,301.33,3.4053081752285514e-06
63,308.35,3.7321105522952295e-06
64,316.227766,4.100565323875008e-06
65,317.72,4.05257489767243e-06
66,328.12,3.7153507244369525e-06
67,338.09,3.3931174617102506e-06
68,348.37,3.061600920012104e-06
69,357.29999999999995,2.77737881060895e-06
70,363.078055,2.596657965840102e-06
71,365.63,2.6684684379007612e-06
72,375.01,2.9277692796795807e-06
73,384.63,3.1973105455550864e-06
74,395.4,3.510594476893879e-06
75,404.60999999999996,3.7845237516042117e-06
76,414.04,4.0679447484031756e-06
77,416.86938299999997,4.154027722500725e-06
78,421.73,4.251270705772632e-06
79,429.57,4.417241400536031e-06
80,440.59000000000003,4.670747490624384e-06
81,450.86,4.916703211060625e-06
82,460.3,5.148167121081862e-06
83,469.94,5.431041883010329e-06
84,478.630092,5.707368981412675e-06
85,479.78,5.702403872287712e-06
86,489.82,5.6753210049964505e-06
87,500.08,5.718466653162952e-06
88,505.87,9.729309223619485e-06
89,511.73,2.405616356263076e-05
90,520.04,2.4585439801058015e-05
91,529.7099999999999,2.5658330971405973e-05
92,539.56,2.5007814118037558e-05
93,549.5408739999999,3.088656395288207e-05
94,549.59,3.091617817744742e-05
95,559.8100000000001,3.672469394332298e-05
96,570.21,4.090611934108285e-05
97,579.48,4.058328038312457e-05
98,590.25,4.7358778357535505e-05
99,599.84,4.8955045411816e-05
100,609.59,5.618173547221587e-05
101,619.49,6.456465522585266e-05
102,629.56,6.936397129849131e-05
103,630.957344,6.989278187210502e-05
104,639.79,7.337370979009224e-05
105,650.1899999999999,8.098001566228768e-05
106,657.72,8.547695302936767e-05
107,665.3299999999999,9.184731951854144e-05
108,674.59,9.76188179009001e-05
109,685.5500000000001,9.92530876277522e-05
110,695.08,0.00011742270304717747
111,704.75,0.00011646332693026687
112,716.21,0.00013754844117020533
113,724.43596,0.00014390896710299268
114,726.17,0.0001452430532457244
115,734.5799999999999,0.0001536743659880159
116,744.8000000000001,0.00016706123593168053
117,755.16,0.00017758752190197072
118,765.66,0.0001887883238988864
119,774.53,0.00020297248930009043
120,785.3000000000001,0.00021973517220549827
121,794.4,0.00023151091393615856
122,805.45,0.00024338652889481746
123,814.78,0.000255291246954934
124,824.2099999999999,0.0002757846764626402
125,831.763771,0.000265435261426595
126,835.6800000000001,0.00026000594488941275
127,845.35,0.00030052072636580374
128,855.1400000000001,0.00031582346986672074
129,865.04,0.00033646098689011993
130,875.0600000000001,0.00035688226593804523
131,885.19,0.00037943071850845276
132,895.4399999999999,0.0003997299331033863
133,905.81,0.0004135477097228459
134,914.19,0.0005826660744355819
135,924.7800000000001,0.003283745998100006
136,935.4899999999999,0.006731840583788957
137,944.14,0.012913621138056875
138,954.992586,0.016453357748641262
139,955.0799999999999,0.016481869979889357
140,963.9100000000001,0.02023042441857652
141,975.0699999999999,0.0067784517510508955
142,984.1,0.02113471883727344
143,995.49,0.020558878764413507
144,1004.7,0.023767952533417895
145,1014.0,0.022438626143813208
146,1025.74,0.010790755454140199
147,1035.23,0.019861118729694125
148,1044.81,0.027541391846638973
149,1054.48,0.027162524804974744
150,1064.24,0.024546737604701437
151,1074.08,0.026853130263442288
152,1084.02,0.024377842745950826
153,1094.05,0.027731915069850285
154,1096.4782,0.027491240659352073
155,1104.17,0.026728828364514512
156,1114.3899999999999,0.026790581993526907
157,1124.7,0.02483027512612161
158,1135.11,0.027541067707141088
159,1145.61,0.026180599791742868
160,1156.21,0.027038451324769425
161,1164.23,0.02741443708843669
162,1175.0,0.021927397683785373
163,1185.87,0.026914137727558834
164,1194.09,0.024546232388075656
165,1205.1399999999999,0.02079590143901372
166,1216.29,0.011614869938376562
167,1224.72,0.02243785344058542
168,1236.05,0.026606920947112863
169,1244.6200000000001,0.02734975367711641
170,1256.14,0.027099740135650936
171,1258.92541,0.02692209492305286
172,1264.85,0.026544277096424932
173,1273.6100000000001,0.027988360533251946
174,1285.3999999999999,0.028052415158844476
175,1294.31,0.025701178654521272
176,1306.28,0.02612059335073353
177,1315.3400000000001,0.027923946905260108
178,1324.46,0.02716121048332659
179,1333.64,0.026180124084932987
180,1345.98,0.027287568926308032
181,1355.3100000000002,0.027287552586764206
182,1364.7,0.02636122627076029
183,1374.16,0.026361189982219604
184,1383.6899999999998,0.02648265372114215
185,1396.49,0.023603298742989845
186,1406.1699999999998,0.024207632540762167
187,1415.9199999999998,0.025760796365997717
188,1425.73,0.02546534021477318
189,1435.61,0.025820584091011872
190,1442.24,0.02612057669217205
191,1445.43977,0.025946358638624815
192,1445.57,0.025939267990425882
193,1455.59,0.025700971289812444
194,1465.68,0.02500086461224861
195,1475.84,0.025000777957734383
196,1486.07,0.024943521326269768
197,1496.37,0.02482941471785476
198,1503.27,0.024043436989887416
199,1513.69,0.022854840420986018
200,1517.1799999999998,0.023387101570173555
201,1524.19,0.023440773878427024
202,1534.75,0.021775747355624837
203,1545.39,0.02182619085916506
204,1556.1,0.021329394385754884
205,1563.28,0.022129696749985973
206,1574.12,0.022854740319382214
207,1585.03,0.02296021391182806
208,1596.02,0.02306609753061632
209,1603.39,0.022592809957410625
210,1614.5,0.02243764361571249
211,1625.6899999999998,0.022334637300356765
212,1633.1899999999998,0.022802359769957484
213,1644.5100000000002,0.02254113349740817
214,1655.9099999999999,0.022437877251201263
215,1659.58691,0.02266357825249664
216,1663.56,0.02290746801590841
217,1671.24,0.022180726483780853
218,1675.09,0.023066005741763783
219,1686.6999999999998,0.022960143659992827
220,1694.4899999999998,0.022437542392379068
221,1706.23,0.022028430623215325
222,1714.1100000000001,0.021477249572021948
223,1725.99,0.021329668139512127
224,1733.95,0.02182644728069242
225,1745.97,0.02147755618483653
226,1754.03,0.02177611556648391
227,1766.19,0.021134204807281943
228,1774.3400000000001,0.021085674405349704
229,1786.6399999999999,0.021231793982801662
230,1794.89,0.02147746382133651
231,1803.17,0.021527073732011487
232,1815.67,0.02065335379039762
233,1824.0500000000002,0.02089234394153969
234,1836.7,0.02060561436062646
235,1845.1799999999998,0.019587974752235615
236,1853.69,0.01945318521598489
237,1866.54,0.01972386611600584
238,1875.1599999999999,0.02022988684426892
239,1883.81,0.019054537644672128
240,1896.87,0.018365409049673962
241,1905.46072,0.019257432800861604
242,1905.63,0.019275009182819942
243,1914.42,0.01862080193691813
244,1923.26,0.01823890453603394
245,1936.59,0.018792983217732328
246,1945.53,0.019142225506883385
247,1954.5100000000002,0.018113087672048542
248,1968.0600000000002,0.01892300567182447
249,1977.14,0.019363877527024873
250,1986.27,0.018577519227242902
251,1995.44,0.018238490803475026
252,2004.65,0.01857744225572125
253,2013.9,0.01853495358398157
254,2023.19,0.018879384788255994
255,2037.2199999999998,0.018112951300201106
256,2046.6200000000001,0.0181965221635143
257,2056.07,0.017457742871845112
258,2065.56,0.017741423456190026
259,2075.09,0.018492193916549042
260,2079.88,0.017741359069237357
261,2084.67,0.017988304221925676
262,2094.29,0.01745771440331641
263,2103.96,0.01778212442972477
264,2113.67,0.017782074332147225
265,2123.43,0.017905404079587305
266,2133.23,0.017619003703041487
267,2143.08,0.017337363171513288
268,2152.97,0.017578382515999188
269,2162.9100000000003,0.01741728170550271
270,2172.89,0.017297320771020336
271,2182.92,0.017138829681555584
272,2187.7616199999998,0.017195780560351204
273,2193.0,0.017257427619983685
274,2203.12,0.017060082629800678
275,2213.29,0.016864967763183962
276,2223.5,0.01663354299542027
277,2233.77,0.016710328375936133
278,2244.08,0.016595253855305026
279,2254.44,0.01636763945824021
280,2264.8399999999997,0.01640525516002842
281,2275.3,0.01636760101009618
282,2285.8,0.016367726959016973
283,2296.35,0.015884103031504056
284,2306.9500000000003,0.016023829227557424
285,2317.6,0.015796535547177085
286,2322.94,0.014304298744056804
287,2333.66,0.01542619523666927
288,2344.4300000000003,0.015242501852848025
289,2355.25,0.01537624859259307
290,2366.13,0.015088325480617662
291,2377.05,0.015081272467495287
292,2382.5299999999997,0.014802306010360615
293,2393.52,0.014897933170231043
294,2404.57,0.014720300478381021
295,2415.67,0.014645477910097284
296,2426.82,0.01470595546537984
297,2432.42,0.014467239304804263
298,2443.64,0.014493537033079625
299,2454.92,0.014453124909634532
300,2466.25,0.01428038290975573
301,2477.6400000000003,0.014142411058156475
302,2483.35,0.014138945169426735
303,2494.81,0.013496053490820285
304,2506.33,0.014027491960493382
305,2511.88643,0.013596488226013776
306,2512.11,0.013579145478404556
307,2517.9,0.01382780994045399
308,2523.7,0.013634684392938743
309,2535.35,0.013533843250084844
310,2547.05,0.013372122059407533
311,2552.92,0.013523466444939515
312,2564.71,0.013392365168180076
313,2576.54,0.013447183853161907
314,2582.4900000000002,0.013381768162176438
315,2594.41,0.013282696761076136
316,2606.3799999999997,0.013123825312152428
317,2612.39,0.013029919563778872
318,2624.45,0.012993018028773031
319,2636.56,0.01295611644594378
320,2642.64,0.013102580630617453
321,2654.84,0.013035318961706073
322,2667.0899999999997,0.012790537244971284
323,2673.2400000000002,0.012816471362692183
324,2685.5800000000004,0.012780029559875263
325,2697.9700000000003,0.012539917709234932
326,2704.19,0.012565361760003065
327,2716.6800000000003,0.01241448981371592
328,2722.9399999999996,0.012268983826225325
329,2735.5099999999998,0.01234703180342073
330,2748.1299999999997,0.012003849732792728
331,2754.47,0.012000473668784681
332,2767.1800000000003,0.011966171512074545
333,2773.56,0.012073335409807774
334,2786.36,0.011928253167015504
335,2792.79,0.011440807016925325
336,2805.68,0.011593274688050922
337,2812.15,0.011805248499702017
338,2825.13,0.011690186084745481
339,2838.17,0.011496743612400858
340,2844.7099999999996,0.011493447357099182
341,2857.8399999999997,0.011381234798672426
342,2864.43,0.011456708495547342
343,2877.65,0.01137118585103845
344,2884.0315,0.011317557821997611
345,2884.28,0.011315469742472753
346,2897.6000000000004,0.011230829481742598
347,2910.97,0.011224239220033723
348,2931.15,0.01103481882502362
349,2951.47,0.010848248427273109
350,2971.92,0.010788798026977934
351,2992.5299999999997,0.010655277623550867
352,3013.27,0.010523337217579136
353,3027.18,0.010420416945300118
354,3048.16,0.010291326534630546
355,3069.29,0.010163896121024824
356,3090.56,0.010014785704678694
357,3111.9900000000002,0.00991349128520067
358,3133.5600000000004,0.009745318862982239
359,3148.0200000000004,0.009649840579937338
360,3169.8399999999997,0.009529725152825323
361,3191.82,0.009303657722581415
362,3206.55,0.009297449434251445
363,3228.78,0.009139510999113951
364,3251.1600000000003,0.009088295561040308
365,3273.69,0.009016351120030514
366,3288.8,0.008907041824262295
367,3311.31121,0.00879737920890583
368,3311.6,0.008795972275559156
369,3319.23,0.008956364420520713
370,3326.8900000000003,0.008973660554256694
371,3334.55,0.008970629687992674
372,3342.2400000000002,0.008369127810503077
373,3349.95,0.008984894925529762
374,3357.6699999999996,0.008479400036814588
375,3365.41,0.008574649140615696
376,3373.1699999999996,0.008434584236933086
377,3380.94,0.008277606329508618
378,3388.7400000000002,0.008644667410858571
379,3396.5499999999997,0.008621570488466665
380,3404.38,0.008383834558591043
381,3412.23,0.008342107621231701
382,3420.09,0.008533458680130501
383,3427.98,0.008491015727803723
384,3435.88,0.008546768771735085
385,3443.8,0.008387882808182732
386,3451.74,0.00852100783714666
387,3459.69,0.008153249862368726
388,3467.67,0.008131532876365219
389,3475.66,0.00822277888661985
390,3483.6800000000003,0.007922340885648907
391,3491.71,0.008330899880936101
392,3499.76,0.00823251986873958
393,3507.8199999999997,0.008023606852801199
394,3515.91,0.00800217282563724
395,3524.02,0.008110286790989563
396,3532.14,0.00810743375260003
397,3540.28,0.008141743706726776
398,3548.44,0.008270866653369804
399,3556.62,0.008305889592529115
400,3564.82,0.008207746524204708
401,3573.04,0.00805476844839658
402,3581.28,0.0077427013651047375
403,3589.53,0.0076335992780710345
404,3597.8100000000004,0.007701258179811755
405,3606.1,0.007877548077810615
406,3614.4100000000003,0.007910902968325759
407,3622.74,0.007980943851357183
408,3631.1,0.008239135723163031
409,3639.4700000000003,0.00795636959122702
410,3647.86,0.007971618451807291
411,3656.27,0.007913690304903843
412,3664.7000000000003,0.00791059615051668
413,3673.14,0.007871096992387656
414,3681.61,0.007742218823033053
415,3681.7499999999995,0.007387264770647026
416,3684.5,0.008336080741635792
417,3687.24,0.008651979716366416
418,3689.9900000000002,0.008392050687355183
419,3692.73,0.007517312662085808
420,3695.4700000000003,0.007955182636816433
421,3698.22,0.008052111607805197
422,3700.9599999999996,0.008517616582535822
423,3703.71,0.008166447553524588
424,3706.45,0.006780482528255213
425,3709.19,0.008029501502985837
426,3711.94,0.007707397473974603
427,3714.6800000000003,0.00968466244870523
428,3717.42,0.011162379423435852
429,3720.17,0.02189022839442462
430,3722.91,0.04151224736915524
431,3725.6600000000003,0.06567024634014401
432,3728.4,0.06628023531487465
433,3731.14,0.04623863428960526
434,3733.8900000000003,0.024236233260594025
435,3736.63,0.01177245223532465
436,3739.38,0.009686535206313416
437,3742.12,0.00788987618104404
438,3744.8599999999997,0.0077957931557746645
439,3747.61,0.00819526712676343
440,3750.35,0.007371268101494056
441,3753.1,0.007949647072482822
442,3755.8399999999997,0.007497755047213446
443,3758.5800000000004,0.00757209402194407
444,3761.33,0.008267440992932838
445,3764.0699999999997,0.00904739896766346
446,3766.82,0.008014675938652226
447,3769.56,0.008067337913382853
448,3772.3,0.008331304888113476
449,3775.0499999999997,0.007918676859102242
450,3777.79,0.008332722833832868
451,3780.5299999999997,0.00950646680856349
452,3783.28,0.009739417779552256
453,3786.02,0.009041918754282882
454,3788.77,0.008667640725271649
455,3791.51,0.007323127700002273
456,3794.25,0.007938234674732897
457,3797.0,0.009388984645721663
458,3799.74,0.008865626620452288
459,3801.8939600000003,0.008436447326325328
460,3802.4900000000002,0.008317685637911963
461,3805.23,0.008387262826269669
462,3807.97,0.008682676014627378
463,3810.7200000000003,0.009222460200022887
464,3813.46,0.009133859388380596
465,3816.21,0.009385868573776107
466,3818.95,0.009260105762133816
467,3821.6899999999996,0.009279180950491524
468,3824.44,0.009203158135887034
469,3827.18,0.008337712324244741
470,3829.93,0.008086360509640251
471,3832.67,0.00874529969799796
472,3835.4100000000003,0.009257258886355667
473,3838.16,0.008492534071751177
474,3840.9,0.008245275260108886
475,3843.64,0.009044769448466595
476,3846.39,0.008506595633862104
477,3849.13,0.008894914822219813
478,3851.8799999999997,0.009491635007615323
479,3854.6200000000003,0.00917600619597303
480,3857.36,0.009367556384330738
481,3860.11,0.011506760569726248
482,3862.85,0.014699929758083957
483,3865.6000000000004,0.020427698943479466
484,3868.34,0.023400528131837173
485,3871.08,0.02086516732019488
486,3873.83,0.014891186505590395
487,3876.5699999999997,0.010947905693948103
488,3879.32,0.009432303879343611
489,3882.06,0.01020916406770132
490,3884.7999999999997,0.011482963256059029
491,3887.55,0.013836802441454538
492,3890.29,0.013169811629812248
493,3893.04,0.010520730815207756
494,3895.7799999999997,0.009293670003565466
495,3898.52,0.008941832191923174
496,3901.27,0.009106891377318684
497,3904.0099999999998,0.00892347656567639
498,3906.75,0.0092160337540341
499,3909.5,0.00981799293942961
500,3912.2400000000002,0.009216736127787319
501,3914.99,0.009403473313182828
502,3917.73,0.009426597501540537
503,3920.47,0.009516903689898245
504,3923.2200000000003,0.008832934875293755
505,3925.96,0.008762438063651463
506,3928.71,0.009010161249046971
507,3931.4500000000003,0.00845178443740468
508,3934.19,0.008484198625762388
509,3936.94,0.0083652988111579
510,3939.68,0.008936572999515608
511,3942.4300000000003,0.009174767184911118
512,3945.17,0.009049955373268826
513,3947.91,0.008816990561626535
514,3950.66,0.008502508747022046
515,3953.4,0.009556423935379752
516,3956.15,0.009141649120775261
517,3958.89,0.00867474930913297
518,3961.6299999999997,0.009981658497490678
519,3964.38,0.01271879968288619
520,3967.12,0.015101538871243898
521,3969.86,0.014717548059601605
522,3972.6099999999997,0.012815057244997116
523,3975.3500000000004,0.009344404433354825
524,3978.1,0.008871503618750333
525,3980.84,0.008416275807108041
526,3983.58,0.00901994899546575
527,3986.33,0.00890581218086126
528,3989.07,0.009232195369218968
529,3991.8199999999997,0.009589499554614479
530,3994.56,0.009507567742972187
531,3997.2999999999997,0.009520689931329896
532,4000.05,0.009465154116725405
533,4002.79,0.008289302305083113
534,4005.5400000000004,0.009854873490478623
535,4008.28,0.009961854678836332
536,4011.02,0.00913690486719404
537,4013.77,0.00970241705258955
538,4016.5099999999998,0.009571888240947258
539,4019.26,0.009608545426342768
540,4022.0,0.010125742614700476
541,4024.74,0.010262501803058186
542,4027.4900000000002,0.009854396988453694
543,4030.23,0.009225984176811402
544,4032.9700000000003,0.009080683365169111
545,4035.72,0.009517079550564621
546,4038.46,0.00941084973892233
547,4041.21,0.00974885892431784
548,4043.95,0.008686403112675548
549,4046.69,0.009188355301033256
550,4049.44,0.008735227486428767
551,4052.1800000000003,0.009209544674786473
552,4054.93,0.009750757860181983
553,4057.67,0.009258370048539692
554,4060.41,0.0087495412368974
555,4063.1600000000003,0.00953850842229291
556,4065.9,0.00982415561065062
557,4068.6499999999996,0.00956255779604613
558,4071.39,0.010114297984403837
