,lambda (Angstroms),Total Flux (erg/s/cm^2/Angstrom)
0,102.00000000000001,0.846915411041698
1,103.9,0.8445018601323783
2,104.712855,0.8434693133723739
3,106.07000000000001,0.8344132162026113
4,108.05,0.8212009391133619
5,110.06,0.8077888954828963
6,113.91999999999999,0.7820317172427838
7,117.92999999999999,0.7552735390095915
8,120.22644299999999,0.7399545808056865
9,120.95,0.7359082002228878
10,124.91,0.713755078684612
11,126.94,0.7023986236193593
12,128.12,0.6957974581830549
13,131.1,0.6791263758966252
14,132.01,0.6740370865063395
15,133.85,0.6637435657553223
16,136.97,0.6462912850157717
17,138.038426,0.640314228205023
18,140.16,0.6318309174735229
19,143.09,0.6201353772671491
20,147.10000000000002,0.6041382069446375
21,150.87,0.5890660165101567
22,155.1,0.5721552909136169
23,158.489319,0.5586062783062415
24,159.07999999999998,0.5568213011515665
25,162.04,0.5478761815015541
26,165.80999999999997,0.5364847218762007
27,170.06,0.5236407499413855
28,172.82999999999998,0.5152703740965768
29,176.85,0.503121907088587
30,180.14,0.49317921535269493
31,181.81,0.4881331966274852
32,181.970086,0.48764940258551
33,186.04,0.47826708440247134
34,190.81,0.46727167514258433
35,193.91,0.4601260822089052
36,197.98,0.45074370489533283
37,202.12,0.44120041024712897
38,204.93,0.434723109056923
39,208.929613,0.42549842710478913
40,210.19,0.423312962445231
41,216.07999999999998,0.41311289134917367
42,220.1,0.4061479862471106
43,223.16,0.4008438794933016
44,226.78,0.39457286821134435
45,229.94,0.38918371205250885
46,234.21,0.3819539348378797
47,239.88329199999998,0.37220164783724813
48,240.22000000000003,0.37175678556984426
49,245.82,0.3642412933228217
50,252.11999999999998,0.35583943205742113
51,256.81,0.3494836440942897
52,259.78000000000003,0.34557681761060083
53,264.0,0.33995399992266595
54,268.91,0.33338480830518713
55,273.90999999999997,0.32669430938820265
56,275.42287,0.32467004863334015
57,279.0,0.3209953090952756
58,284.19,0.3156651205984573
59,290.14000000000004,0.3095335072903513
60,296.21999999999997,0.30329834070005157
61,301.03000000000003,0.2983494332588769
62,308.04,0.29115757601134373
63,316.227766,0.2827576797100721
64,318.14000000000004,0.28129223661912756
65,327.79999999999995,0.27387960845341514
66,337.76,0.26623578481796
67,348.03000000000003,0.25835415379043747
68,356.95,0.25151482257675684
69,363.078055,0.2468209631523229
70,366.10999999999996,0.24508176479763025
71,374.64,0.2401810747552444
72,385.13,0.2341433131566949
73,395.01,0.22849299991440042
74,405.15000000000003,0.22269003949730865
75,413.63,0.2178283224808454
76,416.86938299999997,0.21596915707520906
77,422.29,0.21359299364276058
78,430.14,0.21015512413168244
79,441.17999999999995,0.20534968996731262
80,451.45,0.2008700824433925
81,459.84,0.19719283832862236
82,469.47,0.19299850374611494
83,478.630092,0.18902789446958346
84,480.41,0.188436399531194
85,490.47,0.18503913498753347
86,499.59000000000003,0.18205514726107383
87,506.53999999999996,0.1797043965626205
88,512.4,0.17799771960219798
89,519.53,0.17561907083874873
90,530.41,0.17197561995455124
91,540.27,0.1686062401719973
92,549.5408739999999,0.16554758558493368
93,550.3199999999999,0.16535278572600348
94,560.55,0.1629848975586316
95,569.65,0.160828446093032
96,580.25,0.15815800134189403
97,589.67,0.15587952846871292
98,600.64,0.1529837799338088
99,610.4,0.15051999350257234
100,620.3100000000001,0.148409719942782
101,630.39,0.14585538710396403
102,630.957344,0.1457235633076
103,640.64,0.14398954069395106
104,649.55,0.14225296524501482
105,658.58,0.1403814739415474
106,664.68,0.13943540316954844
107,675.48,0.1374519382617469
108,684.8799999999999,0.13535584099014186
109,694.4,0.1339101318640057
110,705.69,0.1312776631335354
111,715.5,0.13001547727561566
112,724.43596,0.12835117991310502
113,725.46,0.12821422301913202
114,735.55,0.12683574071196987
115,745.7800000000001,0.125377970502627
116,754.42,0.1242094209680501
117,764.9100000000001,0.12243990665465748
118,775.55,0.12135515408892851
119,784.53,0.11990664864905572
120,795.45,0.11862830127896541
121,804.66,0.11746800078551015
122,815.85,0.11594868496121431
123,825.3000000000001,0.1147596730640208
124,831.763771,0.11324489255670159
125,834.86,0.11263754043204069
126,844.52,0.1125660682314352
127,854.3000000000001,0.11153775271156749
128,864.1899999999999,0.11074036731570949
129,874.1999999999999,0.10980401360058929
130,884.3199999999999,0.10884709600947876
131,894.56,0.10786726709910606
132,904.9200000000001,0.10672619386947113
133,915.4,0.10596173732057407
134,926.0,0.1192859724524148
135,934.5699999999999,0.13611657256844079
136,945.39,0.16021301294830087
137,954.14,0.17861858508543355
138,954.992586,0.1793971118533334
139,965.1899999999999,0.188733635823014
140,974.12,0.11835975569964906
141,985.4,0.17535261975434602
142,994.52,0.17434388516027116
143,1006.03,0.2003796906451614
144,1015.34,0.19506678158037666
145,1024.73,0.14129293431739834
146,1034.22,0.1689888568066779
147,1046.19,0.2203603951519547
148,1055.87,0.2161936631705244
149,1065.64,0.19226057696612625
150,1075.5,0.20659493653876027
151,1085.45,0.18439494188842645
152,1095.5,0.2078935869903506
153,1096.4782,0.20727999553242651
154,1105.6299999999999,0.20172284575011923
155,1115.8600000000001,0.19715175843347604
156,1126.19,0.18414711552233984
157,1134.0,0.2052848735924295
158,1144.49,0.1942791417301043
159,1155.08,0.19724425427328604
160,1165.77,0.1982877112219747
161,1173.8500000000001,0.16187287918693297
162,1184.71,0.19091488162498335
163,1195.67,0.16136045846854064
164,1203.96,0.14146278968506346
165,1215.1000000000001,0.11759165645853317
166,1226.3400000000001,0.1532700476375098
167,1234.84,0.18364651210559715
168,1246.27,0.19128445765503688
169,1254.9099999999999,0.1862285542908339
170,1258.92541,0.180103929393309
171,1263.61,0.17308041746833736
172,1275.3,0.19410955986554096
173,1284.14,0.1975257863660782
174,1296.02,0.1745637631563929
175,1305.0,0.17269105184132777
176,1314.05,0.1919145216184615
177,1326.2099999999998,0.1855074227775715
178,1335.3999999999999,0.17385365473910286
179,1344.66,0.187539367792833
180,1353.98,0.18313940749701932
181,1366.51,0.17158302300060885
182,1375.98,0.1736307793309355
183,1385.52,0.17329281675346095
184,1395.12,0.15475069082644255
185,1404.79,0.15527672599162295
186,1414.53,0.16308755224900223
187,1424.33,0.1624558051568376
188,1434.21,0.16206879359861448
189,1440.83,0.16547443403227474
190,1445.43977,0.16571865046815604
191,1447.4799999999998,0.16586651227324153
192,1454.1599999999999,0.16220790660638584
193,1464.24,0.15485709446238807
194,1474.3899999999999,0.15392442806739032
195,1484.6100000000001,0.15418130742139255
196,1494.9,0.1541939325243948
197,1505.26,0.1488070833763971
198,1512.21,0.13974863131282722
199,1515.69,0.1438569299773994
200,1526.2,0.141228621720116
201,1533.2399999999998,0.1298772241909747
202,1543.87,0.13110977864626278
203,1554.5700000000002,0.12723994885055084
204,1565.3500000000001,0.1301409641965532
205,1576.2,0.1341891352915556
206,1583.4799999999998,0.1365367931875572
207,1594.45,0.13709410699513105
208,1605.5,0.1338888859444192
209,1616.63,0.13277485003542167
210,1624.1,0.12904391639299473
211,1635.3500000000001,0.13233860319656862
212,1646.69,0.13203206453457114
213,1654.29,0.12709937299742996
214,1659.58691,0.12916971827252044
215,1665.76,0.13166586869230085
216,1673.45,0.12336980358667232
217,1677.3,0.13212661823469965
218,1685.05,0.13335428953917022
219,1696.73,0.12825243070513365
220,1704.56,0.12505372722306973
221,1716.3700000000001,0.12071546561091459
222,1724.29,0.11954932174399938
223,1736.25,0.12309149615709206
224,1744.26,0.12076243190532554
225,1756.3500000000001,0.12361361354029965
226,1764.4599999999998,0.11791777330536501
227,1776.6899999999998,0.11826111656390376
228,1784.89,0.11873722594411779
229,1793.13,0.12168038293106459
230,1805.56,0.12052320422326712
231,1813.8899999999999,0.11492087082536259
232,1826.47,0.11541825814281292
233,1834.8999999999999,0.11267160876174027
234,1843.36,0.1070246825857172
235,1856.14,0.10662129793683128
236,1864.71,0.10765851017932328
237,1873.32,0.11111054002854802
238,1886.3,0.10534647341332586
239,1895.01,0.1022273572793825
240,1903.76,0.10528073875217187
241,1905.46072,0.10489821546853292
242,1916.95,0.10241094510249743
243,1925.8,0.10020062604230155
244,1934.69,0.10184387187900873
245,1943.6200000000001,0.103858782612619
246,1957.09,0.09902403414472763
247,1966.13,0.10333788084482134
248,1975.2,0.10459509371759232
249,1984.32,0.10085203021149218
250,1993.48,0.09878779160229506
251,2007.3,0.09969763848230558
252,2016.56,0.09779895711536615
253,2025.87,0.09942333936955557
254,2035.22,0.09602099652064805
255,2044.6100000000001,0.0971505585686436
256,2054.05,0.092127444237768
257,2063.53,0.09303941480379546
258,2073.06,0.09725265899095176
259,2077.84,0.09429869917086856
260,2082.63,0.09581812807501114
261,2097.06,0.09240700713279344
262,2106.74,0.09261394218333624
263,2116.47,0.0926769108550079
264,2126.2400000000002,0.0927416444235826
265,2136.0499999999997,0.0892575528890604
266,2145.91,0.089444994975667
267,2155.81,0.0907625019591767
268,2165.77,0.088569981288041
269,2175.7599999999998,0.0879270767895826
270,2185.81,0.0866087946364788
271,2187.7616199999998,0.08690732744626846
272,2195.89,0.08821150420212895
273,2206.0299999999997,0.08654762433339394
274,2216.21,0.08413660858746469
275,2226.44,0.08256563049504267
276,2236.7200000000003,0.08459979005612787
277,2247.04,0.08249771374001887
278,2257.41,0.08045940507741708
279,2262.62,0.08099569457286979
280,2273.06,0.08145829062517812
281,2283.56,0.08192572786169511
282,2294.09,0.07894751569031642
283,2304.68,0.07908132470314642
284,2315.3199999999997,0.07718017136948364
285,2326.01,0.06916892568932809
286,2336.75,0.07409695766267974
287,2347.5299999999997,0.07266537375883719
288,2352.94,0.07482278386831881
289,2363.8,0.0718433382100878
290,2374.71,0.07237119020536403
291,2385.68,0.06950995338484892
292,2396.69,0.07116345068713958
293,2407.75,0.06967672564293749
294,2413.2999999999997,0.07003163518223933
295,2424.44,0.07150490838364877
296,2435.63,0.06978537923856545
297,2446.87,0.07115328774698937
298,2452.5099999999998,0.0704463390626042
299,2463.83,0.06978964581663966
300,2475.21,0.06830864375488378
301,2486.63,0.0684911658159337
302,2492.36,0.06475058890786153
303,2503.8700000000003,0.06913707274522445
304,2511.88643,0.06637834005711521
305,2515.4300000000003,0.06517300825974695
306,2527.04,0.0647968755099622
307,2532.86,0.0649465842607161
308,2544.5499999999997,0.06418643884771148
309,2556.3,0.06595463393729195
310,2562.1899999999996,0.06492334660772846
311,2574.02,0.06632782903408904
312,2585.9,0.0656372785459372
313,2597.83,0.06495420514327295
314,2603.82,0.06364517198468461
315,2615.8399999999997,0.06298347933589798
316,2627.92,0.06394685718969646
317,2633.97,0.06468733453369321
318,2646.1299999999997,0.0668340697242718
319,2652.23,0.06731538415375612
320,2664.47,0.06396815668111486
321,2676.77,0.06497144971105866
322,2682.9399999999996,0.0649263280602256
323,2695.3300000000004,0.06295709184404703
324,2707.77,0.06344871271335606
325,2714.01,0.061671034982205594
326,2726.54,0.06119875660539226
327,2732.82,0.06228936254263186
328,2745.44,0.05833967491969616
329,2758.1099999999997,0.05876751438224803
330,2764.47,0.05961535765626776
331,2777.23,0.06052968787269727
332,2783.63,0.058655834815107055
333,2796.48,0.0532425457854142
334,2802.9300000000003,0.054685549813311564
335,2815.86,0.05921574812039884
336,2822.3500000000004,0.06027694581668626
337,2835.38,0.058789828294748686
338,2841.92,0.05783976307652368
339,2855.03,0.056424672891366226
340,2868.21,0.05880750662589138
341,2874.83,0.058756188744446505
342,2884.0315,0.058493827760651346
343,2888.1,0.05839175677406863
344,2894.75,0.0581802336428984
345,2908.1099999999997,0.06017659336734434
346,2928.27,0.05858381492758613
347,2948.5699999999997,0.0575788937903296
348,2969.01,0.05766911995557475
349,2989.5899999999997,0.057214313423321575
350,3010.31,0.057031034193570085
351,3031.18,0.056756709930784674
352,3052.19,0.05639258297050094
353,3073.3500000000004,0.056116970977183295
354,3087.53,0.055784769187710505
355,3108.93,0.055597851141538604
356,3130.48,0.054704818062332766
357,3152.18,0.05442918995009302
358,3166.73,0.054274361745803246
359,3188.68,0.05238221524517365
360,3210.79,0.05294785137597455
361,3233.04,0.051341654809277104
362,3247.97,0.05285553785463474
363,3270.48,0.05352692056401186
364,3293.15,0.05298548590481946
365,3308.35,0.05239715589071606
366,3311.31121,0.05238285474682983
367,3323.62,0.052352970140012306
368,3331.2799999999997,0.05250690726502694
369,3338.96,0.05055942775068131
370,3346.6600000000003,0.052298591596975405
371,3354.37,0.05093185712358936
372,3362.1099999999997,0.0498513876911629
373,3369.86,0.05064476993905631
374,3377.62,0.04957067386726958
375,3385.41,0.050441042836442435
376,3393.2200000000003,0.051674025166255015
377,3401.04,0.053218529176387454
378,3408.88,0.050299686547159626
379,3416.74,0.050361527278571516
380,3424.61,0.052027159690303276
381,3432.5099999999998,0.052880697142994613
382,3440.42,0.05138977627600583
383,3448.35,0.049224628769656754
384,3456.2999999999997,0.0493640446239474
385,3464.27,0.048000283838877784
386,3472.25,0.05038625473412803
387,3480.26,0.048189900670337855
388,3488.28,0.049523308286867546
389,3496.32,0.04901750926403697
390,3504.38,0.0496449336018461
391,3512.46,0.04889466130029497
392,3520.56,0.049931982359383564
393,3528.67,0.047282695098792016
394,3536.8100000000004,0.04956067287916006
395,3544.9599999999996,0.05028634233984797
396,3553.13,0.050518935161175595
397,3561.32,0.04982817134314295
398,3569.53,0.047245620885750024
399,3577.7599999999998,0.04676204378899683
400,3586.01,0.045176810052883355
401,3594.28,0.04709845967740961
402,3602.5600000000004,0.04939107098225572
403,3610.87,0.04720729732806143
404,3619.19,0.04845002535418699
405,3627.5299999999997,0.049575016740952285
406,3635.9,0.04698235316867716
407,3644.2799999999997,0.04986767127672191
408,3652.68,0.047640472745406365
409,3661.1,0.05093788757473056
410,3669.54,0.049972875764694474
411,3669.76,0.050852402731731444
412,3672.5,0.045501933139373764
413,3675.23,0.052186201866696216
414,3677.97,0.046515182274338526
415,3680.7000000000003,0.04395471100166098
416,3683.44,0.043809351409303296
417,3686.1699999999996,0.04624926013662574
418,3688.9100000000003,0.04634901054426806
419,3691.64,0.04025711927159051
420,3694.38,0.03810138967923282
421,3697.11,0.04622495840655527
422,3699.85,0.04622773881419759
423,3702.58,0.04957093754152004
424,3705.3199999999997,0.052990187949162354
425,3708.05,0.0513545766764848
426,3710.79,0.054991117084127114
427,3713.52,0.055863325811449566
428,3716.25,0.05339716453877202
429,3718.99,0.07564977494641434
430,3721.7200000000003,0.14311289367373678
431,3724.46,0.2362083140813791
432,3727.19,0.30164079280870154
433,3729.9300000000003,0.25962941321634386
434,3732.66,0.16618789194366632
435,3735.3999999999996,0.08437768235130863
436,3738.13,0.05631342107863108
437,3740.87,0.0463962214862734
438,3743.6000000000004,0.05007524021359584
439,3746.34,0.041507600621238164
440,3749.0699999999997,0.04616800934856061
441,3751.81,0.04403559975620293
442,3754.54,0.049285028483525374
443,3757.28,0.052499578891167686
444,3760.0099999999998,0.05337896761849015
445,3762.7500000000005,0.04500976802613245
446,3765.48,0.048554986753454904
447,3768.22,0.04615410716109722
448,3770.9500000000003,0.05122216588841967
449,3773.69,0.052232376296061984
450,3776.4199999999996,0.04667293502338443
451,3779.16,0.05302473543102675
452,3781.89,0.048742114158349205
453,3784.63,0.05353785456599151
454,3787.36,0.058621193293313965
455,3790.1,0.058641003700956276
456,3792.83,0.05259043242827873
457,3795.5699999999997,0.053623092835921045
458,3798.3,0.05312511156324349
459,3801.04,0.04946806197088581
460,3801.8939600000003,0.05023633779139319
461,3803.77,0.05192731391566058
462,3806.51,0.06103218888110515
463,3809.24,0.05513888525178533
464,3811.98,0.057465550217229905
465,3814.71,0.05240997658791008
466,3817.45,0.050391731553354656
467,3820.1800000000003,0.054625777924034835
468,3822.92,0.05836303288947941
469,3825.65,0.05382554926015959
470,3828.39,0.04885053422560416
471,3831.12,0.04841462059628434
472,3833.86,0.04898411556172891
473,3836.5899999999997,0.05037092193240909
474,3839.3300000000004,0.04443966689785366
475,3842.06,0.04512431326853384
476,3844.7999999999997,0.05442853823397842
477,3847.53,0.05452059460465859
478,3850.27,0.05916291957010317
479,3852.9999999999995,0.052238835940783344
480,3855.74,0.05617902090622792
481,3858.47,0.06452903727690809
482,3861.21,0.06923329224235267
483,3863.94,0.060141708613032856
484,3866.6800000000003,0.06776323357847742
485,3869.41,0.0694472999491576
486,3872.1499999999996,0.06535487491460218
487,3874.88,0.05962501128528235
488,3877.61,0.056014147655962535
489,3880.3500000000004,0.04716739262140711
490,3883.08,0.047719158992087285
491,3885.8199999999997,0.054889993957531864
492,3888.55,0.05512752032821204
493,3891.29,0.049387485293656615
494,3894.0200000000004,0.04769900166433679
495,3896.76,0.04946808662978136
496,3899.49,0.04753179300046154
497,3902.23,0.05511564796590612
498,3904.96,0.05607598433658629
499,3907.7000000000003,0.05528783930203087
500,3910.43,0.05420365567271104
501,3913.17,0.058214770638155625
502,3915.9,0.0568432770088358
503,3918.64,0.051143641974280375
504,3921.3700000000003,0.05443759834496055
505,3924.11,0.05030210331040512
506,3926.8399999999997,0.05007719968108531
507,3929.58,0.04594262464652987
508,3932.31,0.040912161017210055
509,3935.0499999999997,0.04226823598265463
510,3937.78,0.048515352353334804
511,3940.52,0.05053584731877938
512,3943.25,0.04450693368945956
513,3945.99,0.05464710865490414
514,3948.72,0.06288399502558431
515,3951.46,0.056192179991028886
516,3954.19,0.05641802636170907
517,3956.9300000000003,0.05654754132715364
518,3959.66,0.04647451769783382
519,3962.3999999999996,0.05423256266327839
520,3965.13,0.04901176903395857
521,3967.87,0.05316296399940315
522,3970.6000000000004,0.05261033037008332
523,3973.34,0.050895575335527896
524,3976.0699999999997,0.04800840170620807
525,3978.81,0.04954852667165265
526,3981.54,0.05116341304233283
527,3984.28,0.050923008007777396
528,3987.01,0.05376800437845758
529,3989.7500000000005,0.04937212934390215
530,3992.48,0.058782555714582324
531,3995.22,0.059183220680026905
532,3997.9500000000003,0.05625207705070708
533,4000.69,0.05998752201615166
534,4003.4199999999996,0.05731677838683184
535,4006.1600000000003,0.05181469335227641
536,4008.89,0.056931369722956586
537,4011.63,0.06151712468840116
538,4014.36,0.06019771105908134
539,4017.1,0.05458607602452591
540,4019.83,0.05484694239520609
541,4022.5699999999997,0.05825825736065067
542,4025.3,0.06178119373133084
543,4028.04,0.05633655869677542
544,4030.77,0.0516473350674556
545,4033.51,0.05433585003290017
546,4036.24,0.055378776403580354
547,4038.98,0.05876854136902492
548,4041.71,0.056878957739705104
549,4044.44,0.059574034110385275
550,4047.1800000000003,0.05712477907582986
551,4049.91,0.05439026544651003
552,4052.6499999999996,0.05549759041195461
553,4055.38,0.052779226782634775
554,4058.12,0.05017645174807936
555,4060.85,0.05487022811875954
556,4063.59,0.05954578308420411
557,4066.3199999999997,0.05874533945488429
558,4069.06,0.05754237442032886
559,4071.79,0.056751810791009036
560,4074.53,0.05673496575645361
561,4077.2599999999998,0.05695722212713379
562,4079.9999999999995,0.05820999709257837
563,4082.73,0.057639423463258545
564,4085.47,0.05772133842870312
565,4088.2000000000003,0.05457379479938329
566,4090.94,0.052717169764827876
567,4093.6699999999996,0.05352215613550805
568,4096.41,0.05622324110095262
569,4099.14,0.0612537374716328
570,4101.88,0.06644198243707738
571,4104.610000000001,0.06229868880775755
572,4107.35,0.05448091377320212
573,4110.08,0.051305530143882304
574,4112.82,0.05307999510932688
575,4115.55,0.05736972148000706
576,4118.29,0.05803527644545163
577,4121.02,0.051087822816131806
578,4123.76,0.05006266778157638
579,4126.49,0.05281786415225657
