,lambda (Angstroms),Total Flux (erg/s/cm^2/Angstrom)
0,100.00999999999999,4.632225186043995e-05
1,102.10000000000001,5.69000474985899e-05
2,104.0,6.651622535719208e-05
3,104.712855,7.012408876484848e-05
4,105.93,6.498418246926245e-05
5,107.89999999999999,5.666502954430384e-05
6,109.91000000000001,4.817695985958565e-05
7,114.03,3.077852846933971e-05
8,118.04,1.3844618420662083e-05
9,120.22644299999999,4.611444674577503e-06
10,121.07,4.446612925953949e-06
11,125.03999999999999,3.6708713132459126e-06
12,127.07,3.274207641704585e-06
13,127.95,3.102255029415849e-06
14,130.93,2.519960999552637e-06
15,132.14,2.283526416254633e-06
16,133.98,1.9239896594152803e-06
17,137.1,1.3143409803197696e-06
18,138.038426,1.1309725699258218e-06
19,139.97,1.1176449273343183e-06
20,142.9,1.0974329195099813e-06
21,146.91,1.0697728777043192e-06
22,151.02,1.041423092150386e-06
23,154.9,1.0146653163974763e-06
24,158.489319,9.89916458649742e-07
25,158.86999999999998,9.85882224120407e-07
26,161.82,9.546245294426862e-07
27,165.97,9.106569313048757e-07
28,169.84,8.696666999170864e-07
29,173.0,8.362012299668501e-07
30,177.03,7.935351171790489e-07
31,179.89999999999998,7.631612998413345e-07
32,181.970086,7.412549389647326e-07
33,181.99,7.41323307924008e-07
34,185.79999999999998,7.544237499202441e-07
35,191.0,7.723185400964719e-07
36,194.11,7.830397501632156e-07
37,198.17000000000002,7.970586538342705e-07
38,201.85000000000002,8.098089373036008e-07
39,205.13,8.211644970132214e-07
40,208.929613,8.343622958228702e-07
41,209.91,8.547373818220044e-07
42,215.79000000000002,9.770585155198139e-07
43,219.81,1.0607131376091319e-06
44,222.86,1.1242084126445603e-06
45,227.01,1.2106467745452243e-06
46,230.16,1.2829025242047648e-06
47,233.9,1.3650861535465685e-06
48,239.88329199999998,1.4938639364150686e-06
49,239.9,1.493592131061663e-06
50,246.06,1.3908879564016883e-06
51,251.79,1.2967632231059646e-06
52,257.06,1.2061064052231612e-06
53,260.04,1.1598950297220689e-06
54,264.26,1.0912567835426712e-06
55,269.18,1.0103833295610023e-06
56,274.18,9.283497181162174e-07
57,275.42287,9.078950173589218e-07
58,279.28000000000003,9.8054741080252e-07
59,283.82,1.067184230431164e-06
60,289.76,1.1787642592845007e-06
61,295.83000000000004,1.2941949327087026e-06
62,301.33,1.3957044960914205e-06
63,308.35,1.5306077829180919e-06
64,316.227766,1.68371552764265e-06
65,317.72,1.6656039650689719e-06
66,328.12,1.5366180317747812e-06
67,338.09,1.4140131586841002e-06
68,348.37,1.2883321080048417e-06
69,357.29999999999995,1.1829145642435802e-06
70,363.078055,1.1178871813481897e-06
71,365.63,1.1498182551603046e-06
72,375.01,1.2625372718718324e-06
73,384.63,1.3817462182220346e-06
74,395.4,1.5267267107575518e-06
75,404.60999999999996,1.6567307606416846e-06
76,414.04,1.7927885793612703e-06
77,416.86938299999997,1.834656614870935e-06
78,421.73,1.8863261823090528e-06
79,429.57,1.9787886002144126e-06
80,440.59000000000003,2.1289705562497534e-06
81,450.86,2.27863418442425e-06
82,460.3,2.421588128432745e-06
83,469.94,2.6140777132041316e-06
84,478.630092,2.808926024787875e-06
85,479.78,2.818097208915085e-06
86,489.82,2.9144402019985803e-06
87,500.08,3.083716261265181e-06
88,505.87,7.165737689447794e-06
89,511.73,2.1564631425052305e-05
90,520.04,2.2196065920423206e-05
91,529.7099999999999,2.3387834388562388e-05
92,539.56,2.2858407647215023e-05
93,549.5408739999999,2.8859856482133445e-05
94,549.59,2.8889667270978967e-05
95,559.8100000000001,3.473907557732919e-05
96,570.21,3.896211373643314e-05
97,579.48,3.8676366153249824e-05
98,590.25,4.54949573430142e-05
99,599.84,4.71295961647264e-05
100,609.59,5.439529818888635e-05
101,619.49,6.281783009034106e-05
102,629.56,6.765743851939653e-05
103,630.957344,6.819184018362444e-05
104,639.79,7.162512991603689e-05
105,650.1899999999999,7.917534426491506e-05
106,657.72,8.363166921174707e-05
107,665.3299999999999,8.996099180741658e-05
108,674.59,9.568254716036004e-05
109,685.5500000000001,9.725770505110088e-05
110,695.08,0.00011537592121887099
111,704.75,0.00011436439077210675
112,716.21,0.00013538769646808212
113,724.43596,0.00014170385637902842
114,726.17,0.00014303262129828975
115,734.5799999999999,0.00015143812639520636
116,744.8000000000001,0.0001647936343726722
117,755.16,0.00017528812876078828
118,765.66,0.00018645670955955455
119,774.53,0.00020061365572003617
120,785.3000000000001,0.0002173432888821993
121,794.4,0.00022909110557446343
122,805.45,0.00024093281155792697
123,814.78,0.00025280889878197363
124,824.2099999999999,0.0002732733905850561
125,831.763771,0.0002629007954011855
126,835.6800000000001,0.0002574976779557651
127,845.35,0.0002980771505463215
128,855.1400000000001,0.0003134453879466883
129,865.04,0.00033414913475604796
130,875.0600000000001,0.0003546374463752181
131,885.19,0.00037725366740338107
132,895.4399999999999,0.0003976214532413545
133,905.81,0.0004115086038891384
134,914.19,0.0005806830297742328
135,924.7800000000001,0.0032818337992400024
136,935.4899999999999,0.0067300000335155825
137,944.14,0.012911838455222749
138,954.992586,0.01645164766827662
139,955.0799999999999,0.016480159991955744
140,963.9100000000001,0.02022872376743061
141,975.0699999999999,0.0067767629004203585
142,984.1,0.021133039534909377
143,995.49,0.020557211505765404
144,1004.7,0.023766295013367158
145,1014.0,0.02243697845752528
146,1025.74,0.01078912018165608
147,1035.23,0.01985949349187765
148,1044.81,0.02753977673865559
149,1054.48,0.027160919921989896
150,1064.24,0.024545143041880574
151,1074.08,0.026851546105376916
152,1084.02,0.02437626909838033
153,1094.05,0.027730352027940115
154,1096.4782,0.02748968018500565
155,1104.17,0.026727293345805803
156,1114.3899999999999,0.026789080797410762
157,1124.7,0.024828808050448643
158,1135.11,0.027539635082856433
159,1145.61,0.026179201916697148
160,1156.21,0.02703708852990777
161,1164.23,0.027413100835374675
162,1175.0,0.021926097073514148
163,1185.87,0.026912873091023533
164,1194.09,0.024544994955230263
165,1205.1399999999999,0.02079470057560549
166,1216.29,0.011613705975350625
167,1224.72,0.022436717376234167
168,1236.05,0.026605822378845147
169,1244.6200000000001,0.027348683470846562
170,1256.14,0.027098708054260373
171,1258.92541,0.026921072059841122
172,1264.85,0.026543252838569974
173,1273.6100000000001,0.02798733421330078
174,1285.3999999999999,0.02805138606353779
175,1294.31,0.025700147461808508
176,1306.28,0.026119559340293412
177,1315.3400000000001,0.027922910762104042
178,1324.46,0.027160172193330636
179,1333.64,0.026179083633973192
180,1345.98,0.027286525570523214
181,1355.3100000000002,0.027286507034705684
182,1364.7,0.026360178508304116
183,1374.16,0.026360139992887843
184,1383.6899999999998,0.026481601488456862
185,1396.49,0.02360224349719594
186,1406.1699999999998,0.024206575016304868
187,1415.9199999999998,0.025759736546399088
188,1425.73,0.025464278085909273
189,1435.61,0.02581951963640475
190,1442.24,0.02611951067686882
191,1445.43977,0.025945291870098572
192,1445.57,0.025938201196170352
193,1455.59,0.025699902515924977
194,1465.68,0.024999793844899445
195,1475.84,0.024999705183093753
196,1486.07,0.024942446530507905
197,1496.37,0.024828337887141904
198,1503.27,0.02404235879595497
199,1513.69,0.02285376016839441
200,1517.1799999999998,0.023386020628069423
201,1524.19,0.02343969155137081
202,1534.75,0.021774662942249935
203,1545.39,0.021825104343666024
204,1556.1,0.021328305754301953
205,1563.28,0.02212860669999439
206,1574.12,0.022853648127752885
207,1585.03,0.022959119564731224
208,1596.02,0.02306500101224653
209,1603.39,0.02259171198296425
210,1614.5,0.022436543446285
211,1625.6899999999998,0.022333534920142707
212,1633.1899999999998,0.022801255907982994
213,1644.5100000000002,0.02254002739896327
214,1655.9099999999999,0.022436768900480505
215,1659.58691,0.022662469175335914
216,1663.56,0.022906353206363365
217,1671.24,0.02217960059351234
218,1675.09,0.023064874296705513
219,1686.6999999999998,0.022958995463997132
220,1694.4899999999998,0.022436382956951627
221,1706.23,0.02202725424928613
222,1714.1100000000001,0.02147606182880878
223,1725.99,0.02132846325580485
224,1733.95,0.02182523091227697
225,1745.97,0.021476322473934613
226,1754.03,0.021774870226593565
227,1766.19,0.021132941922912776
228,1774.3400000000001,0.02108439976213988
229,1786.6399999999999,0.021230501593120666
230,1794.89,0.021476159528534607
231,1803.17,0.021525757492804595
232,1815.67,0.02065201951615905
233,1824.0500000000002,0.020890997576615878
234,1836.7,0.020604249744250583
235,1845.1799999999998,0.019586597900894245
236,1853.69,0.019451796086393955
237,1866.54,0.019722458446402337
238,1875.1599999999999,0.020228466737707566
239,1883.81,0.019053105057868853
240,1896.87,0.018363957619869583
241,1905.46072,0.019255968976344635
242,1905.63,0.019273545673127977
243,1914.42,0.01861935477476725
244,1923.26,0.018237473814413575
245,1936.59,0.018791577287092933
246,1945.53,0.019140836202753354
247,1954.5100000000002,0.018111715068819416
248,1968.0600000000002,0.018921658268729786
249,1977.14,0.01936254701080995
250,1986.27,0.01857620569089716
251,1995.44,0.01823719432139001
252,2004.65,0.0185761629022885
253,2013.9,0.01853369143359263
254,2023.19,0.0188781399153024
255,2037.2199999999998,0.018111732520080442
256,2046.6200000000001,0.018195320865405717
257,2056.07,0.017456559148738046
258,2065.56,0.017740257382476008
259,2075.09,0.018491045566619617
260,2079.88,0.017740219627694943
261,2084.67,0.01798717368877027
262,2094.29,0.017456601761326566
263,2103.96,0.017781029771889906
264,2113.67,0.01778099773285889
265,2123.43,0.01790434563183492
266,2133.23,0.017617963481216595
267,2143.08,0.017336341268605313
268,2152.97,0.017577379006399673
269,2162.9100000000003,0.017416296682201085
270,2172.89,0.017296354308408132
271,2182.92,0.017137881872622232
272,2187.7616199999998,0.017194841755807145
273,2193.0,0.017256481047993474
274,2203.12,0.017059121051920274
275,2213.29,0.016863991105273583
276,2223.5,0.01663255119816811
277,2233.77,0.01670932135037445
278,2244.08,0.016594231542122008
279,2254.44,0.016366601783296082
280,2264.8399999999997,0.01640420206401137
281,2275.3,0.016366532404038472
282,2285.8,0.016366642783606788
283,2296.35,0.015883003212601624
284,2306.9500000000003,0.01602271369102297
285,2317.6,0.015795404218870834
286,2322.94,0.014303159497622722
287,2333.66,0.015425040094667709
288,2344.4300000000003,0.01524133074113921
289,2355.25,0.015375061437037228
290,2366.13,0.015087122192247065
291,2377.05,0.015080052986998115
292,2382.5299999999997,0.014801078404144246
293,2393.52,0.014896689268092417
294,2404.57,0.014719040191352409
295,2415.67,0.014644201164038913
296,2426.82,0.014704662186151936
297,2432.42,0.014465937721921705
298,2443.64,0.01449221881323185
299,2454.92,0.014451789963853812
300,2466.25,0.014279031163902292
301,2477.6400000000003,0.014141042423262591
302,2483.35,0.014137568067770695
303,2494.81,0.013494659396328115
304,2506.33,0.014026080784197353
305,2511.88643,0.01359506881066849
306,2512.11,0.013577726191361822
307,2517.9,0.013826393976181597
308,2523.7,0.013633271757175498
309,2535.35,0.013532437300033937
310,2547.05,0.013370722823763012
311,2552.92,0.013522070577975807
312,2564.71,0.01339097606727203
313,2576.54,0.013445801541264762
314,2582.4900000000002,0.013380389264870575
315,2594.41,0.013281324704430454
316,2606.3799999999997,0.013122460124860971
317,2612.39,0.01302855782551155
318,2624.45,0.012991663211509212
319,2636.56,0.012954768578377511
320,2642.64,0.013101236252246982
321,2654.84,0.01303398158468243
322,2667.0899999999997,0.012789206897988514
323,2673.2400000000002,0.012815144545076873
324,2685.5800000000004,0.012778709823950105
325,2697.9700000000003,0.012538605083693973
326,2704.19,0.012564052704001226
327,2716.6800000000003,0.012413187925486367
328,2722.9399999999996,0.01226768553049013
329,2735.5099999999998,0.012345740721368292
330,2748.1299999999997,0.012002565893117092
331,2754.47,0.011999193467513871
332,2767.1800000000003,0.011964898604829818
333,2773.56,0.01207206616392311
334,2786.36,0.011926991266806202
335,2792.79,0.011439548806770129
336,2805.68,0.011592023875220368
337,2812.15,0.011804001399880807
338,2825.13,0.011688946433898192
339,2838.17,0.011495511444960343
340,2844.7099999999996,0.011492218942839673
341,2857.8399999999997,0.011380013919468971
342,2864.43,0.011455491398218937
343,2877.65,0.01136997634041538
344,2884.0315,0.011316351973595424
345,2884.28,0.0113142638969891
346,2897.6000000000004,0.01122962379269704
347,2910.97,0.011223033688013489
348,2931.15,0.011033613530009449
349,2951.47,0.010847043370909243
350,2971.92,0.010787593210791173
351,2992.5299999999997,0.010654073049420346
352,3013.27,0.010522132887031655
353,3027.18,0.010419212778120046
354,3048.16,0.010290122613852218
355,3069.29,0.01016269244840993
356,3090.56,0.010013582281871478
357,3111.9900000000002,0.009912288114080268
358,3133.5600000000004,0.009744115945192896
359,3148.0200000000004,0.009648637831974935
360,3169.8399999999997,0.00952852266113013
361,3191.82,0.009302455489032566
362,3206.55,0.009296247373700578
363,3228.78,0.009138309199645582
364,3251.1600000000003,0.009087094024416124
365,3273.69,0.009015149848012206
366,3288.8,0.008905840729704918
367,3311.31121,0.008796178378733647
368,3311.6,0.008794771510223662
369,3319.23,0.008955165368208286
370,3326.8900000000003,0.008972463221702677
371,3334.55,0.00896943407519707
372,3342.2400000000002,0.00836793392420123
373,3349.95,0.008983702770211904
374,3357.6699999999996,0.008478209614725835
375,3365.41,0.008573460456246278
376,3373.1699999999996,0.008433397294773236
377,3380.94,0.008276421131803447
378,3388.7400000000002,0.008643483964343428
379,3396.5499999999997,0.008620388795386666
380,3404.38,0.008382654623436417
381,3412.23,0.008340929448492681
382,3420.09,0.0085322822720522
383,3427.98,0.00848984109112149
384,3435.88,0.008545595908694035
385,3443.8,0.008386711723273092
386,3451.74,0.008519838534858664
387,3459.69,0.00815208234494749
388,3467.67,0.008130367150546089
389,3475.66,0.008221614954647941
390,3483.6800000000003,0.007921178754259564
391,3491.71,0.00832973955237444
392,3499.76,0.008231361347495832
393,3507.8199999999997,0.00802245014112048
394,3515.91,0.008001017930254897
395,3524.02,0.008109133716395826
396,3532.14,0.008106282501040013
397,3540.28,0.00814059428269071
398,3548.44,0.008269719061347922
399,3556.62,0.008304743837011646
400,3564.82,0.008206602609681883
401,3573.04,0.008053626379358633
402,3581.28,0.007741561146041895
403,3589.53,0.007632460911228414
404,3597.8100000000004,0.007700121671924702
405,3606.1,0.007876413431124246
406,3614.4100000000003,0.007909770187330304
407,3622.74,0.007979812940542874
408,3631.1,0.008238006689265212
409,3639.4700000000003,0.007955242436490808
410,3647.86,0.007970493180722916
411,3656.27,0.007912566921961536
412,3664.7000000000003,0.007909474660206672
413,3673.14,0.007869977396955063
414,3681.61,0.007741101129213221
415,3681.7499999999995,0.007386147108258811
416,3684.5,0.008334963696654317
417,3687.24,0.008650863286546566
418,3689.9900000000002,0.008390934874942073
419,3692.73,0.0075161974648343234
420,3695.4700000000003,0.007954068054726574
421,3698.22,0.008050997643122079
422,3700.9599999999996,0.00851650323301433
423,3703.71,0.008165334821409834
424,3706.45,0.006779370411302086
425,3709.19,0.008028390001194334
426,3711.94,0.007706286589589841
427,3714.6800000000003,0.009683552179482092
428,3717.42,0.011161269769374342
429,3720.17,0.021889119357769847
430,3722.91,0.0415111389476621
431,3725.6600000000003,0.0656691385360576
432,3728.4,0.06627912812594985
433,3731.14,0.0462375277158421
434,3733.8900000000003,0.024235127304237613
435,3736.63,0.01177134689412986
436,3739.38,0.009685430482525367
437,3742.12,0.007888772072417616
438,3744.8599999999997,0.007794689662309865
439,3747.61,0.008194164250705372
440,3750.35,0.0073701658405976225
441,3753.1,0.007948545428993129
442,3755.8399999999997,0.007496654018885378
443,3758.5800000000004,0.007570993608777628
444,3761.33,0.008266341197173135
445,3764.0699999999997,0.009046299787065384
446,3766.82,0.00801357737546089
447,3769.56,0.008066239965353142
448,3772.3,0.00833020755524539
449,3775.0499999999997,0.007917580143640897
450,3777.79,0.008331626733533147
451,3780.5299999999997,0.009505371323425396
452,3783.28,0.009738322911820902
453,3786.02,0.009040824501713153
454,3788.77,0.00866654709010866
455,3791.51,0.007322034680000909
456,3794.25,0.007937142269893158
457,3797.0,0.009387892858288664
458,3799.74,0.008864535448180916
459,3801.8939600000003,0.008435356637642836
460,3802.4900000000002,0.008316595055164785
461,3805.23,0.008386172730507867
462,3807.97,0.008681586405850952
463,3810.7200000000003,0.009221371080009155
464,3813.46,0.00913277075535224
465,3816.21,0.009384780429510443
466,3818.95,0.009259018104853526
467,3821.6899999999996,0.00927809378019661
468,3824.44,0.009202071454354813
469,3827.18,0.008336626129697896
470,3829.93,0.008085274803856101
471,3832.67,0.008744214479199184
472,3835.4100000000003,0.009256174154542267
473,3838.16,0.008491449828700471
474,3840.9,0.008244191504043555
475,3843.64,0.009043686179386638
476,3846.39,0.00850551285354484
477,3849.13,0.008893832528887926
478,3851.8799999999997,0.009490553203046129
479,3854.6200000000003,0.009174924878389213
480,3857.36,0.009366475553732295
481,3860.11,0.011505680227890499
482,3862.85,0.014698849903233583
483,3865.6000000000004,0.020426619577391787
484,3868.34,0.02339944925273487
485,3871.08,0.020864088928077954
486,3873.83,0.014890108602236158
487,3876.5699999999997,0.010946828277579241
488,3879.32,0.009431226951737445
489,3882.06,0.01020808762708053
490,3884.7999999999997,0.011481887302423612
491,3887.55,0.013835726976581815
492,3890.29,0.0131687366519249
493,3893.04,0.010519656326083102
494,3895.7799999999997,0.009292596001426186
495,3898.52,0.00894075867676927
496,3901.27,0.009105818350927473
497,3904.0099999999998,0.008922404026270557
498,3906.75,0.00921496170161364
499,3909.5,0.009816921375771843
500,3912.2400000000002,0.009215665051114928
501,3914.99,0.00940240272527313
502,3917.73,0.009425527400616215
503,3920.47,0.009515834075959297
504,3923.2200000000003,0.0088318657501175
505,3925.96,0.008761369425460585
506,3928.71,0.009009093099618788
507,3931.4500000000003,0.008450716774961873
508,3934.19,0.008483131450304954
509,3936.94,0.00836423212446316
510,3939.68,0.008935506799806243
511,3942.4300000000003,0.009173701473964447
512,3945.17,0.00904889014930753
513,3947.91,0.008815925824650614
514,3950.66,0.008501444498808818
515,3953.4,0.009555360174151902
516,3956.15,0.009140585848310104
517,3958.89,0.008673686523653188
518,3961.6299999999997,0.00998059619899627
519,3964.38,0.012717737873154476
520,3967.12,0.01510047754849756
521,3969.86,0.01471648722384064
522,3972.6099999999997,0.012813996897998847
523,3975.3500000000004,0.00934334457334193
524,3978.1,0.008870444247500133
525,3980.84,0.008415216922843216
526,3983.58,0.009018890598186299
527,3986.33,0.008904754272344505
528,3989.07,0.009231137947687587
529,3991.8199999999997,0.009588442621845791
530,3994.56,0.009506511297188875
531,3997.2999999999997,0.009519633972531957
532,4000.05,0.009464098646690162
533,4002.79,0.008288247322033246
534,4005.5400000000004,0.009853818996191449
535,4008.28,0.009960800671534533
536,4011.02,0.009135851346877616
537,4013.77,0.009701364021035821
538,4016.5099999999998,0.009570835696378902
539,4019.26,0.009607493370537106
540,4022.0,0.01012469104588019
541,4024.74,0.010261450721223274
542,4027.4900000000002,0.009853346395381478
543,4030.23,0.00922493407072456
544,4032.9700000000003,0.009079633746067645
545,4035.72,0.009516030420225849
546,4038.46,0.009409801095568932
547,4041.21,0.009747810769727137
548,4043.95,0.008685355445070219
549,4046.69,0.009187308120413303
550,4049.44,0.008734180794571507
551,4052.1800000000003,0.009208498469914589
552,4054.93,0.009749712144072794
553,4057.67,0.009257324819415876
554,4060.41,0.008748496494758961
555,4063.1600000000003,0.009537464168917164
556,4065.9,0.009823111844260247
557,4068.6499999999996,0.009561514518418452
558,4071.39,0.010113255193761534
