,lambda (Angstroms),Total Flux (erg/s/cm^2/Angstrom)
0,102.07000000000001,0.00022449025573546664
1,103.97,0.00025082928514797337
2,104.712855,0.00026201355764163975
3,105.9,0.0002653869418234039
4,108.12,0.0002690158619863824
5,109.88,0.000281585409502978
6,114.0,0.0002956891775531904
7,118.01,0.0003104676738836155
8,120.22644299999999,0.0003402061897670166
9,121.04,0.0003554326133512363
10,125.0,0.0004016193100003282
11,127.03,0.00042659105474721114
12,127.91,0.00043916663178034267
13,130.89,0.000473859858551629
14,132.1,0.0004900611019721849
15,133.94,0.0005102232903141872
16,137.06,0.000558351827068017
17,138.038426,0.0005712077326436249
18,139.93,0.0005965309276661087
19,142.86,0.0006784424257159378
20,146.85999999999999,0.0007786903090604143
21,150.98,0.000802277102905225
22,154.85,0.000908277466541006
23,158.489319,0.000969771374940816
24,158.82,0.0009753573115973275
25,162.15,0.0010281851583982952
26,165.93,0.0010990424277399341
27,170.17999999999998,0.0011668351406240519
28,172.95000000000002,0.0011667024993744066
29,176.98,0.0012909422812386407
30,179.85000000000002,0.0013424292449980332
31,181.93,0.001380066229186025
32,181.970086,0.00138071145166825
33,186.17000000000002,0.0014483905237338084
34,190.95000000000002,0.0015341359815292902
35,194.04999999999998,0.0015917388976728034
36,198.10999999999999,0.0016590671233317274
37,201.8,0.0017290756880315864
38,205.07999999999998,0.0017816334122092393
39,208.929613,0.0018254281373598234
40,209.85,0.0018359197843401944
41,216.23,0.0019717357112240042
42,220.25,0.002041087301517565
43,222.8,0.0020839298177485546
44,226.94,0.0021622066793941614
45,230.1,0.002876186824998055
46,233.83999999999997,0.00583008378213684
47,239.83999999999997,0.01382390834973917
48,239.88329199999998,0.013825713081693291
49,245.98999999999998,0.01407998239315033
50,251.72,0.01631604371600217
51,256.99,0.009112293368956652
52,259.96,0.01728371867242436
53,264.19,0.02325896368039352
54,269.1,0.024523193417776156
55,274.1,0.02515305113405176
56,275.42287,0.024830783264011388
57,279.2,0.023910801986046108
58,283.74,0.02664446083573938
59,289.68,0.026521413251417363
60,295.74,0.02486657854417975
61,301.24,0.016658250410548255
62,308.26,0.02180736871998587
63,316.227766,0.02856935309097795
64,318.36,0.030378822307458583
65,328.03,0.031739662487327326
66,337.99999999999994,0.031811947398732845
67,348.27,0.03166582704167514
68,357.20000000000005,0.03504248021708651
69,363.078055,0.0385531544286549
70,366.36,0.04051340197192143
71,374.90000000000003,0.04032730902173062
72,385.4,0.037204722935430444
73,395.29,0.04242104848842961
74,405.43,0.04555808746794544
75,413.91999999999996,0.045455213832451304
76,416.86938299999997,0.04486420787559739
77,421.60999999999996,0.043914243241268636
78,430.44,0.04261751585461245
79,441.48,0.045247456641850925
80,450.73,0.04545722270905707
81,460.16,0.04311286025648993
82,469.8,0.04301431953085395
83,478.630092,0.04446004152616164
84,479.64,0.04462537125590874
85,489.67999999999995,0.04155405300246616
86,499.93,0.044626802484758345
87,505.71999999999997,0.0441171700557312
88,511.58000000000004,0.059921656871948975
89,519.89,0.05762225727173902
90,529.5600000000001,0.05477427300771614
91,539.4,0.04961198691071663
92,549.43,0.048820288765096205
93,549.5408739999999,0.048897333716951735
94,559.65,0.05592211209299881
95,570.05,0.05762278559558525
96,580.65,0.05566473839629835
97,590.0799999999999,0.05617956530297047
98,599.67,0.05135549164814392
99,609.4200000000001,0.0474878174318187
100,619.32,0.05643813268908848
101,629.38,0.054274317384859584
102,630.957344,0.05452834595306047
103,639.61,0.055921912780054164
104,650.0,0.05427410192908924
105,657.5300000000001,0.051709407549131024
106,665.14,0.05427449354760619
107,674.39,0.05515455730396561
108,685.35,0.05041969914933851
109,694.89,0.053774944277518937
110,704.5500000000001,0.04792762997334943
111,716.0,0.05365231413662677
112,724.43596,0.053236595037699196
113,725.9599999999999,0.053161488144130145
114,734.37,0.053039060779309255
115,744.5799999999999,0.051474318259116476
116,754.94,0.05065170614264271
117,765.44,0.046300914402973355
118,774.31,0.049612438276224094
119,785.0799999999999,0.04759739726324895
120,794.17,0.04837244172862091
121,805.2199999999999,0.048260241469254575
122,814.54,0.04792722655366235
123,825.8699999999999,0.04781737704790484
124,831.763771,0.04389916837638516
125,835.4399999999999,0.041455161340450054
126,845.11,0.046408654601645144
127,854.9,0.04545664715873924
128,864.8000000000001,0.04576916907040743
129,874.8100000000001,0.045351380336649705
130,884.94,0.04493598089879099
131,895.19,0.04452200075683129
132,905.55,0.043509729969445674
133,916.0400000000001,0.04271416841928398
134,924.5100000000001,0.08701313872148898
135,935.2199999999999,0.1260580158804755
136,946.05,0.16090805233536098
137,954.8,0.17401000099466368
138,954.992586,0.17427948270323515
139,965.86,0.18948608978610235
140,974.8,0.10485218149504627
141,986.08,0.165797171033848
142,995.21,0.15260556256658378
143,1004.4200000000001,0.16655835402512673
144,1016.05,0.16694264323933453
145,1025.45,0.1203868345216693
146,1034.94,0.15616202572053708
147,1044.51,0.17683921684521192
148,1054.18,0.1704417078771457
149,1063.93,0.15473079883488655
150,1073.78,0.1590660896998863
151,1086.21,0.14176587817216516
152,1096.26,0.15652336885168266
153,1096.4782,0.15633095644405837
154,1103.86,0.14982154722269372
155,1114.0700000000002,0.1470857175868502
156,1124.3799999999999,0.13445598766074376
157,1134.78,0.14341155747340067
158,1145.28,0.1372706269957947
159,1155.8799999999999,0.13445619622792576
160,1163.89,0.13109297297786637
161,1174.66,0.10293844171655049
162,1185.53,0.12262421016497171
163,1193.75,0.11656558630536018
164,1204.8,0.10828475423130815
165,1215.9399999999998,0.08120322189601951
166,1224.3700000000001,0.10779019742685585
167,1235.7,0.11391506454006767
168,1244.27,0.11312773966453592
169,1255.78,0.11106540625527449
170,1258.92541,0.11060544418255713
171,1264.48,0.10979319827212816
172,1276.18,0.1115764006877349
173,1285.03,0.11029920251492462
174,1293.94,0.10317390435450206
175,1305.91,0.10222980682585357
176,1314.96,0.10557940869433571
177,1324.08,0.1017594105772702
178,1336.33,0.09853220310643108
179,1345.5900000000001,0.09921412501827027
180,1354.92,0.0969560769445618
181,1364.31,0.09301906888324106
182,1373.77,0.09111076083637266
183,1386.48,0.08965522346050615
184,1396.0900000000001,0.07354963544460708
185,1405.77,0.06959416744316034
186,1415.51,0.08405745945410134
187,1425.32,0.07990621147949467
188,1435.2,0.08157982351934037
189,1441.8300000000002,0.08101650488818418
190,1445.43977,0.08061309076600631
191,1448.48,0.08027332616028066
192,1455.17,0.07790739731953411
193,1465.26,0.07578486906794478
194,1475.41,0.07508824082675235
195,1485.64,0.07457158259942244
196,1495.94,0.07287454438422224
197,1506.31,0.07072646618115175
198,1513.26,0.0678552273854584
199,1516.75,0.06816841799021095
200,1523.75,0.06723184920318169
201,1534.3100000000002,0.061033381033034684
202,1544.95,0.0547745728767502
203,1555.66,0.05464691473259543
204,1566.44,0.05882716660057036
205,1573.67,0.06047583785339585
206,1584.58,0.060197219743897384
207,1595.56,0.05964463164652862
208,1606.62,0.05722333356302238
209,1614.04,0.055791864848771355
210,1625.22,0.055408696786058906
211,1636.4899999999998,0.055792138738941795
212,1644.04,0.05452278004721737
213,1655.44,0.05490200202262686
214,1659.58691,0.054764844054188876
215,1666.92,0.054522312020814236
216,1670.76,0.05182941688011381
217,1678.47,0.05553500663667624
218,1686.22,0.05427296644385636
219,1694.0,0.052670956288999767
220,1705.74,0.05147312114529586
221,1713.62,0.049611221116983524
222,1725.49,0.04859430613778716
223,1733.46,0.049496306223364664
224,1745.47,0.04859433142133025
225,1753.5300000000002,0.04814862162079759
226,1765.69,0.047160477008579574
227,1773.84,0.04608671732193674
228,1786.1299999999999,0.04608720287422626
229,1794.3799999999999,0.045663523314127694
230,1806.8100000000002,0.04535090904357918
231,1815.15,0.04350909959737043
232,1823.53,0.043308500201779405
233,1836.17,0.04271408619697384
234,1844.6499999999999,0.04069860692792706
235,1853.16,0.04041972769684356
236,1866.01,0.04032671395778093
237,1874.62,0.0403270848532417
238,1883.27,0.038245545799320164
239,1896.33,0.03711789232600049
240,1905.0800000000002,0.037983683398623215
241,1905.46072,0.037931468933690364
242,1913.8700000000001,0.036778140163440734
243,1927.1399999999999,0.03536669851782031
244,1936.04,0.03627403400041098
245,1944.97,0.03644025943406656
246,1953.95,0.03432200478616367
247,1967.49,0.03520272270012746
248,1976.58,0.03553036787279591
249,1985.7,0.03432197299652928
250,1994.87,0.03346334803870416
251,2004.07,0.03362010303194396
252,2013.3200000000002,0.033233857943625274
253,2027.28,0.03331194517249784
254,2036.64,0.0319592299047505
255,2046.0400000000002,0.03173897457175638
256,2055.48,0.027578659173515475
257,2064.9700000000003,0.02901184369371609
258,2074.5,0.03144812814866993
259,2079.28,0.0303792003516793
260,2084.08,0.030520992522065277
261,2093.7,0.02955228683021385
262,2103.36,0.029689401073115636
263,2113.07,0.029620785234458945
264,2122.82,0.029349429330555465
265,2132.62,0.02881363334509351
266,2147.4,0.02815574923640701
267,2157.31,0.0283515330715164
268,2167.27,0.02764207682506731
269,2177.28,0.027514740497059743
270,2187.33,0.026952284103805388
271,2187.7616199999998,0.026957624536846195
272,2197.42,0.02707715596066966
273,2202.49,0.026644172554302556
274,2212.65,0.025976555767578742
275,2222.8700000000003,0.02561932905888608
276,2233.13,0.025443112402214196
277,2243.43,0.025095905797563083
278,2253.79,0.024523659270943125
279,2264.19,0.024523552796343943
280,2274.64,0.024298866386770725
281,2285.14,0.023965830042223475
282,2295.69,0.02305288376270219
283,2306.29,0.023105807548206868
284,2316.9300000000003,0.02289406138573232
285,2327.63,0.02136598530128893
286,2332.9900000000002,0.022244692272072424
287,2343.76,0.022040826278665385
288,2354.58,0.021940120350284316
289,2365.4500000000003,0.021589504486929208
290,2376.37,0.021392188688600065
291,2387.34,0.02076218295529689
292,2392.84,0.020882460108153093
293,2403.88,0.020644454465886267
294,2414.98,0.0205029589016506
295,2426.13,0.0204568634024409
296,2437.33,0.020084637968257164
297,2442.94,0.02001601526417049
298,2454.22,0.019833839934028298
299,2465.55,0.019608204668912072
300,2476.93,0.019385179468821814
301,2482.6400000000003,0.01918618689478707
302,2494.1,0.017180081798738357
303,2505.6099999999997,0.018795876767715606
304,2511.39,0.01793021428471721
305,2511.88643,0.017971605855178315
306,2517.17,0.01841213227092718
307,2522.98,0.018349449346549595
308,2534.6200000000003,0.018224963487727716
309,2546.32,0.01793561759870573
310,2552.1899999999996,0.017916124644128027
311,2563.97,0.017753708714839216
312,2575.81,0.017714922755350294
313,2587.7,0.017514356770694614
314,2593.66,0.017295023770816743
315,2605.63,0.017138727745894245
316,2617.66,0.016906111690771632
317,2623.7,0.016848808650626945
318,2635.81,0.016735302555237516
319,2647.9700000000003,0.016737866434681326
320,2654.08,0.016566463359303174
321,2666.33,0.016266947193446818
322,2672.4700000000003,0.016137614102968607
323,2684.8100000000004,0.01610310789181208
324,2697.2000000000003,0.015775581655488792
325,2703.42,0.015722678524743766
326,2715.9,0.01550962224312031
327,2722.1600000000003,0.015351169092241877
328,2734.72,0.015178222770351602
329,2747.35,0.01500747641322786
330,2753.68,0.014888643227115961
331,2766.3900000000003,0.014789076829725405
332,2772.77,0.014807593618446748
333,2785.57,0.01464099717575602
334,2791.99,0.014129353944343954
335,2804.87,0.01419766746138641
336,2817.8199999999997,0.014332160943195402
337,2824.32,0.014153297671516518
338,2837.3500000000004,0.013930301113058693
339,2843.89,0.013852067821246402
340,2857.02,0.013728261212455054
341,2863.6099999999997,0.013682457895476001
342,2876.8300000000004,0.013560371241384485
343,2883.46,0.013453267904272022
344,2884.0315,0.013448120252228269
345,2896.77,0.013333387485398335
346,2910.14,0.013244907347675722
347,2930.31,0.012993467139907202
348,2950.62,0.012717556930696563
349,2971.07,0.0125628067200438
350,2991.67,0.012353096507845909
351,3012.41,0.012146896294205893
352,3033.29,0.011944426079123759
353,3047.2900000000004,0.011757275934911599
354,3068.41,0.011561415717357255
355,3089.6800000000003,0.011369145498257781
356,3111.1,0.011205725277613175
357,3132.66,0.01099420505552645
358,3147.12,0.01082227490657589
359,3168.94,0.010642404681810939
360,3190.8999999999996,0.010417974455603864
361,3213.02,0.010292704227748651
362,3227.85,0.01013178407498677
363,3250.23,0.010033173844453333
364,3272.75,0.009867118612477773
365,3287.86,0.00973578545683165
366,3310.65,0.009596816222074854
367,3311.31121,0.009623253262903388
368,3318.28,0.009901883843018986
369,3325.9300000000003,0.009961019336635103
370,3333.6,0.00981500082631296
371,3341.29,0.009473065312052558
372,3348.9900000000002,0.009910151795823028
373,3356.71,0.009390155275655237
374,3364.45,0.00935952675154919
375,3372.2000000000003,0.009137984225474011
376,3379.97,0.009214054695460576
377,3387.77,0.00939793215953975
378,3395.5800000000004,0.009476202621649799
379,3403.3999999999996,0.009082955081790717
380,3411.25,0.009074585536024247
381,3419.11,0.009234601988288647
382,3426.99,0.00926860043661479
383,3434.89,0.009302842881002674
384,3442.81,0.0091455693214523
385,3450.75,0.009032513757963666
386,3458.7000000000003,0.008778191192505905
387,3466.68,0.008912663621140753
388,3474.67,0.008802596047806475
389,3482.6800000000003,0.008535012470533936
390,3490.71,0.008826806889323139
391,3498.75,0.008798482306143213
392,3506.82,0.008610095717055899
393,3514.9,0.008484421125999456
394,3523.0099999999998,0.008594435529035627
395,3531.13,0.008547225930102667
396,3539.27,0.008598585327231447
397,3547.43,0.00867024772042197
398,3555.6,0.008622597111643366
399,3563.7999999999997,0.008555330496957371
400,3572.02,0.008488749878333117
401,3580.25,0.008155659257739735
402,3588.5,0.008054883633208096
403,3596.78,0.008103552002769066
404,3605.07,0.00820872137036091
405,3613.38,0.008182545734014494
406,3621.71,0.008212869093729818
407,3630.06,0.008358148449506886
408,3638.4300000000003,0.008198181801345695
409,3646.81,0.008115792151215374
410,3655.2200000000003,0.008071227495177666
411,3663.65,0.008045538835201699
412,3672.09,0.007964616173256603
413,3680.56,0.007884628505404119
414,3683.44,0.007184130938294891
415,3686.1899999999996,0.007976820396784344
416,3688.9300000000003,0.006025243857242926
417,3691.67,0.00605166931770151
418,3694.42,0.006932905776190963
419,3697.16,0.006254911236649545
420,3699.8999999999996,0.007875335697108127
421,3702.64,0.00682287215756671
422,3705.39,0.007580342616056163
423,3708.13,0.007202218076514746
424,3710.87,0.007292238536973328
425,3713.6200000000003,0.006504140995462781
426,3716.36,0.008180821455921364
427,3719.1000000000004,0.012363342916379945
428,3721.85,0.019547892374869397
429,3724.5899999999997,0.025303871835327982
430,3727.33,0.022375181295786563
431,3730.08,0.017412860754276015
432,3732.82,0.0106543602147346
433,3735.56,0.008231699675193183
434,3738.3100000000004,0.008393343133682635
435,3741.05,0.007014111594141219
436,3743.79,0.006827989054599801
437,3746.53,0.007221058515058383
438,3749.2799999999997,0.008812825973547836
439,3752.02,0.00810450443400642
440,3754.7599999999998,0.006048972894465002
441,3757.51,0.005932281352954455
442,3760.25,0.006574096813413037
443,3762.99,0.00657483927387162
444,3765.7400000000002,0.006360554732361073
445,3768.48,0.0076069981928196554
446,3771.2200000000003,0.007483492653278238
447,3773.97,0.0073746221117676905
448,3776.7099999999996,0.006804003572226273
449,3779.45,0.006470392032684856
450,3782.2,0.006566492491174309
451,3784.94,0.007567121951632892
452,3787.68,0.006379156412091474
453,3790.42,0.006385770872550056
454,3793.17,0.00877368433103951
455,3795.9100000000003,0.009200262791498092
456,3798.65,0.007857961251956676
457,3801.3999999999996,0.006276165710446128
458,3801.8939600000003,0.006329918556711937
459,3804.14,0.00657433326305783
460,3806.88,0.006250748835936291
461,3809.63,0.006170011407255915
462,3812.37,0.006877865980134378
463,3815.1099999999997,0.006996013553012838
464,3817.86,0.0069788671243324624
465,3820.6,0.006860740697210925
466,3823.34,0.005436743270089387
467,3826.0899999999997,0.00788017784140901
468,3828.83,0.009434564414287472
469,3831.57,0.009154276987165935
470,3834.3100000000004,0.009164075560044395
471,3837.06,0.008009086131364019
472,3839.7999999999997,0.006113030704242481
473,3842.54,0.005896576277120944
474,3845.29,0.007870154848440569
475,3848.03,0.00687810742131903
476,3850.77,0.006603931994197491
477,3853.5199999999995,0.007606727565517115
478,3856.26,0.007813907138395576
479,3859.0,0.007680373711274038
480,3861.75,0.010418047282593663
481,3864.49,0.013020996855472124
482,3867.23,0.013019546428350586
483,3869.98,0.01075655599967021
484,3872.7200000000003,0.008405075572548671
485,3875.46,0.007314702145427133
486,3878.2100000000005,0.007557309716746757
487,3880.9500000000003,0.00995577528962522
488,3883.69,0.012923163862503681
489,3886.4300000000003,0.015677533435382144
490,3889.18,0.013142053006701767
491,3891.9199999999996,0.00849166657958023
492,3894.66,0.006407029152458691
493,3897.41,0.006442960723778315
494,3900.15,0.006009311296656776
495,3902.89,0.0068460668695352386
496,3905.6400000000003,0.006688036440854863
497,3908.38,0.006420954013733324
498,3911.1200000000003,0.006851933586611786
499,3913.87,0.006543970157931411
500,3916.6099999999997,0.006455681730809871
501,3919.35,0.006251459303688334
502,3922.1,0.006286167875007958
503,3924.84,0.0059921804478864195
504,3927.58,0.0060391510207648815
505,3930.3199999999997,0.006829433593643343
506,3933.07,0.005859854164962967
507,3935.81,0.007215628737841429
508,3938.55,0.00617001331071989
509,3941.2999999999997,0.005906077882039514
510,3944.04,0.006124506454917977
511,3946.7799999999997,0.006569427027796438
512,3949.53,0.006523420599116063
513,3952.27,0.006432198171994525
514,3955.0099999999998,0.005608180744872985
515,3957.76,0.0064823263161926095
516,3960.5,0.00855401788907107
517,3963.2400000000002,0.011185831461949533
518,3965.99,0.014067551033269158
519,3968.7299999999996,0.01332475060614762
520,3971.47,0.011351170179026081
521,3974.21,0.007509635751904544
522,3976.96,0.006582612323224167
523,3979.7,0.0062453318961026285
524,3982.44,0.0059205234689810905
525,3985.19,0.005948141040300715
526,3987.9300000000003,0.006617839613179176
527,3990.67,0.006025939186057638
528,3993.4199999999996,0.006200310757377262
529,3996.1600000000003,0.006275654330255724
530,3998.9,0.005953292903134186
531,4001.65,0.00519675447445381
532,4004.39,0.005810929047332271
533,4007.1299999999997,0.006169752620210734
534,4009.88,0.005659516191530357
535,4012.62,0.005733634764408819
536,4015.36,0.005379476337287282
537,4018.1,0.006019333910165743
538,4020.8500000000004,0.006643018481485367
539,4023.59,0.006434393054363829
540,4026.3300000000004,0.00639820362724229
541,4029.08,0.006307927198561915
542,4031.8199999999997,0.006177813771440377
543,4034.56,0.005391707344318838
544,4037.31,0.005976993915638462
545,4040.05,0.005760783488516924
546,4042.79,0.005184291061395386
547,4045.5400000000004,0.00529556263271501
548,4048.28,0.005542116205593472
549,4051.02,0.0057568757784719335
550,4053.77,0.005675162349791557
551,4056.5099999999998,0.00690497192267002
552,4059.25,0.0057145584955484805
553,4061.99,0.0059826390684269435
554,4064.7400000000002,0.0062472656397465675
555,4067.48,0.005433276212625029
556,4070.22,0.005802861785503491
557,4072.9700000000003,0.005922935356823115
558,4075.71,0.005968192929701576
559,4078.4500000000003,0.005742199502580038
560,4081.2,0.005835614073899663
561,4083.9399999999996,0.005373590646778123
562,4086.68,0.005921482219656586
563,4089.43,0.00612275979097621
564,4092.17,0.007231008363854672
565,4094.91,0.010302840936733134
566,4097.66,0.015162070508052758
567,4100.400000000001,0.01602501008093122
