,lambda (Angstroms),Total Flux (erg/s/cm^2/Angstrom)
0,100.00999999999999,1.1580563001249471e-05
1,102.10000000000001,1.4225011926770091e-05
2,104.0,1.6629056410254776e-05
3,104.712855,1.7531022272058853e-05
4,105.93,1.6246045715048714e-05
5,107.89999999999999,1.4166257520664059e-05
6,109.91000000000001,1.2044240175262562e-05
7,114.03,7.694632485506402e-06
8,118.04,3.461155213276396e-06
9,120.22644299999999,1.1528623502427434e-06
10,121.07,1.1116546343454872e-06
11,125.03999999999999,9.177200719297281e-07
12,127.07,8.185547157771462e-07
13,127.95,7.755668904549623e-07
14,130.93,6.299945255466592e-07
15,132.14,5.708865243276582e-07
16,133.98,4.810034129638201e-07
17,137.1,3.2859352402244243e-07
18,138.038426,2.8275228314425674e-07
19,139.97,2.794221461860796e-07
20,142.9,2.7437533084499536e-07
21,146.91,2.674703818235798e-07
22,151.02,2.603932724150965e-07
23,154.9,2.537177310768691e-07
24,158.489319,2.475465912536385e-07
25,158.86999999999998,2.4653973748510173e-07
26,161.82,2.3874203488567157e-07
27,165.97,2.2777747645121895e-07
28,169.84,2.175635736542716e-07
29,173.0,2.0922812911671255e-07
30,177.03,1.986107512697622e-07
31,179.89999999999998,1.9106072283533364e-07
32,181.970086,1.856168030303861e-07
33,181.99,1.85634209556002e-07
34,185.79999999999998,1.8898438178006102e-07
35,191.0,1.9357171714911797e-07
36,194.11,1.963340455908039e-07
37,198.17000000000002,1.9996289800856763e-07
38,201.85000000000002,2.032955980759002e-07
39,205.13,2.0625722475330532e-07
40,208.929613,2.097313354317547e-07
41,209.91,2.148701734555011e-07
42,215.79000000000002,2.4580990562995347e-07
43,219.81,2.66989487902283e-07
44,222.86,2.8308454616114007e-07
45,227.01,3.050275311363061e-07
46,230.16,3.2832895855119124e-07
47,233.9,3.5238904338664213e-07
48,239.88329199999998,3.8818015811169216e-07
49,239.9,3.881222502654158e-07
50,246.06,3.64279019100422e-07
51,251.79,3.4351032577649114e-07
52,257.06,3.2032058130579026e-07
53,260.04,3.122594674305172e-07
54,264.26,2.976460883856678e-07
55,269.18,2.7975897239025057e-07
56,274.18,2.6173586702905434e-07
57,275.42287,2.571925138109804e-07
58,279.28000000000003,2.7712555270063003e-07
59,283.82,3.01709532607791e-07
60,289.76,3.3210148482112517e-07
61,295.83000000000004,3.6456723817717566e-07
62,301.33,3.9090265652285516e-07
63,308.35,4.29856398229523e-07
64,316.227766,4.7529062952647144e-07
65,317.72,4.7211849876724295e-07
66,328.12,4.4725168544369524e-07
67,338.09,4.244610071710251e-07
68,348.37,4.0169770200121044e-07
69,357.29999999999995,3.85682441060895e-07
70,363.078055,3.785017891022336e-07
71,365.63,3.904931637900761e-07
72,375.01,4.299212679679581e-07
73,384.63,4.7396405455550864e-07
74,395.4,5.347928276893879e-07
75,404.60999999999996,5.928342651604212e-07
76,414.04,6.552104948403176e-07
77,416.86938299999997,6.749710610560399e-07
78,421.73,7.038539205772632e-07
79,429.57,7.595622000536032e-07
80,440.59000000000003,8.580820890624384e-07
81,450.86,9.595996711060624e-07
82,460.3,1.0582986321081862e-06
83,469.94,1.205595628301033e-06
84,478.630092,1.3597045464754752e-06
85,479.78,1.3759438772287714e-06
86,489.82,1.533999800499645e-06
87,500.08,1.7663410653162952e-06
88,505.87,5.883951922361948e-06
89,511.73,2.0318865356263078e-05
90,520.04,2.10013789801058e-05
91,529.7099999999999,2.2252586097140597e-05
92,539.56,2.1783704411803757e-05
93,549.5408739999999,2.784650274675913e-05
94,549.59,2.787641181774474e-05
95,559.8100000000001,3.37462663943323e-05
96,570.21,3.799011093410829e-05
97,579.48,3.7722909038312454e-05
98,590.25,4.456304683575355e-05
99,599.84,4.62168715411816e-05
100,609.59,5.350207954722158e-05
101,619.49,6.194441752258526e-05
102,629.56,6.680417212984913e-05
103,630.957344,6.734136933938414e-05
104,639.79,7.075083997900923e-05
105,650.1899999999999,7.827300856622877e-05
106,657.72,8.270902730293678e-05
107,665.3299999999999,8.901782795185414e-05
108,674.59,9.471441179009001e-05
109,685.5500000000001,9.626001376277521e-05
110,695.08,0.00011435253030471775
111,704.75,0.00011331492269302669
112,716.21,0.00013430732411702054
113,724.43596,0.0001406013010170463
114,726.17,0.00014192740532457243
115,734.5799999999999,0.00015032000659880157
116,744.8000000000001,0.00016365983359316804
117,755.16,0.00017413843219019707
118,765.66,0.00018529090238988863
119,774.53,0.00019943423893000904
120,785.3000000000001,0.00021614734722054984
121,794.4,0.00022788120139361585
122,805.45,0.00023970595288948175
123,814.78,0.0002515677246954934
124,824.2099999999999,0.000272017747646264
125,831.763771,0.0002616335623884808
126,835.6800000000001,0.00025624354448894126
127,845.35,0.0002968553626365804
128,855.1400000000001,0.0003122563469866721
129,865.04,0.000332993208689012
130,875.0600000000001,0.0003535150365938045
131,885.19,0.0003761651418508453
132,895.4399999999999,0.00039656721331033864
133,905.81,0.0004104890509722846
134,914.19,0.0005796915074435582
135,924.7800000000001,0.003280877699810001
136,935.4899999999999,0.006729079758378896
137,944.14,0.012910947113805686
138,954.992586,0.0164507926280943
139,955.0799999999999,0.016479304997988935
140,963.9100000000001,0.02022787344185765
141,975.0699999999999,0.0067759184751050895
142,984.1,0.021132199883727342
143,995.49,0.02055637787644135
144,1004.7,0.023765466253341788
145,1014.0,0.02243615461438132
146,1025.74,0.01078830254541402
147,1035.23,0.019858680872969412
148,1044.81,0.027538969184663895
149,1054.48,0.027160117480497473
150,1064.24,0.024544345760470144
151,1074.08,0.02685075402634423
152,1084.02,0.024375482274595083
153,1094.05,0.02772957050698503
154,1096.4782,0.027488899947832438
155,1104.17,0.02672652583645145
156,1114.3899999999999,0.02678833019935269
157,1124.7,0.02482807451261216
158,1135.11,0.02753891877071411
159,1145.61,0.026178502979174286
160,1156.21,0.02703640713247694
161,1164.23,0.027412432708843668
162,1175.0,0.02192544676837854
163,1185.87,0.026912240772755884
164,1194.09,0.024544376238807567
165,1205.1399999999999,0.020794100143901373
166,1216.29,0.011613123993837656
167,1224.72,0.022436149344058545
168,1236.05,0.026605273094711286
169,1244.6200000000001,0.02734814836771164
170,1256.14,0.027098192013565094
171,1258.92541,0.02692056062823525
172,1264.85,0.026542740709642493
173,1273.6100000000001,0.027986821053325193
174,1285.3999999999999,0.028050871515884448
175,1294.31,0.025699631865452127
176,1306.28,0.026119042335073353
177,1315.3400000000001,0.027922392690526012
178,1324.46,0.02715965304833266
179,1333.64,0.026178563408493297
180,1345.98,0.027286003892630802
181,1355.3100000000002,0.02728598425867642
182,1364.7,0.02635965462707603
183,1374.16,0.026359614998221963
184,1383.6899999999998,0.026481075372114218
185,1396.49,0.023601715874298986
186,1406.1699999999998,0.024206046254076217
187,1415.9199999999998,0.02575920663659977
188,1425.73,0.02546374702147732
189,1435.61,0.02581898740910119
190,1442.24,0.026118977669217204
191,1445.43977,0.025944758485835454
192,1445.57,0.02593766779904259
193,1455.59,0.025699368128981246
194,1465.68,0.02499925846122486
195,1475.84,0.02499916879577344
196,1486.07,0.024941909132626977
197,1496.37,0.024827799471785476
198,1503.27,0.02404181969898874
199,1513.69,0.022853220042098603
200,1517.1799999999998,0.023385480157017358
201,1524.19,0.0234391503878427
202,1534.75,0.021774120735562483
203,1545.39,0.021824561085916506
204,1556.1,0.02132776143857549
205,1563.28,0.022128061674998596
206,1574.12,0.02285310203193822
207,1585.03,0.022958572391182805
208,1596.02,0.023064452753061633
209,1603.39,0.022591162995741064
210,1614.5,0.02243599336157125
211,1625.6899999999998,0.022332983730035675
212,1633.1899999999998,0.02280070397699575
213,1644.5100000000002,0.022539474349740816
214,1655.9099999999999,0.022436214725120127
215,1659.58691,0.022661914636755553
216,1663.56,0.022905795801590842
217,1671.24,0.022179037648378086
218,1675.09,0.02306430857417638
219,1686.6999999999998,0.022958421365999283
220,1694.4899999999998,0.022435803239237908
221,1706.23,0.02202666606232153
222,1714.1100000000001,0.021475467957202194
223,1725.99,0.021327860813951213
224,1733.95,0.021824622728069242
225,1745.97,0.021475705618483654
226,1754.03,0.02177424755664839
227,1766.19,0.021132310480728195
228,1774.3400000000001,0.02108376244053497
229,1786.6399999999999,0.021229855398280168
230,1794.89,0.021475507382133652
231,1803.17,0.02152509937320115
232,1815.67,0.020651352379039763
233,1824.0500000000002,0.02089032439415397
234,1836.7,0.020603567436062648
235,1845.1799999999998,0.019585909475223564
236,1853.69,0.01945110152159849
237,1866.54,0.019721754611600584
238,1875.1599999999999,0.02022775668442689
239,1883.81,0.01905238876446721
240,1896.87,0.018363231904967397
241,1905.46072,0.019255237064086154
242,1905.63,0.019272813918281995
243,1914.42,0.018618631193691813
244,1923.26,0.018236758453603393
245,1936.59,0.018790874321773232
246,1945.53,0.019140141550688338
247,1954.5100000000002,0.018111028767204853
248,1968.0600000000002,0.018920984567182445
249,1977.14,0.019361881752702488
250,1986.27,0.01857554892272429
251,1995.44,0.018236546080347502
252,2004.65,0.018575523225572127
253,2013.9,0.018533060358398155
254,2023.19,0.0188775174788256
255,2037.2199999999998,0.01811112313002011
256,2046.6200000000001,0.018194720216351427
257,2056.07,0.01745596728718451
258,2065.56,0.017739674345619003
259,2075.09,0.018490471391654904
260,2079.88,0.017739649906923734
261,2084.67,0.017986608422192567
262,2094.29,0.017456045440331643
263,2103.96,0.017780482442972475
264,2113.67,0.017780459433214723
265,2123.43,0.01790381640795873
266,2133.23,0.01761744337030415
267,2143.08,0.01733583031715133
268,2152.97,0.01757687725159992
269,2162.9100000000003,0.017415804170550272
270,2172.89,0.017295871077102034
271,2182.92,0.01713740796815556
272,2187.7616199999998,0.017194372353535117
273,2193.0,0.017256007761998367
274,2203.12,0.017058640262980068
275,2213.29,0.016863502776318397
276,2223.5,0.016632055299542026
277,2233.77,0.016708817837593613
278,2244.08,0.016593720385530503
279,2254.44,0.01636608294582402
280,2264.8399999999997,0.016403675516002844
281,2275.3,0.016365998101009617
282,2285.8,0.016366100695901695
283,2296.35,0.015882453303150405
284,2306.9500000000003,0.016022155922755743
285,2317.6,0.015794838554717708
286,2322.94,0.01430258987440568
287,2333.66,0.015424462523666927
288,2344.4300000000003,0.015240745185284803
289,2355.25,0.015374467859259307
290,2366.13,0.015086520548061767
291,2377.05,0.015079443246749528
292,2382.5299999999997,0.014800464601036062
293,2393.52,0.014896067317023105
294,2404.57,0.014718410047838103
295,2415.67,0.014643562791009729
296,2426.82,0.014704015546537984
297,2432.42,0.014465286930480426
298,2443.64,0.014491559703307963
299,2454.92,0.014451122490963452
300,2466.25,0.014278355290975573
301,2477.6400000000003,0.014140358105815648
302,2483.35,0.014136879516942674
303,2494.81,0.013493962349082029
304,2506.33,0.014025375196049338
305,2511.88643,0.013594359102995848
306,2512.11,0.013577016547840456
307,2517.9,0.013825685994045399
308,2523.7,0.013632565439293875
309,2535.35,0.013531734325008484
310,2547.05,0.013370023205940752
311,2552.92,0.013521372644493952
312,2564.71,0.013390281516818007
313,2576.54,0.01344511038531619
314,2582.4900000000002,0.013379699816217642
315,2594.41,0.013280638676107613
316,2606.3799999999997,0.013121777531215241
317,2612.39,0.013027876956377887
318,2624.45,0.012990985802877303
319,2636.56,0.012954094644594377
320,2642.64,0.013100564063061745
321,2654.84,0.013033312896170608
322,2667.0899999999997,0.01278854172449713
323,2673.2400000000002,0.012814481136269217
324,2685.5800000000004,0.012778049955987527
325,2697.9700000000003,0.012537948770923494
326,2704.19,0.012563398176000306
327,2716.6800000000003,0.012412536981371592
328,2722.9399999999996,0.012267036382622533
329,2735.5099999999998,0.012345095180342073
330,2748.1299999999997,0.012001923973279273
331,2754.47,0.011998553366878467
332,2767.1800000000003,0.011964262151207454
333,2773.56,0.012071431540980778
334,2786.36,0.01192636031670155
335,2792.79,0.011438919701692533
336,2805.68,0.011591398468805091
337,2812.15,0.011803377849970202
338,2825.13,0.011688326608474547
339,2838.17,0.011494895361240086
340,2844.7099999999996,0.011491604735709919
341,2857.8399999999997,0.011379403479867243
342,2864.43,0.011454882849554733
343,2877.65,0.011369371585103845
344,2884.0315,0.01131574904939433
345,2884.28,0.011313660974247275
346,2897.6000000000004,0.01122902094817426
347,2910.97,0.011222430922003371
348,2931.15,0.011033010882502362
349,2951.47,0.01084644084272731
350,2971.92,0.010786990802697793
351,2992.5299999999997,0.010653470762355085
352,3013.27,0.010521530721757913
353,3027.18,0.010418610694530012
354,3048.16,0.010289520653463054
355,3069.29,0.010162090612102482
356,3090.56,0.01001298057046787
357,3111.9900000000002,0.009911686528520067
358,3133.5600000000004,0.009743514486298224
359,3148.0200000000004,0.009648036457993734
360,3169.8399999999997,0.009527921415282532
361,3191.82,0.009301854372258141
362,3206.55,0.009295646343425145
363,3228.78,0.009137708299911396
364,3251.1600000000003,0.009086493256104031
365,3273.69,0.00901454921200305
366,3288.8,0.008905240182426229
367,3311.31121,0.008795577963647556
368,3311.6,0.008794171127555915
369,3319.23,0.008954565842052072
370,3326.8900000000003,0.00897186455542567
371,3334.55,0.008968836268799267
372,3342.2400000000002,0.008367336981050308
373,3349.95,0.008983106692552976
374,3357.6699999999996,0.00847761440368146
375,3365.41,0.00857286611406157
376,3373.1699999999996,0.008432803823693309
377,3380.94,0.008275828532950861
378,3388.7400000000002,0.008642892241085857
379,3396.5499999999997,0.008619797948846666
380,3404.38,0.008382064655859105
381,3412.23,0.008340340362123172
382,3420.09,0.00853169406801305
383,3427.98,0.008489253772780373
384,3435.88,0.008545009477173508
385,3443.8,0.008386126180818273
386,3451.74,0.008519253883714667
387,3459.69,0.008151498586236873
388,3467.67,0.008129784287636523
389,3475.66,0.008221032988661985
390,3483.6800000000003,0.00792059768856489
391,3491.71,0.00832915938809361
392,3499.76,0.008230782086873958
393,3507.8199999999997,0.00802187178528012
394,3515.91,0.008000440482563724
395,3524.02,0.008108557179098955
396,3532.14,0.008105706875260004
397,3540.28,0.008140019570672678
398,3548.44,0.00826914526533698
399,3556.62,0.008304170959252913
400,3564.82,0.008206030652420471
401,3573.04,0.008053055344839657
402,3581.28,0.007740991036510474
403,3589.53,0.007631891727807103
404,3597.8100000000004,0.007699553417981175
405,3606.1,0.00787584610778106
406,3614.4100000000003,0.007909203796832576
407,3622.74,0.007979247485135718
408,3631.1,0.008237442172316303
409,3639.4700000000003,0.007954678859122702
410,3647.86,0.007969930545180729
411,3656.27,0.007912005230490383
412,3664.7000000000003,0.007908913915051668
413,3673.14,0.007869417599238766
414,3681.61,0.007740542282303305
415,3681.7499999999995,0.007385588277064703
416,3684.5,0.008334405174163579
417,3687.24,0.008650305071636642
418,3689.9900000000002,0.008390376968735519
419,3692.73,0.007515639866208581
420,3695.4700000000003,0.007953510763681644
421,3698.22,0.00805044066078052
422,3700.9599999999996,0.008515946558253582
423,3703.71,0.008164778455352458
424,3706.45,0.006778814352825522
425,3709.19,0.008027834250298583
426,3711.94,0.00770573114739746
427,3714.6800000000003,0.009682997044870523
428,3717.42,0.011160714942343586
429,3720.17,0.02188856483944246
430,3722.91,0.041510584736915525
431,3725.6600000000003,0.0656685846340144
432,3728.4,0.06627857453148747
433,3731.14,0.04623697442896053
434,3733.8900000000003,0.024234574326059403
435,3736.63,0.011770794223532466
436,3739.38,0.009684878120631343
437,3742.12,0.007888220018104403
438,3744.8599999999997,0.007794137915577466
439,3747.61,0.008193612812676344
440,3750.35,0.0073696147101494055
441,3753.1,0.007947994607248283
442,3755.8399999999997,0.007496103504721344
443,3758.5800000000004,0.007570443402194407
444,3761.33,0.008265791299293284
445,3764.0699999999997,0.009045750196766345
446,3766.82,0.008013028093865221
447,3769.56,0.008065690991338286
448,3772.3,0.008329658888811348
449,3775.0499999999997,0.007917031785910224
450,3777.79,0.008331078683383288
451,3780.5299999999997,0.009504823580856348
452,3783.28,0.009737775477955225
453,3786.02,0.009040277375428288
454,3788.77,0.008666000272527166
455,3791.51,0.007321488170000227
456,3794.25,0.00793659606747329
457,3797.0,0.009387346964572166
458,3799.74,0.00886398986204523
459,3801.8939600000003,0.00843481129330159
460,3802.4900000000002,0.008316049763791196
461,3805.23,0.008385627682626967
462,3807.97,0.008681041601462738
463,3810.7200000000003,0.00922082652000229
464,3813.46,0.00913222643883806
465,3816.21,0.00938423635737761
466,3818.95,0.009258474276213383
467,3821.6899999999996,0.009277550195049153
468,3824.44,0.009201528113588703
469,3827.18,0.008336083032424474
470,3829.93,0.008084731950964026
471,3832.67,0.008743671869799796
472,3835.4100000000003,0.009255631788635567
473,3838.16,0.008490907707175118
474,3840.9,0.008243649626010888
475,3843.64,0.00904314454484666
476,3846.39,0.00850497146338621
477,3849.13,0.00889329138222198
478,3851.8799999999997,0.009490012300761533
479,3854.6200000000003,0.009174384219597303
480,3857.36,0.009365935138433075
481,3860.11,0.011505140056972625
482,3862.85,0.014698309975808396
483,3865.6000000000004,0.020426079894347946
484,3868.34,0.023398909813183717
485,3871.08,0.02086354973201949
486,3873.83,0.01488956965055904
487,3876.5699999999997,0.01094628956939481
488,3879.32,0.009430688487934361
489,3882.06,0.010207549406770133
490,3884.7999999999997,0.011481349325605903
491,3887.55,0.013835189244145453
492,3890.29,0.013168199162981226
493,3893.04,0.010519119081520775
494,3895.7799999999997,0.009292059000356546
495,3898.52,0.008940221919192318
496,3901.27,0.009105281837731868
497,3904.0099999999998,0.008921867756567638
498,3906.75,0.00921442567540341
499,3909.5,0.009816385593942961
500,3912.2400000000002,0.009215129512778733
501,3914.99,0.009401867431318283
502,3917.73,0.009424992350154053
503,3920.47,0.009515299268989825
504,3923.2200000000003,0.008831331187529375
505,3925.96,0.008760835106365146
506,3928.71,0.009008559024904697
507,3931.4500000000003,0.008450182943740468
508,3934.19,0.008482597862576238
509,3936.94,0.008363698781115791
510,3939.68,0.00893497369995156
511,3942.4300000000003,0.009173168618491111
512,3945.17,0.009048357537326883
513,3947.91,0.008815393456162654
514,3950.66,0.008500912374702204
515,3953.4,0.009554828293537976
516,3956.15,0.009140054212077526
517,3958.89,0.008673155130913296
518,3961.6299999999997,0.009980065049749067
519,3964.38,0.01271720696828862
520,3967.12,0.015099946887124389
521,3969.86,0.01471595680596016
522,3972.6099999999997,0.012813466724499711
523,3975.3500000000004,0.009342814643335483
524,3978.1,0.008869914561875034
525,3980.84,0.008414687480710803
526,3983.58,0.009018361399546575
527,3986.33,0.008904225318086127
528,3989.07,0.009230609236921896
529,3991.8199999999997,0.009587914155461449
530,3994.56,0.009505983074297219
531,3997.2999999999997,0.009519105993132989
532,4000.05,0.00946357091167254
533,4002.79,0.008287719830508312
534,4005.5400000000004,0.009853291749047862
535,4008.28,0.009960273667883634
536,4011.02,0.009135324586719404
537,4013.77,0.009700837505258955
538,4016.5099999999998,0.009570309424094725
539,4019.26,0.009606967342634276
540,4022.0,0.010124165261470046
541,4024.74,0.01026092518030582
542,4027.4900000000002,0.009852821098845369
543,4030.23,0.00922440901768114
544,4032.9700000000003,0.009079108936516912
545,4035.72,0.009515505855056462
546,4038.46,0.009409276773892234
547,4041.21,0.009747286692431785
548,4043.95,0.008684831611267554
549,4046.69,0.009186784530103326
550,4049.44,0.008733657448642877
551,4052.1800000000003,0.009207975367478647
552,4054.93,0.009749189286018199
553,4057.67,0.009256802204853969
554,4060.41,0.00874797412368974
555,4063.1600000000003,0.009536942042229291
556,4065.9,0.009822589961065062
557,4068.6499999999996,0.009560992879604612
558,4071.39,0.010112733798440384
