,lambda (Angstroms),Total Flux (erg/s/cm^2/Angstrom)
0,100.00999999999999,0.21646706421832324
1,102.10000000000001,0.21579046864919296
2,104.0,0.21517538176817122
3,104.712855,0.21494460926366404
4,105.93,0.21287484686200642
5,107.89999999999999,0.20952484999947152
6,109.91000000000001,0.20610683289612383
7,114.03,0.19910074808727524
8,118.04,0.19228171894091392
9,120.22644299999999,0.18856365945425785
10,121.07,0.18736100380355505
11,125.03999999999999,0.18170099157733252
12,127.07,0.178806829154528
13,127.95,0.17755221687283343
14,130.93,0.17330364346441127
15,132.14,0.17157855157733987
16,133.98,0.1689552713525019
17,137.1,0.1645071005370765
18,138.038426,0.16316919055473506
19,139.97,0.16120079296981848
20,142.9,0.15821493536622602
21,146.91,0.15412848861394726
22,151.02,0.14994013545890136
23,154.9,0.14598616703581901
24,158.489319,0.14232842116732808
25,158.86999999999998,0.14203513269030665
26,161.82,0.13976236098530467
27,165.97,0.13656507198166404
28,169.84,0.1335835036927617
29,173.0,0.13114894147695577
30,177.03,0.12804410423367402
31,179.89999999999998,0.1258329670517984
32,181.970086,0.1242381084737071
33,181.99,0.12422640371452548
34,185.79999999999998,0.12198701775060405
35,191.0,0.1189306379722473
36,194.11,0.11710268777740218
37,198.17000000000002,0.11471636053611806
38,201.85000000000002,0.11255338416386677
39,205.13,0.11062551391021073
40,208.929613,0.10839223319799823
41,209.91,0.1079590096266858
42,215.79000000000002,0.10536069438711863
43,219.81,0.10358429521962892
44,222.86,0.10223652970807784
45,227.01,0.10040268487485667
46,230.16,0.0990107370088023
47,233.9,0.09735807149225796
48,239.88329199999998,0.09471411682285702
49,239.9,0.09470842735006424
50,246.06,0.09261079782744955
51,251.79,0.09065959515244655
52,257.06,0.08886502944154116
53,260.04,0.08785027058098524
54,264.26,0.08641325986906749
55,269.18,0.08473788160166464
56,274.18,0.08303526156607266
57,275.42287,0.0826120344300676
58,279.28000000000003,0.0816040240932886
59,283.82,0.08041755576026202
60,289.76,0.07886521436212207
61,295.83000000000004,0.0772789005709967
62,301.33,0.07584154561929267
63,308.35,0.0740069633665618
64,316.227766,0.07194821726756966
65,317.72,0.0716569447113869
66,328.12,0.0696269422444513
67,338.09,0.06768087361980965
68,348.37,0.06567429607484514
69,357.29999999999995,0.06393123198563305
70,363.078055,0.06280340536053161
71,365.63,0.06243036934046722
72,375.01,0.06105922312495507
73,384.63,0.05965299788292406
74,395.4,0.05807868031279016
75,404.60999999999996,0.056732403623128876
76,414.04,0.05535397126382528
77,416.86938299999997,0.05494038661608744
78,421.73,0.05439780964878472
79,429.57,0.053522661681219774
80,440.59000000000003,0.052292563197562134
81,450.86,0.05114619255303675
82,460.3,0.05009247458108302
83,469.94,0.049016478582780715
84,478.630092,0.048046530591976146
85,479.78,0.04794782392960345
86,489.82,0.047086019173629944
87,500.08,0.04620540107166159
88,505.87,0.04571243056689291
89,511.73,0.04522376766382131
90,520.04,0.04451101283014812
91,529.7099999999999,0.04368206678716138
92,539.56,0.042835947138824326
93,549.5408739999999,0.04198512326203702
94,549.59,0.041981935728608616
95,559.8100000000001,0.04131846017864001
96,570.21,0.04064156975632361
97,579.48,0.04003417614541274
98,590.25,0.039335649354937025
99,599.84,0.03870921879318565
100,609.59,0.03807794062601402
101,619.49,0.03743799553688592
102,629.56,0.0367833339388738
103,630.957344,0.03669235393598853
104,639.79,0.03623716337412779
105,650.1899999999999,0.03570470749556771
106,657.72,0.035318178639783336
107,665.3299999999999,0.03492936888862543
108,674.59,0.03445427732663828
109,685.5500000000001,0.03388676914046342
110,695.08,0.033410054850340584
111,704.75,0.032906941500814045
112,716.21,0.032332919631054564
113,724.43596,0.03191211381788615
114,726.17,0.03184660934604364
115,734.5799999999999,0.03153087727578679
116,744.8000000000001,0.03115033432715121
117,755.16,0.030761534495657626
118,765.66,0.030368012881306014
119,774.53,0.030040302967372787
120,785.3000000000001,0.02964193608608071
121,794.4,0.02930295240030931
122,805.45,0.028888905853301186
123,814.78,0.028541185795691613
124,824.2099999999999,0.02819819995032631
125,831.763771,0.027896690492274695
126,835.6800000000001,0.02777848776797073
127,845.35,0.027540541087386357
128,855.1400000000001,0.02727392679742555
129,865.04,0.027009479673869678
130,875.0600000000001,0.026741360740937366
131,885.19,0.02647220137440999
132,895.4399999999999,0.026197337198506185
133,905.81,0.025912536013225945
134,914.19,0.02584034030843824
135,924.7800000000001,0.028236466055967864
136,935.4899999999999,0.03137615089412106
137,944.14,0.03730884234323638
138,954.992586,0.04053606323875353
139,955.0799999999999,0.040562111833283815
140,963.9100000000001,0.044061805537783286
141,975.0699999999999,0.030295304467818862
142,984.1,0.04439707411013259
143,995.49,0.04350022341865456
144,1004.7,0.046449726705001124
145,1014.0,0.0448582933133641
146,1025.74,0.032879547763061026
147,1035.23,0.04168244916234755
148,1044.81,0.049092723883650484
149,1054.48,0.04844132192696983
150,1064.24,0.0455504632923056
151,1074.08,0.04757952983276709
152,1084.02,0.04482409784213569
153,1094.05,0.0478954891735207
154,1096.4782,0.0475863794702983
155,1104.17,0.04664650773462214
156,1114.3899999999999,0.046472473188516814
157,1124.7,0.04427430173349274
158,1135.11,0.04674492260189231
159,1145.61,0.04514220656137314
160,1156.21,0.04575550284427759
161,1164.23,0.045946457182852465
162,1175.0,0.04021094041557709
163,1185.87,0.04494689597172534
164,1194.09,0.04238934495714747
165,1205.1399999999999,0.03838407669545825
166,1216.29,0.028945800757192646
167,1224.72,0.039574293621804396
168,1236.05,0.04348196386570133
169,1244.6200000000001,0.04402707598310615
170,1256.14,0.04351128164150798
171,1258.92541,0.04326937353841532
172,1264.85,0.042794087707433884
173,1273.6100000000001,0.04409405657799779
174,1285.3999999999999,0.04396414879077731
175,1294.31,0.04146633000501526
176,1306.28,0.04168882103020362
177,1315.3400000000001,0.043343124588115615
178,1324.46,0.04243035108349722
179,1333.64,0.04129824051634845
180,1345.98,0.042202674655932776
181,1355.3100000000002,0.042049166432458034
182,1364.7,0.040968361146452914
183,1374.16,0.040812694287495684
184,1383.6899999999998,0.04077737585558634
185,1396.49,0.03768744251577105
186,1406.1699999999998,0.03813252642753574
187,1415.9199999999998,0.03952528876634832
188,1425.73,0.039068444042630504
189,1435.61,0.03926114774596058
190,1442.24,0.03945206733635313
191,1445.43977,0.03922520847622009
192,1445.57,0.03921662235122636
193,1455.59,0.0388632624740496
194,1465.68,0.038047288785355626
195,1475.84,0.03793053128514445
196,1486.07,0.037755799973416077
197,1496.37,0.03752341485017051
198,1503.27,0.03665820200061764
199,1513.69,0.03534994891477114
200,1517.1799999999998,0.03584213316912774
201,1524.19,0.0358153071871907
202,1534.75,0.03402901647830979
203,1545.39,0.033957277127694946
204,1556.1,0.03333749396556289
205,1563.28,0.03405534586994122
206,1574.12,0.0346559099149915
207,1585.03,0.034636100148524585
208,1596.02,0.03461578174032372
209,1603.39,0.03405786187058392
210,1614.5,0.03377511549978214
211,1625.6899999999998,0.03354361048724641
212,1633.1899999999998,0.03392520782468895
213,1644.5100000000002,0.033533990019335554
214,1655.9099999999999,0.03329982357224821
215,1659.58691,0.03348330132558576
216,1663.56,0.033695227842161904
217,1671.24,0.032906701216895845
218,1675.09,0.0337610074789695
219,1686.6999999999998,0.03356174371343057
220,1694.4899999999998,0.03297647240993804
221,1706.23,0.03247291311558602
222,1714.1100000000001,0.03185833798445365
223,1725.99,0.031615182735995215
224,1733.95,0.03204792420251633
225,1745.97,0.03160233299995148
226,1754.03,0.03183605021353944
227,1766.19,0.031096313056868177
228,1774.3400000000001,0.030982216442816304
229,1786.6399999999999,0.031029383332038633
230,1794.89,0.0312086824650536
231,1803.17,0.03119168032218863
232,1815.67,0.030217398705544653
233,1824.0500000000002,0.030388972309746527
234,1836.7,0.030000474313702823
235,1845.1799999999998,0.02891461366497155
236,1853.69,0.028711361740360326
237,1866.54,0.028878665238450316
238,1875.1599999999999,0.02931533863561263
239,1883.81,0.028070400756894997
240,1896.87,0.027276205323825367
241,1905.46072,0.028099117299579833
242,1905.63,0.02811569652049695
243,1914.42,0.027409710886408013
244,1923.26,0.026975740567256004
245,1936.59,0.02745129752943968
246,1945.53,0.027747877840161514
247,1954.5100000000002,0.026665842402832884
248,1968.0600000000002,0.02739594275073902
249,1977.14,0.02778332794328424
250,1986.27,0.026943188450766382
251,1995.44,0.02655014321019806
252,2004.65,0.02683484222157928
253,2013.9,0.026737865484910035
254,2023.19,0.02702757300019033
255,2037.2199999999998,0.026178494371490925
256,2046.6200000000001,0.02620669357963245
257,2056.07,0.025412248102710897
258,2065.56,0.025640026877738885
259,2075.09,0.02633465990471641
260,2079.88,0.025555609075673634
261,2084.67,0.02577433824663086
262,2094.29,0.025187080840494848
263,2103.96,0.025454528749295754
264,2113.67,0.025397280910046203
265,2123.43,0.025463118385733577
266,2133.23,0.025118990113370487
267,2143.08,0.024779327155944317
268,2152.97,0.02496208845046769
269,2162.9100000000003,0.02474243505992798
270,2172.89,0.024563685921337813
271,2182.92,0.024346112097684572
272,2187.7616199999998,0.024374542921893783
273,2193.0,0.024415289648925732
274,2203.12,0.0241775674112125
275,2213.29,0.023941875804735863
276,2223.5,0.023669714703248496
277,2233.77,0.023705524359245042
278,2244.08,0.02354931452023087
279,2254.44,0.02328036531245329
280,2264.8399999999997,0.02327648660966499
281,2275.3,0.023197098664360594
282,2285.8,0.023155331224045478
283,2296.35,0.022629614414966963
284,2306.9500000000003,0.022727048237125035
285,2317.6,0.022457262690519706
286,2322.94,0.02094372010658802
287,2333.66,0.022022845443713922
288,2344.4300000000003,0.021796181412076416
289,2355.25,0.02188675801167551
290,2366.13,0.021555425368758513
291,2377.05,0.021504803230830795
292,2382.5299999999997,0.021203972414361574
293,2393.52,0.021255751160165086
294,2404.57,0.021034030663452514
295,2415.67,0.020914920797976536
296,2426.82,0.02093091156373715
297,2432.42,0.020669852262235756
298,2443.64,0.020651383911727605
299,2454.92,0.020565966318703367
300,2466.25,0.020348019356915725
301,2477.6400000000003,0.020164603152611996
302,2483.35,0.02013835523983111
303,2494.81,0.019449739919258614
304,2506.33,0.01993521535617003
305,2511.88643,0.019482042318380702
306,2512.11,0.01946403557314757
307,2517.9,0.019695503871836634
308,2523.7,0.019485152461197013
309,2535.35,0.019349711093274324
310,2547.05,0.01915324117870819
311,2552.92,0.019287151802767744
312,2564.71,0.019121034504243413
313,2576.54,0.01914071836840432
314,2582.4900000000002,0.01905763131783436
315,2594.41,0.01892315779803707
316,2606.3799999999997,0.018728735731596335
317,2612.39,0.018616980425054244
318,2624.45,0.018544260974655308
319,2636.56,0.01847139297761292
320,2642.64,0.01859979970577001
321,2654.84,0.018496304324769425
322,2667.0899999999997,0.018215140397125396
323,2673.2400000000002,0.018222809159981656
324,2685.5800000000004,0.01814971784837943
325,2697.9700000000003,0.017872807990133754
326,2704.19,0.017879778787689194
327,2716.6800000000003,0.01769181183615663
328,2722.9399999999996,0.017527713796397313
329,2735.5099999999998,0.01756842917023524
330,2748.1299999999997,0.017187765997429716
331,2754.47,0.017165560283040886
332,2767.1800000000003,0.017093509726277163
333,2773.56,0.01718172517457358
334,2786.36,0.016998627233851656
335,2792.79,0.016492084135504625
336,2805.68,0.0166062688108245
337,2812.15,0.016799026875162715
338,2825.13,0.01664541416652439
339,2838.17,0.01641324320191393
340,2844.7099999999996,0.016390523300951323
341,2857.8399999999997,0.016239314952382664
342,2864.43,0.016295216504776607
343,2877.65,0.016170430772249743
344,2884.0315,0.01609784983880749
345,2884.28,0.016095240363358874
346,2897.6000000000004,0.015982652441846247
347,2910.97,0.01594800961071833
348,2931.15,0.015716248089988234
349,2951.47,0.015487042822335335
350,2971.92,0.015384684789682683
351,2992.5299999999997,0.015207921046261116
352,3013.27,0.0150324645378398
353,3027.18,0.014900358682866774
354,3048.16,0.014727248608292075
355,3069.29,0.014555483804871514
356,3090.56,0.01436174525452815
357,3111.9900000000002,0.014215486993415863
358,3133.5600000000004,0.014002056985380769
359,3148.0200000000004,0.013876239124639582
360,3169.8399999999997,0.013710341568528052
361,3191.82,0.0134381563016476
362,3206.55,0.01340104192898386
363,3228.78,0.013196461114026972
364,3251.1600000000003,0.013098288570224218
365,3273.69,0.012979072297575604
366,3288.8,0.012838059611835675
367,3311.31121,0.012681164589506012
368,3311.6,0.012679328568622241
369,3319.23,0.012828383970940178
370,3326.8900000000003,0.012834298787684002
371,3334.55,0.012819886604427826
372,3342.2400000000002,0.012206958835597541
373,3349.95,0.012811270343051183
374,3357.6699999999996,0.012294304988646788
375,3365.41,0.012378053910526318
376,3373.1699999999996,0.012226459108689776
377,3380.94,0.012057936444995195
378,3388.7400000000002,0.012413408195726505
379,3396.5499999999997,0.012378707084599778
380,3404.38,0.01212933724975698
381,3412.23,0.012075946691198106
382,3420.09,0.012255619270781193
383,3427.98,0.012201453264790173
384,3435.88,0.012245468396941114
385,3443.8,0.012074814805375983
386,3451.74,0.01219614249009478
387,3459.69,0.011816572312955537
388,3467.67,0.011782998550242186
389,3475.66,0.011862372925670796
390,3483.6800000000003,0.011550018715525297
391,3491.71,0.011946646643521762
392,3499.76,0.011836305847802151
393,3507.8199999999997,0.011615417190224506
394,3515.91,0.01158196294707275
395,3524.02,0.011678026980204918
396,3532.14,0.011663109151479053
397,3540.28,0.011685324599037112
398,3548.44,0.011802323322879098
399,3556.62,0.01182519232300501
400,3564.82,0.011714865599414849
401,3573.04,0.011549674152108613
402,3581.28,0.011225363981086305
403,3589.53,0.01110400394820596
404,3597.8100000000004,0.011159360329751504
405,3606.1,0.011323332849439012
406,3614.4100000000003,0.011344340645410445
407,3622.74,0.011402004717665807
408,3631.1,0.011647775204347057
409,3639.4700000000003,0.01135257282917027
410,3647.86,0.01135535573027741
411,3656.27,0.011284931907668477
412,3664.7000000000003,0.01126931236134347
413,3673.14,0.011217272953160428
414,3681.61,0.011075809959403271
415,3681.7499999999995,0.010720647893390757
416,3684.5,0.011665377882430642
417,3687.24,0.011977205733328562
418,3689.9900000000002,0.011713190722368448
419,3692.73,0.01083438157326637
420,3695.4700000000003,0.011268180424164293
421,3698.22,0.011361023413204177
422,3700.9599999999996,0.0118224572641021
423,3703.71,0.011467202253141982
424,3706.45,0.010077166104039905
425,3709.19,0.011322113954937827
426,3711.94,0.010995923943977711
427,3714.6800000000003,0.012969117794875635
428,3717.42,0.014442763645773555
429,3720.17,0.02516652663481344
430,3722.91,0.044784474485711365
431,3725.6600000000003,0.06893838747475124
432,3728.4,0.06954430532564917
433,3731.14,0.04949863317654709
434,3733.8900000000003,0.027492146165586977
435,3736.63,0.015024294016484897
436,3739.38,0.012934291005524783
437,3742.12,0.011133560856422704
438,3744.8599999999997,0.011035406707320627
439,3747.61,0.011430794696360512
440,3750.35,0.010602724547258432
441,3753.1,0.01117701753629832
442,3755.8399999999997,0.01072105438719624
443,3758.5800000000004,0.01079132223809416
444,3761.33,0.011482583227134047
445,3764.0699999999997,0.012258470078031967
446,3766.82,0.011221661067071852
447,3769.56,0.011270251917969775
448,3772.3,0.011530147768867696
449,3775.0499999999997,0.011113433757907581
450,3777.79,0.011523408608805503
451,3780.5299999999997,0.012693081459703425
452,3783.28,0.012921946448743308
453,3786.02,0.01222037629964123
454,3788.77,0.011842012288681116
455,3791.51,0.010493428139579037
456,3794.25,0.01110446399047696
457,3797.0,0.012551127979516845
458,3799.74,0.012023698830414768
459,3801.8939600000003,0.011591319157495582
460,3802.4900000000002,0.011471928735436726
461,3805.23,0.011538615630880126
462,3807.97,0.011831138526323526
463,3810.7200000000003,0.01236802187029044
464,3813.46,0.012276530765733842
465,3816.21,0.012525639109700757
466,3818.95,0.012396986005144158
467,3821.6899999999996,0.012413170900587557
468,3824.44,0.012334247244554472
469,3827.18,0.01146591113999787
470,3829.93,0.011211658483964788
471,3832.67,0.011867707379408187
472,3835.4100000000003,0.012376776274851585
473,3838.16,0.011609150618818502
474,3840.9,0.011359001514261901
475,3843.64,0.0121556054097053
476,3846.39,0.011614530753672216
477,3849.13,0.011999959649115616
478,3851.8799999999997,0.012593778993082533
479,3854.6200000000003,0.01227525988852593
480,3857.36,0.01246391978396933
481,3860.11,0.014600223127936247
482,3862.85,0.017790502023379645
483,3865.6000000000004,0.023515370367346564
484,3868.34,0.026485309262789962
485,3871.08,0.02394705815823336
486,3873.83,0.01797017650220028
487,3876.5699999999997,0.014024005397643678
488,3879.32,0.012505502741610592
489,3882.06,0.013279472637053992
490,3884.7999999999997,0.014550381532497391
491,3887.55,0.016901319876464305
492,3890.29,0.016231438771907705
493,3893.04,0.013579457115874622
494,3895.7799999999997,0.012349506011318023
495,3898.52,0.011994777906761421
496,3901.27,0.012156936250728338
497,3904.0099999999998,0.011970631146171737
498,3906.75,0.012260298041615136
499,3909.5,0.012859356385582051
500,3912.2400000000002,0.012255209281025452
501,3914.99,0.012439045624992366
502,3917.73,0.012459279520435768
503,3920.47,0.012546695415879166
504,3923.2200000000003,0.011859825759846081
505,3925.96,0.01178643865528948
506,3928.71,0.012031260999256397
507,3931.4500000000003,0.011469993894699796
508,3934.19,0.011499517790143195
509,3936.94,0.011377717134110113
510,3939.68,0.011946101029553511
511,3942.4300000000003,0.012181394373520428
512,3945.17,0.012053692268963826
513,3947.91,0.011817837164407227
514,3950.66,0.011500454508374142
515,3953.4,0.012551479403817543
516,3956.15,0.012133803747784456
517,3958.89,0.011664013643227857
518,3961.6299999999997,0.012968032538671256
519,3964.38,0.015702272882638174
520,3967.12,0.01808212177808157
521,3969.86,0.01769524067352497
522,3972.6099999999997,0.015789849017491888
523,3975.3500000000004,0.012316305912935286
524,3978.1,0.011840504256902203
525,3980.84,0.011382386152345601
526,3983.58,0.011983169047789
527,3986.33,0.011866131391755918
528,3989.07,0.012189624287199316
529,3991.8199999999997,0.012544027631166233
530,3994.56,0.012459205526609632
531,3997.2999999999997,0.012469437422053031
532,4000.05,0.012411000766019947
533,4002.79,0.011232258661463348
534,4005.5400000000004,0.012794929005430262
535,4008.28,0.012899019900873662
536,4011.02,0.012071179796317062
537,4013.77,0.012633791140283977
538,4016.5099999999998,0.012500372035727377
539,4019.26,0.012534128379694292
540,4022.0,0.013048435275137691
541,4024.74,0.013182304170581093
542,4027.4900000000002,0.012771298514548007
543,4030.23,0.012139995409991406
544,4032.9700000000003,0.011991804305434806
545,4035.72,0.012425299649401722
546,4038.46,0.012316179544845122
547,4041.21,0.012651287888812039
548,4043.95,0.011585941784255437
549,4046.69,0.012085003679698836
550,4049.44,0.011628975023665753
551,4052.1800000000003,0.012100401919109152
552,4054.93,0.012638714263076067
553,4057.67,0.012143436158519465
554,4060.41,0.011631717053962867
555,4063.1600000000003,0.012417783397929781
556,4065.9,0.012700540293373183
557,4068.6499999999996,0.012436041637340097
558,4071.39,0.012984891532783496
559,4074.13,0.012850760428226898
560,4076.88,0.011780352772193813
561,4079.62,0.011755322667637211
562,4082.3700000000003,0.011850305011604126
563,4085.11,0.011941528907047527
564,4087.85,0.012116607802490926
565,4090.6,0.011519313146457844
566,4093.3399999999997,0.012074357041901242
567,4096.08,0.013833379937344641
568,4098.83,0.017613428281311558
569,4101.57,0.019695977176754958
