,lambda (Angstroms),Total Flux (erg/s/cm^2/Angstrom)
0,102.00000000000001,0.000614837963787389
1,103.9,0.0007196002964735851
2,104.712855,0.0007644343313801751
3,106.07000000000001,0.0007021824235013051
4,108.05,0.0006114314928638248
5,110.06,0.0005197250234136548
6,113.91999999999999,0.0003428957591809912
7,117.92999999999999,0.00015912151388488115
8,120.22644299999999,5.876780304121767e-05
9,120.95,5.885929067261294e-05
10,124.91,5.192581899378427e-05
11,126.94,4.818837373923319e-05
12,128.12,4.6139583542006444e-05
13,131.1,4.0623064399857606e-05
14,132.01,4.0482952044369206e-05
15,133.85,3.711019156733769e-05
16,136.97,3.3341262062805983e-05
17,138.038426,3.1426656173257914e-05
18,140.16,3.197657967051433e-05
19,143.09,5.30730398198318e-05
20,147.10000000000002,9.129965681599666e-05
21,150.87,9.478165673508434e-05
22,155.1,9.920046271856996e-05
23,158.489319,0.00010357327170615583
24,159.07999999999998,0.00010431155588812749
25,162.04,0.0001077067540202716
26,165.80999999999997,0.00011351097241830647
27,170.06,0.00011791339727020255
28,172.82999999999998,0.00012165448805602658
29,176.85,0.00012623805085711415
30,180.14,0.00012969964280128783
31,181.81,0.00013233625421367993
32,181.970086,0.0001325057081776845
33,186.04,0.0001374344991492532
34,190.81,0.00014401890940593393
35,193.91,0.00014856861250775992
36,197.98,0.00015363663174144764
37,202.12,0.00015924215007743467
38,204.93,0.00016319928546973503
39,208.929613,0.00016361521782725698
40,210.19,0.00016398368731010247
41,216.07999999999998,0.0001786776832847494
42,220.1,0.00018547982569868497
43,223.16,0.00018819500425257623
44,226.78,0.00019518875339149337
45,229.94,0.0002862800802641392
46,234.21,0.0004617739934749613
47,239.88329199999998,0.0005484250367320459
48,240.22000000000003,0.0005534292839281223
49,245.82,0.0005199466171933716
50,252.11999999999998,0.0005353461296167774
51,256.81,0.0004457411899764238
52,259.78000000000003,0.0005070519301188865
53,264.0,0.0005224628901866281
54,268.91,0.0005133903868531237
55,273.90999999999997,0.0005032571665542393
56,275.42287,0.0005003013820006072
57,279.0,0.0004946863322104608
58,284.19,0.00048797114895442824
59,290.14000000000004,0.0004593763795183216
60,296.21999999999997,0.0004605715900777286
61,301.03000000000003,0.00044536484991173324
62,308.04,0.0004437865865928916
63,316.227766,0.0004422243505800521
64,318.14000000000004,0.00044120252191022497
65,327.79999999999995,0.0004263663594637158
66,337.76,0.0004100798205437126
67,348.03000000000003,0.00039338915260109887
68,356.95,0.0003851453787892085
69,363.078055,0.0003842545127998148
70,366.10999999999996,0.0003845978667099636
71,374.64,0.00037789197455845834
72,385.13,0.00035864077881762706
73,395.01,0.00037685783011224926
74,405.15000000000003,0.00039159955644094054
75,413.63,0.00039517979601365273
76,416.86938299999997,0.000394571138154383
77,422.29,0.0003933068298677623
78,430.14,0.00039470597117184707
79,441.17999999999995,0.0004261540898975918
80,451.45,0.00044607383476293587
81,459.84,0.00044468500578730163
82,469.47,0.0004694787191323126
83,478.630092,0.0005121200500578062
84,480.41,0.0005201259349126611
85,490.47,0.0005112265662149176
86,499.59000000000003,0.0005989973283895277
87,506.53999999999996,0.0005891152150247843
88,512.4,0.0008561778097992597
89,519.53,0.0008790244437142784
90,530.41,0.000900127545957673
91,540.27,0.0008517498136157493
92,549.5408739999999,0.0009156704356046094
93,550.3199999999999,0.0009210892051629133
94,560.55,0.0011820910625596945
95,569.65,0.001364143920068073
96,580.25,0.0014176712376053047
97,589.67,0.0015599358065865052
98,600.64,0.0014832413842641877
99,610.4,0.0015275650841852615
100,620.3100000000001,0.001963948430109221
101,630.39,0.001999958841503117
102,630.957344,0.0020139302535665165
103,640.64,0.0022530352188622075
104,649.55,0.002332135833228901
105,658.58,0.002300774142738581
106,664.68,0.0025977588125070247
107,675.48,0.0028151133753757445
108,684.8799999999999,0.002634544161576297
109,694.4,0.0031288166429198354
110,705.69,0.002797019377622414
111,715.5,0.0035339112055615012
112,724.43596,0.003690580024266617
113,725.46,0.0037085166323968786
114,735.55,0.0038562202517821143
115,745.7800000000001,0.003945811987789147
116,754.42,0.004084125327877198
117,764.9100000000001,0.003901299851896139
118,775.55,0.00442592471515272
119,784.53,0.004335709624179422
120,795.45,0.004709091720679597
121,804.66,0.0049418707498706796
122,815.85,0.005115123856998607
123,825.3000000000001,0.005355493228969913
124,831.763771,0.004818405123298412
125,834.86,0.00456091385876416
126,844.52,0.005580981046499535
127,854.3000000000001,0.005657764410480068
128,864.1899999999999,0.005977907436018666
129,874.1999999999999,0.006172641637802423
130,884.3199999999999,0.006359241501144245
131,894.56,0.006536489540731225
132,904.9200000000001,0.006566052756563365
133,915.4,0.006985792148640666
134,926.0,0.021507782716963127
135,934.5699999999999,0.039306756803804965
136,945.39,0.06462581169524355
137,954.14,0.08402009704645313
138,954.992586,0.08489496244799151
139,965.1899999999999,0.09535926744706673
140,974.12,0.0259729989468539
141,985.4,0.08421337242026929
142,994.52,0.08421326246260513
143,1006.03,0.11152201417173732
144,1015.34,0.10723874275662182
145,1024.73,0.05450338072784261
146,1034.22,0.08324884793198375
147,1046.19,0.13594420611254956
148,1055.87,0.13284803185923932
149,1065.64,0.10999545691555745
150,1075.5,0.12542028128150387
151,1085.45,0.10432070495707861
152,1095.5,0.1289308278655737
153,1096.4782,0.1284254202474892
154,1105.6299999999999,0.12369680064371569
155,1115.8600000000001,0.12005185503978485
156,1126.19,0.10798240703503358
157,1134.0,0.12982721953095736
158,1144.49,0.11977116768489338
159,1155.08,0.12369501343800895
160,1165.77,0.1257062567903041
161,1173.8500000000001,0.09002292280401268
162,1184.71,0.12004810207491308
163,1195.67,0.09148590894499303
164,1203.96,0.0723387499169787
165,1215.1000000000001,0.049476142465581865
166,1226.3400000000001,0.0861721126133646
167,1234.84,0.11731809854362735
168,1246.27,0.12599082412985124
169,1254.9099999999999,0.12171711669896537
170,1258.92541,0.11595601464549149
171,1263.61,0.10923492829599904
172,1275.3,0.1310187482588705
173,1284.14,0.1350056633548315
174,1296.02,0.11281058364216366
175,1305.0,0.11151759897720094
176,1314.05,0.1313253144317764
177,1326.2099999999998,0.12570323519726115
178,1335.3999999999999,0.11464275089091291
179,1344.66,0.1289262667041028
180,1353.98,0.12512798261975394
181,1366.51,0.11438050401708326
182,1375.98,0.11703962018888761
183,1385.52,0.1173175364802301
184,1395.12,0.0993951628740339
185,1404.79,0.10054546938737581
186,1414.53,0.1089850860202559
187,1424.33,0.10898600275559725
188,1434.21,0.10923681962755363
189,1440.83,0.11306983093244749
190,1445.43977,0.1136116427491576
191,1447.4799999999998,0.11385144172864521
192,1454.1599999999999,0.11049385130272128
193,1464.24,0.10359726574983008
194,1474.3899999999999,0.10312198029726603
195,1484.6100000000001,0.10383939494502911
196,1494.9,0.10431570969311935
197,1505.26,0.09939570454153673
198,1512.21,0.09065043450258894
199,1515.69,0.09491554949028128
200,1526.2,0.09276084455368538
201,1533.2399999999998,0.08172668464372963
202,1543.87,0.08343824987912314
203,1554.5700000000002,0.08005058521484379
204,1565.3500000000001,0.08343737066522404
205,1576.2,0.08797446621593143
206,1583.4799999999998,0.09065017664995446
207,1594.45,0.09170182237265125
208,1605.5,0.08899453821000762
209,1616.63,0.0883820441620236
210,1624.1,0.08498772486836316
211,1635.3500000000001,0.08878936099236852
212,1646.69,0.08899382724536592
213,1654.29,0.08440360813802733
214,1659.58691,0.0867126436286633
215,1665.76,0.08940368034179702
216,1673.45,0.08135039083086859
217,1677.3,0.09022875112773796
218,1685.05,0.09170109224481267
219,1696.73,0.0869679744960943
220,1704.56,0.08401646645050655
221,1716.3700000000001,0.08005105006246169
222,1724.29,0.07913494295887868
223,1736.25,0.08305469814084172
224,1744.26,0.08097851197926345
225,1756.3500000000001,0.0842113785219
226,1764.4599999999998,0.07877157340699366
227,1776.6899999999998,0.07950102141497092
228,1784.89,0.08023600724206932
229,1793.13,0.0834393034878365
230,1805.56,0.08267454358915761
231,1813.8899999999999,0.07733519077692953
232,1826.47,0.07822973244825855
233,1834.8999999999999,0.07574922068270239
234,1843.36,0.07036937923114782
235,1856.14,0.0703694629958207
236,1864.71,0.07167723269560525
237,1873.32,0.07540108281405856
238,1886.3,0.0700467986720753
239,1895.01,0.06720265983720057
240,1903.76,0.0705322814209946
241,1905.46072,0.07020345037525141
242,1916.95,0.06798174421183167
243,1925.8,0.06597598481013045
244,1934.69,0.06782471486876052
245,1943.6200000000001,0.07004603438772186
246,1957.09,0.06552263265428507
247,1966.13,0.07004543068915749
248,1975.2,0.07151228831927836
249,1984.32,0.06798002527481338
250,1993.48,0.06612751169067967
251,2007.3,0.06735679523514171
252,2016.56,0.06567215030183624
253,2025.87,0.06751172469394488
254,2035.22,0.06432549854638482
255,2044.6100000000001,0.06567210185915606
256,2054.05,0.060867184497341416
257,2063.53,0.06199827659585807
258,2073.06,0.06643179801978882
259,2077.84,0.06358832352937845
260,2082.63,0.06521846890405089
261,2097.06,0.06214088421856515
262,2106.74,0.06257156361873827
263,2116.47,0.0628594323443255
264,2126.2400000000002,0.06314999053024403
265,2136.0499999999997,0.059892648176493854
266,2145.91,0.06030799514815779
267,2155.81,0.06185433158015303
268,2165.77,0.0598920272026452
269,2175.7599999999998,0.059480032420385846
270,2185.81,0.05839404682862343
271,2187.7616199999998,0.05873768955035787
272,2195.89,0.06016913793364569
273,2206.0299999999997,0.058664027008059616
274,2216.21,0.056412406512747364
275,2226.44,0.055001606555277395
276,2236.7200000000003,0.057196727135649696
277,2247.04,0.055256238146295815
278,2257.41,0.05338029969478422
279,2262.62,0.05399816573794956
280,2273.06,0.054624228039417154
281,2283.56,0.05525607098629548
282,2294.09,0.05244273425587917
283,2304.68,0.0527423581708736
284,2315.3199999999997,0.051007802623710304
285,2326.01,0.04316393761438928
286,2336.75,0.048260133142910534
287,2347.5299999999997,0.046997339101705615
288,2352.94,0.049239457296240075
289,2363.8,0.04643005411558279
290,2374.71,0.0471287314727678
291,2385.68,0.044439259475363535
292,2396.69,0.04626514790823309
293,2407.75,0.04495159687894493
294,2413.2999999999997,0.04539340657943776
295,2424.44,0.04704110641069723
296,2435.63,0.045496786779799
297,2446.87,0.04704068768674303
298,2452.5099999999998,0.04642204835535196
299,2463.83,0.04594260012284364
300,2475.21,0.04463978253574605
301,2486.63,0.045001115378922284
302,2492.36,0.04135025701564732
303,2503.8700000000003,0.045916960826939655
304,2511.88643,0.04328374688823155
305,2515.4300000000003,0.042119712305910675
306,2527.04,0.04187888397136257
307,2532.86,0.042096419741640786
308,2544.5499999999997,0.0414725110740381
309,2556.3,0.043377642156644455
310,2562.1899999999996,0.04241499763549989
311,2574.02,0.043957348385051664
312,2585.9,0.043405248926444304
313,2597.83,0.042861209259677825
314,2603.82,0.041621984322215026
315,2615.8399999999997,0.041100374280762124
316,2627.92,0.04220453398951828
317,2633.97,0.043015518802264535
318,2646.1299999999997,0.04530396817796609
319,2652.23,0.04585637278255322
320,2664.47,0.042651791825200194
321,2676.77,0.04379843061805621
322,2682.9399999999996,0.043825214931220574
323,2695.3300000000004,0.04200037334939017
324,2707.77,0.04263697155940065
325,2714.01,0.040932015581142234
326,2726.54,0.040605763416466295
327,2732.82,0.041769557271680594
328,2745.44,0.03796694473231823
329,2758.1099999999997,0.03854244198479675
330,2764.47,0.03946440550695645
331,2777.23,0.04052744238474854
332,2783.63,0.03872817574038094
333,2796.48,0.033464642243486616
334,2802.9300000000003,0.034982815390959904
335,2815.86,0.03966370156101098
336,2822.3500000000004,0.040800534541956965
337,2835.38,0.03946527029568981
338,2841.92,0.03859142306847666
339,2855.03,0.037329118489154905
340,2868.21,0.03986555361841038
341,2874.83,0.039891386058142644
342,2884.0315,0.03973626052454559
343,2888.1,0.03966768740398135
344,2894.75,0.03951091683739825
345,2908.1099999999997,0.04161727569912001
346,2928.27,0.0401904839814786
347,2948.5699999999997,0.03935270225190912
348,2969.01,0.039611220510411584
349,2989.5899999999997,0.03932585875698597
350,3010.31,0.03931317699163231
351,3031.18,0.03921068521349856
352,3052.19,0.039019543423436755
353,3073.3500000000004,0.03891815162059488
354,3087.53,0.038702700412452266
355,3108.93,0.038691978589162276
356,3130.48,0.03797637675309221
357,3152.18,0.037879414904242084
358,3166.73,0.03784438366457529
359,3188.68,0.03613296179442505
360,3210.79,0.036880639910642735
361,3233.04,0.03545763801493235
362,3247.97,0.03709444674288937
363,3270.48,0.03795116482502687
364,3293.15,0.03759638289353228
365,3308.35,0.037133201598485197
366,3311.31121,0.03714328148343823
367,3323.62,0.037185161298804385
368,3331.2799999999997,0.03738375882292625
369,3338.96,0.03548105631447402
370,3346.6600000000003,0.0372651137734477
371,3354.37,0.03594333121613433
372,3362.1099999999997,0.03490798860995982
373,3369.86,0.03574655598749827
374,3377.62,0.03471770334874966
375,3385.41,0.03563349066113991
376,3393.2200000000003,0.036912007940956074
377,3401.04,0.03850210520448518
378,3408.88,0.0356289724354402
379,3416.74,0.03573663963382112
380,3424.61,0.037448156815915006
381,3432.5099999999998,0.03834775394914773
382,3440.42,0.036902951066093426
383,3448.35,0.03478403815046502
384,3456.2999999999997,0.03496980520226251
385,3464.27,0.03365251222148592
386,3472.25,0.03608500922442228
387,3480.26,0.033935356178497494
388,3488.28,0.03531552311628566
389,3496.32,0.03485660002149974
390,3504.38,0.03553101689413971
391,3512.46,0.0348278537342056
392,3520.56,0.0359124005416974
393,3528.67,0.033310397332902135
394,3536.8100000000004,0.03563583407524574
395,3544.9599999999996,0.036409020801302296
396,3553.13,0.036689247494784756
397,3561.32,0.03604623415569313
398,3569.53,0.0335115507840274
399,3577.7599999999998,0.03307595737978758
400,3586.01,0.03153882394297366
401,3594.28,0.03350869047358565
402,3602.5600000000004,0.03584957698791059
403,3610.87,0.033714253453374386
404,3619.19,0.035005489902551146
405,3627.5299999999997,0.0361791063191538
406,3635.9,0.03363524268689532
407,3644.2799999999997,0.036569419038349794
408,3652.68,0.03439119535723017
409,3661.1,0.03773770164353645
410,3669.54,0.03682189789726864
411,3669.76,0.0377027075389536
412,3672.5,0.03236821307630268
413,3675.23,0.0390683986299388
414,3677.97,0.03341335416728788
415,3680.7000000000003,0.030868799720923996
416,3683.44,0.030739415258273072
417,3686.1699999999996,0.03319524081190919
418,3688.9100000000003,0.033310966349258266
419,3691.64,0.027234991902894388
420,3694.38,0.025095237440243463
421,3697.11,0.03323472299387959
422,3699.85,0.03325347853122866
423,3702.58,0.03661259408486479
424,3705.3199999999997,0.04004781962221386
425,3708.05,0.03842812517584998
426,3710.79,0.04208064071319906
427,3713.52,0.04296876626683518
428,3716.25,0.040518521820471304
429,3718.99,0.06278710735782038
430,3721.7200000000003,0.1302661429114565
431,3724.46,0.22337753844880556
432,3727.19,0.2888259340024417
433,3729.9300000000003,0.24683052953979076
434,3732.66,0.1534049250934269
435,3735.3999999999996,0.07161069063077596
436,3738.13,0.04356234618441209
437,3740.87,0.03366112172176117
438,3743.6000000000004,0.037356057275397286
439,3746.34,0.028804392812746365
440,3749.0699999999997,0.033480718366382486
441,3751.81,0.03136428390373156
442,3754.54,0.03662962945736768
443,3757.28,0.039860154994716755
444,3760.0099999999998,0.040755460548352884
445,3762.7500000000005,0.03240223608570196
446,3765.48,0.035963371639338076
447,3768.22,0.03357846717668716
448,3770.9500000000003,0.03866244273032327
449,3773.69,0.03968862826767235
450,3776.4199999999996,0.03414510382130847
451,3779.16,0.04051287935865755
452,3781.89,0.03624617491229367
453,3784.63,0.041057890449642746
454,3787.36,0.04615714600327887
455,3790.1,0.04619293154062794
456,3792.83,0.04015827709426407
457,3795.5699999999997,0.041206912631613135
458,3798.3,0.04072484818524926
459,3801.04,0.03708377372259834
460,3801.8939600000003,0.03785702841966207
461,3803.77,0.03955576991288744
462,3806.51,0.04867198638008297
463,3809.24,0.04278998286017196
464,3811.98,0.045127989327367495
465,3814.71,0.040083715807456476
466,3817.45,0.03807681227465202
467,3820.1800000000003,0.042322158754741004
468,3822.92,0.04607075522193654
469,3825.65,0.04154457170202552
470,3828.39,0.03658089816922106
471,3831.12,0.03615628464931005
472,3833.86,0.03673712111650558
473,3836.5899999999997,0.038135227596594566
474,3839.3300000000004,0.03221531406379011
475,3842.06,0.032911260543879085
476,3844.7999999999997,0.04222682701107463
477,3847.53,0.04233018349116361
478,3850.27,0.04698384995835914
479,3852.9999999999995,0.04007106643844813
480,3855.74,0.04402259290564367
481,3858.47,0.052383909385732653
482,3861.21,0.05709950585292819
483,3863.94,0.04801922233301718
484,3866.6800000000003,0.05565208880021272
485,3869.41,0.057347455280301704
486,3872.1499999999996,0.05326637174749724
487,3874.88,0.04754780822758622
488,3877.61,0.04394824470767521
489,3880.3500000000004,0.03511283117487074
490,3883.08,0.03567589765495972
491,3885.8199999999997,0.04285807412215527
492,3888.55,0.04310690060224425
493,3891.29,0.037378207069439784
494,3894.0200000000004,0.03570102354952877
495,3896.76,0.03748145001672431
496,3899.49,0.03555645649681329
497,3902.23,0.04315165296400883
498,3904.96,0.04412328944409781
499,3907.7000000000003,0.04334648591129335
500,3910.43,0.04227360239138233
501,3913.17,0.046296058858577877
502,3915.9,0.04493586533866686
503,3918.64,0.03924757180586239
504,3921.3700000000003,0.042552828285951375
505,3924.11,0.038428674753146916
506,3926.8399999999997,0.038215071233235906
507,3929.58,0.034091837700431435
508,3932.31,0.02907267418052042
509,3935.0499999999997,0.03044009064771596
510,3937.78,0.03669850712780494
511,3940.52,0.03873034359500048
512,3943.25,0.032712730075089465
513,3945.99,0.042864246542285
514,3948.72,0.05111243302237398
515,3951.46,0.044431959489569524
516,3954.19,0.044669105969658514
517,3956.9300000000003,0.04480996243685405
518,3959.66,0.03474823891694303
519,3962.3999999999996,0.04251762538413857
520,3965.13,0.03730813186422756
521,3967.87,0.04147066833142309
522,3970.6000000000004,0.04092933481151208
523,3973.34,0.03922592127870761
524,3976.0699999999997,0.03635004775879659
525,3978.81,0.03790151422599214
526,3981.54,0.03952770070608112
527,3984.28,0.039298637173276654
528,3987.01,0.04215493365336564
529,3989.7500000000005,0.03777040012056118
530,3992.48,0.04719212660065016
531,3995.22,0.0476041330678457
532,3997.9500000000003,0.044684289547934686
533,4000.69,0.04843107601513022
534,4003.4199999999996,0.045771632495219206
535,4006.1600000000003,0.040280888962414746
536,4008.89,0.04540886544250373
537,4011.63,0.05000596190969926
538,4014.36,0.048697848389788245
539,4017.1,0.043097554856983786
540,4019.83,0.04336972133707277
541,4022.5699999999997,0.04679237780426831
542,4025.3,0.05032661428435729
543,4028.04,0.044893320751552834
544,4030.77,0.04021539723164182
545,4033.51,0.04291525369883735
546,4036.24,0.04396948017892634
547,4038.98,0.04737058664612187
548,4041.71,0.04549230312621086
549,4044.44,0.04819867960629984
550,4047.1800000000003,0.045760766073495385
551,4049.91,0.043037552553584366
552,4052.6499999999996,0.0441562190207799
553,4055.38,0.04144915550086888
554,4058.12,0.038857721968064425
555,4060.85,0.04356279844815341
556,4063.59,0.048249694915348945
557,4066.3199999999997,0.04746055139543793
558,4069.06,0.046268927862633466
559,4071.79,0.04548966434272245
560,4074.53,0.04548416080991799
561,4077.2599999999998,0.045717717290006975
562,4079.9999999999995,0.04698183375720251
563,4082.73,0.046422560237291494
564,4085.47,0.04651581670448703
565,4088.2000000000003,0.04337957318457602
566,4090.94,0.041534289651771555
567,4093.6699999999996,0.04235057613186054
