,lambda (Angstroms),Total Flux (erg/s/cm^2/Angstrom)
0,101.99,3.1972670938261945
1,103.88,3.1882037473442084
2,104.712855,3.184209966521581
3,106.06,3.1502741016197033
4,108.03,3.1006482532693256
5,110.03999999999999,3.050015930169712
6,113.91,2.9525293167146214
7,117.91,2.851768189851012
8,120.22644299999999,2.7934240327593702
9,120.94000000000001,2.778356633998025
10,124.89999999999999,2.694731493388165
11,126.92999999999999,2.6518639498618217
12,128.1,2.627157286127772
13,131.08,2.564227426629594
14,131.99,2.545015046520889
15,134.14000000000001,2.499611933075156
16,136.95000000000002,2.4402876902027804
17,138.038426,2.4173055713786864
18,140.14000000000001,2.3855904430710972
19,143.07,2.341436317164862
20,147.08,2.281029509288068
21,150.85,2.2241438405380647
22,155.07999999999998,2.1603906244283797
23,158.489319,2.10898945774601
24,159.06,2.102487460746263
25,162.01,2.068881331508808
26,166.17,2.021497466805482
27,170.04,1.9774276843807537
28,172.8,1.9458775714189311
29,176.83,1.9001329667094593
30,180.12,1.8626744160419249
31,181.970086,1.8416162703085701
32,182.2,1.8396214838241036
33,186.02,1.8064944805687317
34,190.79,1.7651414367472336
35,193.89,1.7382720671630312
36,197.95,1.7030782870172696
37,202.09,1.6672032489080444
38,204.9,1.6428639931913964
39,208.929613,1.607893250653591
40,210.16,1.5998742835548994
41,216.04999999999998,1.5616778409509322
42,220.07,1.5355705604589205
43,223.13,1.5156629964575383
44,226.75,1.4922156129199557
45,229.91,1.4726353931799665
46,234.18,1.4474359183414367
47,239.88329199999998,1.411462393337318
48,240.19,1.4099883969970977
49,245.78,1.381887359203556
50,252.08999999999997,1.3509224619625464
51,256.77,1.3267679825540002
52,259.75,1.3127240450075328
53,263.97,1.2931835740793138
54,268.88,1.2691298164306042
55,273.87,1.24459771417662
56,275.42287,1.2366301137155695
57,278.97,1.222591274270905
58,284.15,1.2043904244582817
59,290.1,1.1822410604843219
60,296.18,1.1587719550285782
61,300.99,1.1406521402025704
62,308.0,1.115731454915603
63,316.227766,1.0848576869466688
64,318.09,1.0796945956307615
65,327.76,1.053781709511559
66,337.72,1.0257296362698567
67,347.98,0.9965231197979831
68,356.9,0.97971910175421
69,363.078055,0.9748987184313294
70,366.06,0.9747372698349435
71,374.59,0.9572082199819884
72,385.08,0.9263842506317536
73,394.96000000000004,0.9306828823495498
74,405.09000000000003,0.9297714565804481
75,413.57,0.9141538222248725
76,416.86938299999997,0.90441342025174
77,422.22999999999996,0.8913313858941128
78,430.08,0.8765787384235731
79,441.12,0.8761203800573619
80,451.39,0.8637184946659678
81,459.78,0.8382173493949071
82,470.49,0.8252251780179032
83,478.630092,0.8248868280539696
84,480.34,0.8254686946819633
85,490.4,0.7951947020729799
86,499.52000000000004,0.8105106988926689
87,506.46999999999997,0.7839985642870593
88,512.33,0.8504664582742717
89,519.46,0.8348270886716821
90,530.34,0.8089275399653463
91,540.1999999999999,0.7680420895752296
92,549.5408739999999,0.7544483404027683
93,550.24,0.7536417766824068
94,560.47,0.7888163411643339
95,569.58,0.8049075722914456
96,580.17,0.7909299510659917
97,589.59,0.7864267083895254
98,600.55,0.7399799990759302
99,610.3100000000001,0.7282016754536043
100,620.23,0.765811813739109
101,630.3100000000001,0.7436659139324446
102,630.957344,0.7443567995353368
103,640.55,0.7565236668066742
104,649.46,0.7411771607723928
105,658.49,0.7146149570137441
106,664.59,0.7370158560250666
107,675.39,0.7412274608319983
108,684.78,0.6966274639002472
109,694.3100000000001,0.7245414862900674
110,705.5899999999999,0.6667360001995295
111,715.41,0.7158631697554618
112,724.43596,0.710433152541071
113,725.36,0.7100604088052487
114,735.45,0.7048492989959407
115,745.68,0.6892417586243629
116,754.31,0.6822049103930123
117,764.81,0.6504040182227713
118,775.45,0.6690803954902601
119,784.43,0.6434539208532349
120,795.3399999999999,0.6535756463220606
121,804.55,0.6524651571898776
122,815.7399999999999,0.6460769215341634
123,825.1899999999999,0.6438451085809465
124,831.763771,0.6039948356676119
125,834.74,0.5863820001885104
126,844.41,0.6268660543272875
127,854.1899999999999,0.6176219651315522
128,864.08,0.6210513326013045
129,874.08,0.6162724567365445
130,884.1999999999999,0.6114366699614074
131,894.4399999999999,0.6065491722758932
132,904.8000000000001,0.5960271636800019
133,915.28,0.5831870441737333
134,925.88,0.8370061137570877
135,934.4399999999999,1.0967990688168532
136,945.26,1.333824651731183
137,954.01,1.4897425228495178
138,954.992586,1.4952913619383856
139,965.06,1.5522366560852847
140,973.99,0.8039075303669118
141,985.26,1.256288262746972
142,994.38,1.2399594045665059
143,1005.89,1.4838355275207644
144,1015.2,1.5094032368782055
145,1024.6,1.1406455677009708
146,1034.08,1.3285140953818024
147,1046.05,1.7250011502699407
148,1055.73,1.6607453700959374
149,1065.5,1.4174040113872586
150,1075.3600000000001,1.531299074143904
151,1085.31,1.3544735583658738
152,1095.35,1.548602464053168
153,1096.4782,1.5412526060367393
154,1105.48,1.4832900327093423
155,1115.71,1.4394457956056512
156,1126.04,1.287733372411015
157,1133.84,1.4901358573172914
158,1144.3300000000002,1.4112967363771427
159,1154.92,1.4155194293460491
160,1165.61,1.3910899362240101
161,1173.69,1.0161466000756403
162,1184.55,1.3221170905989945
163,1195.51,1.1309369950314034
164,1203.79,0.9839033867011433
165,1214.93,0.8557197561698511
166,1226.17,1.0987811395476137
167,1234.6699999999998,1.297735021817274
168,1246.1,1.3306235516222409
169,1254.74,1.283657873364578
170,1258.92541,1.258818598731208
171,1266.35,1.2154844210992395
172,1275.12,1.360404311133081
173,1283.96,1.379114941680306
174,1295.8400000000001,1.1861064030944495
175,1304.83,1.1816987775989234
176,1313.8700000000001,1.3329966667558137
177,1326.03,1.2755081902234893
178,1335.22,1.1853197233376291
179,1344.47,1.2856182340346685
180,1353.79,1.2472088852450909
181,1366.32,1.153695037140648
182,1375.79,1.1557095323083197
183,1385.33,1.1425939679893744
184,1394.93,0.9269220812533288
185,1404.6,0.9130924350306662
186,1414.3400000000001,1.0594776293213866
187,1424.14,1.0434258011950068
188,1434.01,1.0606206135820098
189,1440.6299999999999,1.0770361735619451
190,1445.43977,1.0773199491033203
191,1447.28,1.0775639570449518
192,1453.96,1.042621320042451
193,1464.04,0.9843429079189171
194,1474.19,0.986265188072303
195,1484.3999999999999,0.991887061605906
196,1494.6899999999998,0.9846181263131317
197,1505.06,0.9365773821939801
198,1512.0,0.8662560165057533
199,1515.4899999999998,0.8961123314550458
200,1525.9900000000002,0.878140572993031
201,1536.57,0.7756020057046392
202,1543.66,0.7450334234669551
203,1554.36,0.7328935429389974
204,1565.1399999999999,0.7803854535846625
205,1575.9899999999998,0.8143400565072474
206,1583.26,0.8310205544102144
207,1594.24,0.8306630429899362
208,1605.29,0.813786023846578
209,1616.41,0.8030705969801398
210,1623.8700000000001,0.7830530739204609
211,1635.1299999999999,0.8101950316078623
212,1646.4599999999998,0.8082751815721838
213,1654.06,0.7807666430663446
214,1659.58691,0.792454219196316
215,1665.53,0.8053247832556709
216,1673.22,0.7462451764887604
217,1677.07,0.8190050773921929
218,1684.82,0.8211224220679335
219,1696.49,0.7840472276635325
220,1704.32,0.7631970409294743
221,1716.1399999999999,0.7238046751317005
222,1724.06,0.7124430655616185
223,1736.01,0.7401206112229217
224,1744.02,0.7270811788168162
225,1756.11,0.7431753445109714
226,1764.22,0.7102414978426174
227,1776.45,0.6985365835696247
228,1784.65,0.7091055140652469
229,1797.02,0.7234315198251065
230,1805.31,0.7211130274847051
231,1813.65,0.6729019780131793
232,1826.22,0.6812703552485417
233,1834.6499999999999,0.6631186829409925
234,1843.1200000000001,0.6237749449285437
235,1855.89,0.6200412936394092
236,1864.46,0.626870541364712
237,1873.06,0.6525449148113402
238,1886.05,0.6076315521452589
239,1894.75,0.5841969113296386
240,1903.5,0.6110361133828941
241,1905.46072,0.6072800203221518
242,1916.69,0.586125882711102
243,1925.54,0.5688539916446271
244,1934.43,0.5909212081891514
245,1943.3600000000001,0.5976571323446747
246,1956.83,0.5581017703485825
247,1965.8600000000001,0.5924479635316032
248,1974.93,0.6036375643256229
249,1984.05,0.5760584996333913
250,1993.21,0.5629415425521587
251,2007.02,0.575105995249558
252,2016.29,0.5609291340985726
253,2025.59,0.5766187536558364
254,2034.94,0.5443857077268489
255,2044.3400000000001,0.5514456963116102
256,2053.77,0.5080603656046208
257,2063.25,0.52000036941138
258,2072.7799999999997,0.555996907731888
259,2077.5499999999997,0.5252998403435168
260,2087.1400000000003,0.5388464400805233
261,2096.78,0.5152201743312785
262,2106.46,0.5199552161930326
263,2116.18,0.5219240656657859
264,2125.9500000000003,0.5220217496522876
265,2135.7599999999998,0.5036005412497886
266,2145.62,0.4982403673610382
267,2155.52,0.5091757010832868
268,2165.47,0.4974078693192841
269,2175.47,0.49385187206903014
270,2185.5099999999998,0.48072588242977515
271,2187.7616199999998,0.48306485476954797
272,2195.6,0.49142868671266937
273,2205.73,0.48291731499534163
274,2215.9100000000003,0.4686665898144535
275,2226.14,0.45814571117000513
276,2236.41,0.4649412697547084
277,2246.7400000000002,0.4552943841831392
278,2257.11,0.4427182358407218
279,2267.53,0.447634834034744
280,2272.75,0.4481289924390431
281,2283.24,0.4483081557840808
282,2293.78,0.4267386656655582
283,2304.37,0.4283949220834752
284,2315.01,0.4158659250378318
285,2325.69,0.3668227652213402
286,2336.43,0.3996514612485762
287,2347.21,0.3962491945049639
288,2352.62,0.4007952297477335
289,2363.48,0.3884887374624246
290,2374.3900000000003,0.3865117917135554
291,2385.35,0.37404669250112577
292,2396.3599999999997,0.3818962398251359
293,2407.42,0.37211073368558556
294,2412.9700000000003,0.3737316992303862
295,2424.1099999999997,0.37697366754913936
296,2435.3,0.36603018240433205
297,2446.54,0.37241594379596454
298,2452.18,0.3675819931063566
299,2463.5,0.36438012895629246
300,2474.8700000000003,0.3568610113426679
301,2486.29,0.3574194402654831
302,2497.77,0.3226264250320258
303,2503.5299999999997,0.353332986029873
304,2511.88643,0.34126532432464174
305,2515.08,0.33670152361518285
306,2520.8799999999997,0.3464110562275121
307,2526.6899999999996,0.3390899487236557
308,2532.52,0.33883196098742807
309,2544.21,0.3314506651664158
310,2555.9500000000003,0.33665156876447533
311,2567.7499999999995,0.3326983316654211
312,2573.67,0.33763798288352265
313,2585.5499999999997,0.3342144248549833
314,2597.4799999999996,0.3308404662455157
315,2603.47,0.3249443366503178
316,2615.49,0.3210978169951795
317,2627.56,0.3222337967591129
318,2633.62,0.32196738635061556
319,2645.77,0.3258996451850639
320,2657.9799999999996,0.3236961633223985
321,2664.11,0.3119588721006016
322,2676.4100000000003,0.31410102919226535
323,2682.58,0.31222967750572594
324,2694.96,0.3048189136679046
325,2707.3999999999996,0.3037715091329694
326,2713.64,0.29888057663313056
327,2726.17,0.2983275110525246
328,2732.4500000000003,0.30010261808794314
329,2745.06,0.28709833157785214
330,2757.73,0.2855906043706472
331,2764.09,0.2862771904765807
332,2776.8500000000004,0.290115002223705
333,2783.25,0.2859168278648959
334,2796.1000000000004,0.26593557856634953
335,2802.54,0.2719362437427979
336,2815.48,0.2825822333985808
337,2821.97,0.2813463979941009
338,2834.9999999999995,0.272339626604213
339,2848.08,0.2703981546333969
340,2854.65,0.26829219829943196
341,2867.8199999999997,0.2709129652829451
342,2874.43,0.2674386484842376
343,2884.0315,0.2663653106347001
344,2887.7000000000003,0.2660026437666188
345,2894.36,0.26267873248168805
346,2907.72,0.26449576660080587
347,2927.8700000000003,0.25945434867417594
348,2948.17,0.2549400683312188
349,2968.6099999999997,0.25217113639968947
350,2989.1800000000003,0.2485993637073432
351,3009.8999999999996,0.24548812859866967
352,3030.77,0.24280553107366887
353,3051.77,0.23893779278785107
354,3072.93,0.23551258125795088
355,3087.11,0.23235612750114631
356,3108.5099999999998,0.2290127561051225
357,3130.06,0.22496292229277137
358,3151.76,0.222812226064093
359,3173.6,0.21885517824684253
360,3188.2500000000005,0.21377281558554584
361,3210.3500000000004,0.2123945862466614
362,3232.6,0.20860009449144973
363,3247.52,0.20711813948076396
364,3270.0299999999997,0.20440036620391835
365,3292.7000000000003,0.20170491968299026
366,3307.8999999999996,0.19926746149516028
367,3311.31121,0.19989947717373702
368,3323.1699999999996,0.20220414297282024
369,3330.8300000000004,0.20038049684271836
370,3338.51,0.19662991038329503
371,3346.2,0.19678550375921103
372,3353.92,0.19280233664114488
373,3361.65,0.19357854935841803
374,3369.4,0.19028972174636977
375,3377.17,0.1888919538050001
376,3384.95,0.1933892656989697
377,3392.75,0.1925890372636179
378,3400.5800000000004,0.19464134833428398
379,3408.41,0.1873000594049501
380,3416.27,0.18896330998163402
381,3424.15,0.19034122022899658
382,3432.04,0.1904805103116984
383,3439.95,0.18999866006507884
384,3447.8799999999997,0.18583576948913785
385,3455.83,0.18179233858387542
386,3463.8,0.1804500673492916
387,3471.7799999999997,0.18115307595004707
388,3479.79,0.18039482405682042
389,3487.81,0.17905975199893304
390,3495.85,0.18151123961172427
391,3503.91,0.17727378689519407
392,3511.98,0.17596331401400317
393,3520.08,0.17692288063883016
394,3528.19,0.17703302709899643
395,3536.33,0.17771671306518058
396,3544.48,0.177252678866704
397,3552.65,0.17765080433890607
398,3560.84,0.17660908948178666
399,3569.0499999999997,0.17387653429534586
400,3577.2799999999997,0.16820763877958364
401,3585.52,0.1672266230991607
402,3593.79,0.16704574692475566
403,3602.07,0.1684752505856899
404,3610.38,0.16829529375264202
405,3618.7000000000003,0.16811401675493343
406,3627.0400000000004,0.17177699942790345
407,3635.3999999999996,0.16938274177155202
408,3643.7799999999997,0.16920004378587922
409,3652.18,0.16684710547088497
410,3659.79,0.1542619601640866
411,3662.5200000000004,0.16016475521171344
412,3665.25,0.16370425025934035
413,3667.98,0.16703884530696722
414,3670.7000000000003,0.16762446051925478
415,3673.43,0.17078075556688166
416,3676.16,0.16185275061450852
417,3678.8900000000003,0.14817341566213538
418,3681.62,0.1514646407097623
419,3684.35,0.16902823575738915
420,3687.07,0.1406573609696767
421,3689.7999999999997,0.1451618660173036
422,3692.53,0.14578830106493046
423,3695.26,0.16167543611255733
424,3697.99,0.1452346111601842
425,3700.7200000000003,0.16359152620781106
426,3703.44,0.14599157142009866
427,3706.1699999999996,0.14370151646772553
428,3708.9,0.16275843151535238
429,3711.63,0.16204662656297925
430,3714.3599999999997,0.17742702161060614
431,3717.08,0.1808591368228937
432,3719.81,0.22417613187052057
433,3722.54,0.34137492691814747
434,3725.27,0.5248359219657743
435,3728.0,0.6021536170134012
436,3730.73,0.525214812061028
437,3733.45,0.34735152727331564
438,3736.18,0.22528232232094253
439,3738.91,0.1816965173685694
440,3741.64,0.18586931241619625
441,3744.3700000000003,0.18373420746382313
442,3747.1,0.16683840251145
443,3749.8199999999997,0.16562411772373759
444,3752.55,0.17427501277136442
445,3755.2799999999997,0.1805044078189913
446,3758.0099999999998,0.1790926028666182
447,3760.7400000000002,0.18307879791424506
448,3763.47,0.1694027929618719
449,3766.1899999999996,0.1596224081741595
450,3768.92,0.15520080322178637
451,3771.6499999999996,0.15089419826941325
452,3774.38,0.16496809331704013
453,3777.11,0.174910488364667
454,3779.83,0.17529620357695455
455,3782.56,0.17981899862458142
456,3785.29,0.1867399936722083
457,3788.0200000000004,0.19233108871983517
458,3790.75,0.18276978376746203
459,3793.48,0.17433507881508892
460,3796.2000000000003,0.17429739402737648
461,3798.93,0.15925988907500335
462,3801.66,0.16705748412263025
463,3801.8939600000003,0.16659171475901866
464,3804.3900000000003,0.1616385174614813
465,3807.12,0.16888694473577204
466,3809.8500000000004,0.18900447201006276
467,3812.57,0.1849028555947041
468,3815.2999999999997,0.18068358286899483
469,3818.03,0.18931691014328558
470,3820.76,0.1972086374175763
471,3823.49,0.16936426469186705
472,3826.2200000000003,0.1628085919661578
473,3828.94,0.1717010755507991
474,3831.6699999999996,0.16820680282508985
475,3834.4,0.15648983009938058
476,3837.13,0.16897785737367133
477,3839.86,0.17041668464796206
478,3842.58,0.1621134682326034
479,3845.31,0.17524489550689412
480,3848.04,0.18980112278118486
481,3850.77,0.19604465005547558
482,3853.5000000000005,0.19091877732976634
483,3856.23,0.19276590460405707
484,3858.95,0.19865528818869838
485,3861.6800000000003,0.19930411546298912
486,3864.41,0.23027424273727987
487,3867.14,0.2604461700115706
488,3869.8700000000003,0.26573619728586134
489,3872.6,0.2399784245601521
490,3875.3199999999997,0.2068555081447934
491,3878.05,0.17803783541908413
492,3880.7799999999997,0.16735406269337488
493,3883.51,0.16919448996766562
494,3886.2400000000002,0.19306351724195636
495,3888.96,0.19038510082659765
496,3891.69,0.1712385281008884
497,3894.42,0.16872255537517916
498,3897.1499999999996,0.1686630826494699
499,3899.88,0.1739133099237606
500,3902.61,0.17252723719805135
501,3905.3300000000004,0.18004812078269267
502,3908.06,0.18099364805698342
503,3910.79,0.18628377533127416
504,3913.52,0.1691405026055649
505,3916.25,0.16768442987985563
506,3918.98,0.16786995715414638
507,3921.7000000000003,0.18134374073878767
508,3924.43,0.17580306801307843
509,3927.1600000000003,0.17470199528736916
510,3929.89,0.1702678225616599
511,3932.62,0.16841344983595063
512,3935.3500000000004,0.16549917711024137
513,3938.07,0.1725783606948827
514,3940.7999999999997,0.17675868796917343
515,3943.53,0.17555761524346417
516,3946.2599999999998,0.1758415425177549
517,3948.99,0.17197226979204566
518,3951.71,0.16690895337668696
519,3954.44,0.1600282806509777
520,3957.17,0.16696670792526844
521,3959.9,0.16950873519955917
522,3962.6299999999997,0.17695716247384993
523,3965.36,0.17869588974814066
524,3968.08,0.18558017333278198
525,3970.8100000000004,0.19013540060707274
526,3973.54,0.17410202788136345
527,3976.27,0.16239835515565418
528,3978.9999999999995,0.16320048242994495
529,3981.73,0.17511690970423566
530,3984.45,0.17349839328887698
531,3987.1800000000003,0.16910082056316772
532,3989.91,0.17164624783745847
533,3992.64,0.17639647511174922
534,3995.37,0.17566870238603993
535,3998.1,0.17003462966033067
536,4000.8199999999997,0.169269413244972
537,4003.55,0.1706815405192627
538,4006.2799999999997,0.17608666779355348
539,4009.01,0.1753505950678442
540,4011.74,0.17861432234213495
541,4014.46,0.18692010592677627
542,4017.19,0.176381333201067
543,4019.92,0.17277876047535773
544,4022.6499999999996,0.1812653877496485
545,4025.38,0.1780195150239392
546,4028.1099999999997,0.17373204229822997
547,4030.8300000000004,0.17144012588287127
548,4033.56,0.17439885315716203
549,4036.29,0.18128898043145275
550,4039.02,0.1884640077057435
551,4041.75,0.17996683498003424
552,4044.4799999999996,0.16721316225432498
553,4047.2000000000003,0.17310414583896627
554,4049.93,0.177534373113257
555,4052.6600000000003,0.17046540038754776
556,4055.39,0.1673095276618385
557,4058.12,0.16766835493612922
558,4060.85,0.17456348221041995
559,4063.57,0.1677385657950613
560,4066.2999999999997,0.16566089306935203
561,4069.03,0.16565312034364277
562,4071.7599999999998,0.1816476476179335
563,4074.4900000000002,0.18244307489222422
564,4077.21,0.16002925847686555
565,4079.94,0.1631862857511563
566,4082.67,0.16242521302544705
567,4085.4,0.1656772402997378
568,4088.1299999999997,0.16330456757402853
569,4090.86,0.15976199484831927
570,4093.58,0.1619898784329606
571,4096.31,0.1715381057072513
572,4099.04,0.18475613298154203
573,4101.77,0.19044966025583276
574,4104.5,0.19384998753012353
575,4107.2300000000005,0.17338021480441423
576,4109.95,0.1668802983890556
577,4112.68,0.16226942566334632
578,4115.41,0.15787865293763706
579,4118.14,0.1536044802119278
580,4120.87,0.17621520748621852
581,4123.59,0.16257239107085986
582,4126.32,0.16968581834515062
583,4129.05,0.15885214561944133
584,4131.78,0.15732447289373208
585,4134.51,0.1608447001680228
586,4137.24,0.15570732744231355
587,4139.96,0.16558801102695486
588,4142.69,0.1594722383012456
