,lambda (Angstroms),Total Flux (erg/s/cm^2/Angstrom)
0,100.00999999999999,6.948337776656694e-05
1,102.10000000000001,8.535007121313645e-05
2,104.0,9.977433798848363e-05
3,104.712855,0.00010518613309337492
4,105.93,9.747627363873828e-05
5,107.89999999999999,8.499754422673036e-05
6,109.91000000000001,7.226543964913437e-05
7,114.03,4.616779245856192e-05
8,118.04,2.0766927225585877e-05
9,120.22644299999999,6.917166224134011e-06
10,121.07,6.669918453692924e-06
11,125.03999999999999,5.50630547412337e-06
12,127.07,4.911309592322877e-06
13,127.95,4.653380455389774e-06
14,130.93,3.779938648889956e-06
15,132.14,3.4252863442059498e-06
16,133.98,2.8859804903829205e-06
17,137.1,1.9715059511846546e-06
18,138.038426,1.696452761113532e-06
19,139.97,1.6764601147664777e-06
20,142.9,1.6461379786199723e-06
21,146.91,1.6046412082914791e-06
22,151.02,1.5621096386405791e-06
23,154.9,1.5219637066112146e-06
24,158.489319,1.484829703580478e-06
25,158.86999999999998,1.4787772152106107e-06
26,161.82,1.4318795258140293e-06
27,165.97,1.3659099012073138e-06
28,169.84,1.30440211742563e-06
29,173.0,1.2541832972002753e-06
30,177.03,1.1901513611185733e-06
31,179.89999999999998,1.144561684512002e-06
32,181.970086,1.1116803629209637e-06
33,181.99,1.111782706836012e-06
34,185.79999999999998,1.1313833286803663e-06
35,191.0,1.1581497553947078e-06
36,194.11,1.1741768865448236e-06
37,198.17000000000002,1.195122491051406e-06
38,201.85000000000002,1.2141511634554015e-06
39,205.13,1.231102678519832e-06
40,208.929613,1.2507829360836141e-06
41,209.91,1.2813155207330067e-06
42,215.79000000000002,1.464557588779721e-06
43,219.81,1.589862237413698e-06
44,222.86,1.6849576569668406e-06
45,227.01,1.8143929368178365e-06
46,230.16,1.9192849013071474e-06
47,233.9,2.040217560319853e-06
48,239.88329199999998,2.2309864552839864e-06
49,239.9,2.2305720515924947e-06
50,246.06,2.0752939146025327e-06
51,251.79,1.9322651546589473e-06
52,257.06,1.796630287834742e-06
53,260.04,1.7249854045831034e-06
54,264.26,1.620330580314007e-06
55,269.18,1.4974662343415038e-06
56,274.18,1.3727589521743263e-06
57,275.42287,1.3416966863908827e-06
58,279.28000000000003,1.4494953162037805e-06
59,283.82,1.5775006956467463e-06
60,289.76,1.7432061089267513e-06
61,295.83000000000004,1.913946729063054e-06
62,301.33,2.065572389137131e-06
63,308.35,2.2644420393771385e-06
64,316.227766,2.4893321263867695e-06
65,317.72,2.4612609426034576e-06
66,328.12,2.262862262662172e-06
67,338.09,2.0737145930261505e-06
68,348.37,1.8794217120072626e-06
69,357.29999999999995,1.7144026463653705e-06
70,363.078055,1.6108107761788273e-06
71,365.63,1.6560349827404569e-06
72,375.01,1.8176146078077487e-06
73,384.63,1.986934327333052e-06
74,395.4,2.1880159661363276e-06
75,404.60999999999996,2.3659950909625272e-06
76,414.04,2.551173969041906e-06
77,416.86938299999997,2.6077803174141986e-06
78,421.73,2.6746410234635795e-06
79,429.57,2.7916062003216194e-06
80,440.59000000000003,2.9762295343746306e-06
81,450.86,3.1579905266363752e-06
82,460.3,3.330447792649118e-06
83,469.94,3.5530657698061976e-06
84,478.630092,3.775073676996142e-06
85,479.78,3.779532763372628e-06
86,489.82,3.834733802997871e-06
87,500.08,3.961966391897771e-06
88,505.87,8.02026153417169e-06
89,511.73,2.239514213757846e-05
90,520.04,2.299252388063481e-05
91,529.7099999999999,2.4144666582843584e-05
92,539.56,2.3574876470822537e-05
93,549.5408739999999,2.9535425639049655e-05
94,549.59,2.9565170906468454e-05
95,559.8100000000001,3.540094836599379e-05
96,570.21,3.961011560464971e-05
97,579.48,3.9312004229874743e-05
98,590.25,4.6116231014521305e-05
99,599.84,4.77380792470896e-05
100,609.59,5.499077728332952e-05
101,619.49,6.34001051355116e-05
102,629.56,6.822628277909478e-05
103,630.957344,6.875882074645129e-05
104,639.79,7.220798987405535e-05
105,650.1899999999999,7.97769013973726e-05
106,657.72,8.42467638176206e-05
107,665.3299999999999,9.058976771112487e-05
108,674.59,9.632797074054006e-05
109,685.5500000000001,9.792283257665133e-05
110,695.08,0.00011605818182830649
111,704.75,0.00011506403615816012
112,716.21,0.0001361079447021232
113,724.43596,0.0001424388932870165
114,726.17,0.00014376943194743463
115,734.5799999999999,0.00015218353959280955
116,744.8000000000001,0.00016554950155900833
117,755.16,0.00017605459314118244
118,765.66,0.00018723391433933184
119,774.53,0.00020139993358005425
120,785.3000000000001,0.00021814058332329897
121,794.4,0.00022989770836169513
122,805.45,0.00024175071733689048
123,814.78,0.0002536363481729604
124,824.2099999999999,0.0002741104858775841
125,831.763771,0.0002637456174096554
126,835.6800000000001,0.00025833376693364763
127,845.35,0.00029889167581948227
128,855.1400000000001,0.00031423808192003244
129,865.04,0.00033491975213407197
130,875.0600000000001,0.00035538571956282713
131,885.19,0.00037797935110507163
132,895.4399999999999,0.0003983242798620318
133,905.81,0.00041218830583370755
134,914.19,0.0005813440446613491
135,924.7800000000001,0.0032824711988600035
136,935.4899999999999,0.006730613550273374
137,944.14,0.012912432682834124
138,954.992586,0.016452217695064834
139,955.0799999999999,0.016480729987933616
140,963.9100000000001,0.020229290651145912
141,975.0699999999999,0.006777325850630537
142,984.1,0.021133599302364064
143,995.49,0.020557767258648104
144,1004.7,0.023766847520050736
145,1014.0,0.022437527686287925
146,1025.74,0.010789665272484119
147,1035.23,0.019860035237816473
148,1044.81,0.027540315107983382
149,1054.48,0.027161454882984847
150,1064.24,0.024545674562820863
151,1074.08,0.026852074158065373
152,1084.02,0.024376793647570495
153,1094.05,0.027730873041910173
154,1096.4782,0.027490200343121125
155,1104.17,0.02672780501870871
156,1114.3899999999999,0.026789581196116144
157,1124.7,0.024829297075672965
158,1135.11,0.027540112624284654
159,1145.61,0.02617966787504572
160,1156.21,0.027037542794861657
161,1164.23,0.027413546253062013
162,1175.0,0.021926530610271226
163,1185.87,0.0269132946365353
164,1194.09,0.024545407432845393
165,1205.1399999999999,0.02079510086340823
166,1216.29,0.011614093963025937
167,1224.72,0.022437096064351254
168,1236.05,0.026606188568267717
169,1244.6200000000001,0.027349040206269846
170,1256.14,0.02709905208139056
171,1258.92541,0.026921413014245034
172,1264.85,0.02654359425785496
173,1273.6100000000001,0.027987676319951166
174,1285.3999999999999,0.028051729095306687
175,1294.31,0.025700491192712765
176,1306.28,0.026119904010440117
177,1315.3400000000001,0.027923256143156064
178,1324.46,0.027160518289995952
179,1333.64,0.02617943045095979
180,1345.98,0.02728687335578482
181,1355.3100000000002,0.027286855552058523
182,1364.7,0.026360527762456176
183,1374.16,0.026360489989331763
184,1383.6899999999998,0.02648195223268529
185,1396.49,0.023602595245793907
186,1406.1699999999998,0.0242069275244573
187,1415.9199999999998,0.02576008981959863
188,1425.73,0.02546463212886391
189,1435.61,0.025819874454607126
190,1442.24,0.02611986601530323
191,1445.43977,0.02594564745960732
192,1445.57,0.02593855679425553
193,1455.59,0.025700258773887465
194,1465.68,0.025000150767349166
195,1475.84,0.02500006277464063
196,1486.07,0.024942804795761858
197,1496.37,0.024828696830712857
198,1503.27,0.02404271819393245
199,1513.69,0.022854120252591613
200,1517.1799999999998,0.023386380942104133
201,1524.19,0.023440052327056215
202,1534.75,0.0217750244133749
203,1545.39,0.021825466515499038
204,1556.1,0.02132866863145293
205,1563.28,0.022128970049991585
206,1574.12,0.022854012191629327
207,1585.03,0.022959484347096836
208,1596.02,0.023065366518369792
209,1603.39,0.022592077974446376
210,1614.5,0.022436910169427494
211,1625.6899999999998,0.022333902380214057
212,1633.1899999999998,0.022801623861974492
213,1644.5100000000002,0.022540396098444902
214,1655.9099999999999,0.022437138350720757
215,1659.58691,0.022662838867722822
216,1663.56,0.022906724809545045
217,1671.24,0.022179975890268513
218,1675.09,0.02306525144505827
219,1686.6999999999998,0.022959378195995694
220,1694.4899999999998,0.022436769435427443
221,1706.23,0.022027646373929195
222,1714.1100000000001,0.02147645774321317
223,1725.99,0.021328864883707277
224,1733.95,0.021825636368415453
225,1745.97,0.02147673371090192
226,1754.03,0.021775285339890347
227,1766.19,0.021133362884369167
228,1774.3400000000001,0.02108482464320982
229,1786.6399999999999,0.021230932389680997
230,1794.89,0.021476594292801906
231,1803.17,0.02152619623920689
232,1815.67,0.020652464274238575
233,1824.0500000000002,0.020891446364923814
234,1836.7,0.020604704616375875
235,1845.1799999999998,0.019587056851341367
236,1853.69,0.019452259129590935
237,1866.54,0.019722927669603506
238,1875.1599999999999,0.02022894010656135
239,1883.81,0.019053582586803276
240,1896.87,0.018364441429804375
241,1905.46072,0.01925645691785029
242,1905.63,0.019274033509691965
243,1914.42,0.018619837162150876
244,1923.26,0.018237950721620363
245,1936.59,0.0187920459306394
246,1945.53,0.01914129930413003
247,1954.5100000000002,0.018112172603229126
248,1968.0600000000002,0.018922107403094683
249,1977.14,0.019362990516214925
250,1986.27,0.018576643536345742
251,1995.44,0.018237626482085014
252,2004.65,0.01857658935343275
253,2013.9,0.018534112150388943
254,2023.19,0.018878554872953597
255,2037.2199999999998,0.018112138780120662
256,2046.6200000000001,0.018195721298108578
257,2056.07,0.017456953723107068
258,2065.56,0.017740646073714016
259,2075.09,0.018491428349929426
260,2079.88,0.017740599441542413
261,2084.67,0.017987550533155407
262,2094.29,0.017456972641989848
263,2103.96,0.017781394657834862
264,2113.67,0.017781356599288336
265,2123.43,0.017904698447752384
266,2133.23,0.017618310221824893
267,2143.08,0.017336681902907974
268,2152.97,0.017577713509599514
269,2162.9100000000003,0.017416625023301626
270,2172.89,0.017296676462612202
271,2182.92,0.017138197808933348
272,2187.7616199999998,0.017195154690655166
273,2193.0,0.01725679657199021
274,2203.12,0.01705944157788041
275,2213.29,0.016864316657910376
276,2223.5,0.016632881797252162
277,2233.77,0.016709657025561677
278,2244.08,0.016594572313183013
279,2254.44,0.016366947674944125
280,2264.8399999999997,0.016404553096017054
281,2275.3,0.016366888606057707
282,2285.8,0.016367004175410184
283,2296.35,0.015883369818902433
284,2306.9500000000003,0.016023085536534455
285,2317.6,0.015795781328306252
286,2322.94,0.014303539246434082
287,2333.66,0.015425425142001563
288,2344.4300000000003,0.015241721111708816
289,2355.25,0.015375457155555843
290,2366.13,0.015087523288370597
291,2377.05,0.015080459480497172
292,2382.5299999999997,0.014801487606216369
293,2393.52,0.014897103902138626
294,2404.57,0.014719460287028613
295,2415.67,0.01464462674605837
296,2426.82,0.014705093279227904
297,2432.42,0.014466371582882559
298,2443.64,0.014492658219847774
299,2454.92,0.014452234945780719
300,2466.25,0.014279481745853438
301,2477.6400000000003,0.014141498634893886
302,2483.35,0.01413802710165604
303,2494.81,0.013495124094492172
304,2506.33,0.01402655117629603
305,2511.88643,0.01359554194911692
306,2512.11,0.013578199287042734
307,2517.9,0.013826865964272394
308,2523.7,0.013633742635763247
309,2535.35,0.013532905950050906
310,2547.05,0.01337118923564452
311,2552.92,0.01352253586696371
312,2564.71,0.013391439100908046
313,2576.54,0.013446262311897144
314,2582.4900000000002,0.013380848897305862
315,2594.41,0.013281782056645682
316,2606.3799999999997,0.013122915187291457
317,2612.39,0.013029011738267322
318,2624.45,0.012992114817263818
319,2636.56,0.012955217867566269
320,2642.64,0.013101684378370473
321,2654.84,0.013034427377023644
322,2667.0899999999997,0.01278965034698277
323,2673.2400000000002,0.012815586817615309
324,2685.5800000000004,0.012779149735925158
325,2697.9700000000003,0.01253904262554096
326,2704.19,0.012564489056001838
327,2716.6800000000003,0.012413621888229552
328,2722.9399999999996,0.012268118295735195
329,2735.5099999999998,0.012346171082052439
330,2748.1299999999997,0.012002993839675636
331,2754.47,0.011999620201270808
332,2767.1800000000003,0.011965322907244728
333,2773.56,0.012072489245884664
334,2786.36,0.011927411900209302
335,2792.79,0.011439968210155194
336,2805.68,0.011592440812830554
337,2812.15,0.01180441709982121
338,2825.13,0.011689359650847289
339,2838.17,0.011495922167440515
340,2844.7099999999996,0.01149262841425951
341,2857.8399999999997,0.011380420879203455
342,2864.43,0.011455897097328405
343,2877.65,0.01137037951062307
344,2884.0315,0.01131675392306282
345,2884.28,0.011314665845483652
346,2897.6000000000004,0.01123002568904556
347,2910.97,0.011223435532020234
348,2931.15,0.011034015295014172
349,2951.47,0.010847445056363866
350,2971.92,0.01078799481618676
351,2992.5299999999997,0.01065447457413052
352,3013.27,0.010522534330547482
353,3027.18,0.01041961416718007
354,3048.16,0.010290523920778328
355,3069.29,0.010163093672614894
356,3090.56,0.010013983422807217
357,3111.9900000000002,0.009912689171120403
358,3133.5600000000004,0.009744516917789343
359,3148.0200000000004,0.009649038747962402
360,3169.8399999999997,0.009528923491695193
361,3191.82,0.009302856233548849
362,3206.55,0.009296648060550868
363,3228.78,0.009138709799468372
364,3251.1600000000003,0.009087494536624186
365,3273.69,0.009015550272018308
366,3288.8,0.008906241094557376
367,3311.31121,0.008796578655457708
368,3311.6,0.008795171765335494
369,3319.23,0.008955565052312429
370,3326.8900000000003,0.008972862332554017
371,3334.55,0.008969832612795605
372,3342.2400000000002,0.008368331886301846
373,3349.95,0.008984100155317858
374,3357.6699999999996,0.008478606422088752
375,3365.41,0.008573856684369418
376,3373.1699999999996,0.008433792942159853
377,3380.94,0.008276816197705171
378,3388.7400000000002,0.008643878446515143
379,3396.5499999999997,0.008620782693079998
380,3404.38,0.008383047935154627
381,3412.23,0.008341322172739021
382,3420.09,0.0085326744080783
383,3427.98,0.008490232636682235
384,3435.88,0.008545986863041052
385,3443.8,0.008387102084909639
386,3451.74,0.008520228302287996
387,3459.69,0.008152471517421236
388,3467.67,0.008130755725819132
389,3475.66,0.00822200293197191
390,3483.6800000000003,0.007921566131389344
391,3491.71,0.00833012632856166
392,3499.76,0.008231747521243747
393,3507.8199999999997,0.008022835711680719
394,3515.91,0.008001402895382344
395,3524.02,0.008109518074593737
396,3532.14,0.008106666251560018
397,3540.28,0.008140977424036066
398,3548.44,0.008270101592021883
399,3556.62,0.00830512575551747
400,3564.82,0.008206983914522825
401,3573.04,0.008054007069037947
402,3581.28,0.007741941219062843
403,3589.53,0.007632840366842621
404,3597.8100000000004,0.007700500507887053
405,3606.1,0.007876791646686369
406,3614.4100000000003,0.007910147780995455
407,3622.74,0.00798018991081431
408,3631.1,0.008238383033897819
409,3639.4700000000003,0.007955618154736211
410,3647.86,0.007970868271084374
411,3656.27,0.007912941382942306
412,3664.7000000000003,0.007909848490310008
413,3673.14,0.007870350595432594
414,3681.61,0.007741473693819832
415,3681.7499999999995,0.007386519662388216
416,3684.5,0.008335336044981476
417,3687.24,0.00865123542981985
418,3689.9900000000002,0.00839130681241311
419,3692.73,0.007516569197251485
420,3695.4700000000003,0.00795443958208986
421,3698.22,0.008051368964683118
422,3700.9599999999996,0.008516874349521494
423,3703.71,0.008165705732114753
424,3706.45,0.006779741116953128
425,3709.19,0.008028760501791502
426,3711.94,0.007706656884384762
427,3714.6800000000003,0.009683922269223138
428,3717.42,0.011161639654061513
429,3720.17,0.02188948903665477
430,3722.91,0.04151150842149315
431,3725.6600000000003,0.06566950780408641
432,3728.4,0.06627949718892479
433,3731.14,0.046237896573763156
434,3733.8900000000003,0.024235495956356417
435,3736.63,0.01177171534119479
436,3739.38,0.00968579872378805
437,3742.12,0.007889140108626423
438,3744.8599999999997,0.007795057493464799
439,3747.61,0.008194531876058059
440,3750.35,0.007370533260896433
441,3753.1,0.007948912643489693
442,3755.8399999999997,0.007497021028328067
443,3758.5800000000004,0.007571360413166442
444,3761.33,0.008266707795759703
445,3764.0699999999997,0.009046666180598077
446,3766.82,0.008013943563191335
447,3769.56,0.008066605948029711
448,3772.3,0.008330573332868086
449,3775.0499999999997,0.007917945715461346
450,3777.79,0.008331992100299722
451,3780.5299999999997,0.009505736485138094
452,3783.28,0.009738687867731353
453,3786.02,0.009041189252569729
454,3788.77,0.00866691163516299
455,3791.51,0.007322399020001364
456,3794.25,0.007937506404839739
457,3797.0,0.009388256787432997
458,3799.74,0.008864899172271373
459,3801.8939600000003,0.008435720200537
460,3802.4900000000002,0.008316958582747178
461,3805.23,0.008386536095761801
462,3807.97,0.008681949608776426
463,3810.7200000000003,0.009221734120013732
464,3813.46,0.009133133633028357
465,3816.21,0.009385143144265664
466,3818.95,0.00925938065728029
467,3821.6899999999996,0.009278456170294914
468,3824.44,0.00920243368153222
469,3827.18,0.008336988194546844
470,3829.93,0.008085636705784152
471,3832.67,0.008744576218798776
472,3835.4100000000003,0.0092565357318134
473,3838.16,0.008491811243050706
474,3840.9,0.00824455275606533
475,3843.64,0.009044047269079957
476,3846.39,0.008505873780317261
477,3849.13,0.008894193293331888
478,3851.8799999999997,0.009490913804569194
479,3854.6200000000003,0.009175285317583819
480,3857.36,0.009366835830598443
481,3860.11,0.01150604034183575
482,3862.85,0.014699209854850374
483,3865.6000000000004,0.02042697936608768
484,3868.34,0.023399808879102306
485,3871.08,0.02086444839211693
486,3873.83,0.014890467903354236
487,3876.5699999999997,0.010947187416368862
488,3879.32,0.009431585927606167
489,3882.06,0.010208446440620793
490,3884.7999999999997,0.011482245953635417
491,3887.55,0.013836085464872723
492,3890.29,0.013169094977887348
493,3893.04,0.010520014489124653
494,3895.7799999999997,0.00929295400213928
495,3898.52,0.008941116515153905
496,3901.27,0.00910617602639121
497,3904.0099999999998,0.008922761539405836
498,3906.75,0.00921531905242046
499,3909.5,0.009817278563657767
500,3912.2400000000002,0.009216022076672391
501,3914.99,0.009402759587909697
502,3917.73,0.009425884100924322
503,3920.47,0.009516190613938946
504,3923.2200000000003,0.008832222125176252
505,3925.96,0.008761725638190878
506,3928.71,0.009009449149428183
507,3931.4500000000003,0.00845107266244281
508,3934.19,0.008483487175457433
509,3936.94,0.00836458768669474
510,3939.68,0.008935862199709365
511,3942.4300000000003,0.009174056710946671
512,3945.17,0.009049245223961295
513,3947.91,0.00881628073697592
514,3950.66,0.008501799248213227
515,3953.4,0.009555714761227851
516,3956.15,0.009140940272465157
517,3958.89,0.008674040785479783
518,3961.6299999999997,0.009980950298494407
519,3964.38,0.012718091809731715
520,3967.12,0.015100831322746339
521,3969.86,0.014716840835760962
522,3972.6099999999997,0.012814350346998269
523,3975.3500000000004,0.009343697860012894
524,3978.1,0.0088707973712502
525,3980.84,0.008415569884264824
526,3983.58,0.00901924339727945
527,3986.33,0.008905106908516756
528,3989.07,0.009231490421531381
529,3991.8199999999997,0.009588794932768688
530,3994.56,0.009506863445783312
531,3997.2999999999997,0.009519985958797937
532,4000.05,0.009464450470035243
533,4002.79,0.008288598983049868
534,4005.5400000000004,0.009854170494287174
535,4008.28,0.009961152007301799
536,4011.02,0.009136202520316425
537,4013.77,0.00970171503155373
538,4016.5099999999998,0.009571186544568355
539,4019.26,0.00960784405580566
540,4022.0,0.010125041568820286
541,4024.74,0.010261801081834911
542,4027.4900000000002,0.009853696593072217
543,4030.23,0.009225284106086841
544,4032.9700000000003,0.009079983619101468
545,4035.72,0.009516380130338772
546,4038.46,0.0094101506433534
547,4041.21,0.009748160154590704
548,4043.95,0.00868570466760533
549,4046.69,0.009187657180619953
550,4049.44,0.00873452969185726
551,4052.1800000000003,0.009208847204871884
552,4054.93,0.00975006071610919
553,4057.67,0.009257673229123815
554,4060.41,0.00874884474213844
555,4063.1600000000003,0.009537812253375745
556,4065.9,0.009823459766390373
557,4068.6499999999996,0.009561862277627677
558,4071.39,0.010113602790642303
