,lambda (Angstroms),Total Flux (erg/s/cm^2/Angstrom)
0,101.99,1.918361715386117
1,103.88,1.9129239628297254
2,104.712855,1.9105278508054582
3,106.06,1.890166584953822
4,108.03,1.8603915768091954
5,110.03999999999999,1.8300131566606277
6,113.91,1.771522863812773
7,117.91,1.7110680114786074
8,120.22644299999999,1.6760656512594176
9,120.94000000000001,1.6670264854508152
10,124.89999999999999,1.6168559987688993
11,126.92999999999999,1.5911381894530934
12,128.1,1.5763158552886634
13,131.08,1.5385614676857566
14,131.99,1.5270368994645338
15,134.14000000000001,1.4997972976210938
16,136.95000000000002,1.4642123420056685
17,138.038426,1.4504254037765683
18,140.14000000000001,1.4314008315626587
19,143.07,1.4049397915789172
20,147.08,1.368747753172841
21,150.85,1.3346275908828389
22,155.07999999999998,1.2964176353370278
23,158.489319,1.2656039683147928
24,159.06,1.2617072951277581
25,162.01,1.241568769065285
26,166.17,1.2131765074832894
27,170.04,1.1867743943084523
28,172.8,1.1678244795713588
29,176.83,1.1404779903856759
30,180.12,1.1180392412251552
31,181.970086,1.1054272731486103
32,182.2,1.1042332494944622
33,186.02,1.0844108471412393
34,190.79,1.0596711400483403
35,193.89,1.043598697897819
36,197.95,1.022545409810362
37,202.09,1.0010894941448267
38,204.9,0.986537130714838
39,208.929613,0.9656010459663285
40,210.16,0.9608038213329396
41,216.04999999999998,0.9380302197705594
42,220.07,0.9224492246753524
43,223.13,0.9105542062745232
44,226.75,0.8965857165519736
45,229.91,0.88527989030798
46,234.18,0.8712613206048622
47,239.88329199999998,0.8502217456737067
48,240.19,0.8493666317982587
49,245.78,0.8325452247221339
50,252.08999999999997,0.8143127907775279
51,256.77,0.7996017231324002
52,259.75,0.7915708982045198
53,263.97,0.7805456404475883
54,268.88,0.7663993938583626
55,273.87,0.7519362285059721
56,275.42287,0.747102044887883
57,278.97,0.7385562525625432
58,284.15,0.7283770946749691
59,290.1,0.7154418362905933
60,296.18,0.7013881530171471
61,300.99,0.6907170521215423
62,308.0,0.6766519769493619
63,316.227766,0.6585196383401568
64,318.09,0.655510489378457
65,327.76,0.6407823537069355
66,337.72,0.6242504577619142
67,347.98,0.60691111187879
68,356.9,0.6004243610525261
69,363.078055,0.6027497898730838
70,366.06,0.6051713139009662
71,374.59,0.5950309839891931
72,385.08,0.5732934943790522
73,394.96000000000004,0.5861502214097299
74,405.09000000000003,0.594013441948269
75,413.57,0.5857412173349236
76,416.86938299999997,0.5788587540447568
77,422.22999999999996,0.5693226995364677
78,430.08,0.559762727054144
79,441.12,0.5666071880344172
80,451.39,0.5609987767995808
81,459.78,0.5410475096369444
82,470.49,0.535139866810742
83,478.630092,0.5401860839971493
84,480.34,0.5416378568091781
85,490.4,0.516481833243788
86,499.52000000000004,0.5364375793356014
87,506.46999999999997,0.5134612185722356
88,512.33,0.5829103549645631
89,519.46,0.5708983332030093
90,530.34,0.5505339239792078
91,540.1999999999999,0.5146646937451378
92,549.5408739999999,0.5058230622637407
93,550.24,0.5052878260094442
94,560.47,0.5444326046986003
95,569.58,0.5640593833748675
96,580.17,0.5541916906395952
97,589.59,0.5533443050337153
98,600.55,0.5111511194455581
99,610.3100000000001,0.5031606052721626
100,620.23,0.5446206482434655
101,630.3100000000001,0.5263867483594669
102,630.957344,0.5273288650812022
103,640.55,0.5424470000840046
104,649.46,0.5298417364634358
105,658.49,0.5060576942082465
106,664.59,0.53033531361504
107,675.39,0.537869636499199
108,684.78,0.4961585583401484
109,694.3100000000001,0.5270045717740405
110,705.5899999999999,0.47266948011971777
111,715.41,0.5248178618532772
112,724.43596,0.5221647631996578
113,725.36,0.5220030452831492
114,735.45,0.5190962193975645
115,745.68,0.5058249351746178
116,754.31,0.5007589462358074
117,764.81,0.47135597093366277
118,775.45,0.4924622372941561
119,784.43,0.468886552511941
120,795.3399999999999,0.4814998277932363
121,804.55,0.48249265431392657
122,815.7399999999999,0.47865991292049814
123,825.1899999999999,0.47858622514856786
124,831.763771,0.4402372242702718
125,834.74,0.4231324401131063
126,844.41,0.4652671925963725
127,854.1899999999999,0.4576925790789314
128,864.08,0.46281019956078273
129,874.08,0.45973835404192676
130,884.1999999999999,0.4566300819768445
131,894.4399999999999,0.45349058336553594
132,904.8000000000001,0.44473705820800113
133,915.28,0.43368590650424
134,925.88,0.6893144282542527
135,934.4399999999999,0.950568601290112
136,945.26,1.1894411910387097
137,954.01,1.3468527137097106
138,954.992586,1.3525692832105245
139,965.06,1.4111959936511709
140,973.99,0.6643583182201471
141,985.26,1.1186213176481832
142,994.38,1.1038156427399035
143,1005.89,1.3496141165124587
144,1015.2,1.3767367421269234
145,1024.6,1.0095490206205826
146,1034.08,1.1990008572290816
147,1046.05,1.5974870901619644
148,1055.73,1.5348480220575624
149,1065.5,1.2931384068323553
150,1075.3600000000001,1.4086802444863424
151,1085.31,1.2335165350195243
152,1095.35,1.4293222784319009
153,1096.4782,1.4221608475391214
154,1105.48,1.3654292196256055
155,1115.71,1.3229838773633906
156,1126.04,1.172684023446609
157,1133.84,1.376153114390375
158,1144.3300000000002,1.2987484418262856
159,1154.92,1.3044192576076294
160,1165.61,1.2814515617344062
161,1173.69,0.9076131200453841
162,1184.55,1.215068654359397
163,1195.51,1.0253872770188421
164,1203.79,0.8794859120206859
165,1214.93,0.7528256137019107
166,1226.17,0.9974240037285682
167,1234.6699999999998,1.1975402130903645
168,1246.1,1.2319917309733446
169,1254.74,1.1862075240187469
170,1258.92541,1.1619405806129883
171,1266.35,1.1193301726595437
172,1275.12,1.2651049866798487
173,1283.96,1.2846773650081835
174,1295.8400000000001,1.0928269218566697
175,1304.83,1.089295666559354
176,1313.8700000000001,1.2414748000534883
177,1326.03,1.1851717141340936
178,1335.22,1.0958791140025774
179,1344.47,1.197079340420801
180,1353.79,1.1595785311470546
181,1366.32,1.067286142284389
182,1375.79,1.070223799384992
183,1385.33,1.0580382207936248
184,1394.93,0.8433021687519973
185,1404.6,0.8304151810183997
186,1414.3400000000001,0.977749857592832
187,1424.14,0.962653360717004
188,1434.01,0.980810328149206
189,1440.6299999999999,0.9978712241371671
190,1445.43977,0.9986238694325186
191,1447.28,0.9989930942269711
192,1453.96,0.9645049920254707
193,1464.04,0.9069124647513502
194,1474.19,0.9095253928433817
195,1484.3999999999999,0.9158419969635436
196,1494.6899999999998,0.909273235787879
197,1505.06,0.861938109316388
198,1512.0,0.792088969903452
199,1515.4899999999998,0.8221827588730275
200,1525.9900000000002,0.8049254637958186
201,1536.57,0.7031068034227835
202,1543.66,0.6730206540801731
203,1554.36,0.6616088457633985
204,1565.1399999999999,0.7098342721507975
205,1575.9899999999998,0.7445271539043484
206,1583.26,0.7617023326461286
207,1594.24,0.7620919457939618
208,1605.29,0.7459668143079469
209,1616.41,0.7360080381880839
210,1623.8700000000001,0.7164981243522764
211,1635.1299999999999,0.7444062589647175
212,1646.4599999999998,0.7432573489433103
213,1654.06,0.7162659458398067
214,1659.58691,0.7283295957627417
215,1665.53,0.7414833899534026
216,1673.22,0.6827702658932563
217,1677.07,0.7557136464353158
218,1684.82,0.7582003332407601
219,1696.49,0.7216812965981195
220,1704.32,0.7012042645576846
221,1716.1399999999999,0.6623752050790204
222,1724.06,0.6513910393369712
223,1736.01,0.679638086733753
224,1744.02,0.6669803872900898
225,1756.11,0.6836507267065829
226,1764.22,0.6511033787055704
227,1776.45,0.6399813101417748
228,1784.65,0.6509410284391481
229,1797.02,0.6658565518950639
230,1805.31,0.6639331364908231
231,1813.65,0.6161195468079076
232,1826.22,0.6250869731491251
233,1834.6499999999999,0.6073370497645956
234,1843.1200000000001,0.5683969669571263
235,1855.89,0.5652718961836455
236,1864.46,0.5725095648188272
237,1873.06,0.5985937888868041
238,1886.05,0.5542994912871553
239,1894.75,0.5312794667977832
240,1903.5,0.5585356680297364
241,1905.46072,0.5548730170980977
242,1916.69,0.5341110496266612
243,1925.54,0.5171482349867763
244,1934.43,0.5395259249134908
245,1943.3600000000001,0.5465737194068048
246,1956.83,0.5074887822091495
247,1965.8600000000001,0.542150338118962
248,1974.93,0.5536566985953737
249,1984.05,0.5263961397800347
250,1993.21,0.5135990855312952
251,2007.02,0.5262458371497348
252,2016.29,0.5123927204591435
253,2025.59,0.5284071321935018
254,2034.94,0.4965006246361094
255,2044.3400000000001,0.5038888977869661
256,2053.77,0.46083289936277244
257,2063.25,0.473103981646828
258,2072.7799999999997,0.5094333446391328
259,2077.5499999999997,0.4789028642061101
260,2087.1400000000003,0.492784384048314
261,2096.78,0.4694947845987671
262,2106.46,0.4745678897158196
263,2116.18,0.4768761993994715
264,2125.9500000000003,0.4773150897913726
265,2135.7599999999998,0.45923648474987316
266,2145.62,0.45422066041662296
267,2155.52,0.4655017406499721
268,2165.47,0.45408140159157045
269,2175.47,0.4508746432414181
270,2185.5099999999998,0.4380992894578651
271,2187.7616199999998,0.44051689712686254
272,2195.6,0.44906593202760164
273,2205.73,0.440793908997205
274,2215.9100000000003,0.4267837138886721
275,2226.14,0.4165045467020031
276,2236.41,0.4235427618528251
277,2246.7400000000002,0.41413995050988356
278,2257.11,0.4018088215044331
279,2267.53,0.4069716204208464
280,2272.75,0.40758911546342586
281,2283.24,0.4080161334704485
282,2293.78,0.3866956793993349
283,2304.37,0.3886021532500851
284,2315.01,0.37632455502269907
285,2325.69,0.32753373913280415
286,2336.43,0.3606161967491457
287,2347.21,0.35746863670297835
288,2352.62,0.3621424978486401
289,2363.48,0.3500926024774548
290,2374.3900000000003,0.3483734350281332
291,2385.35,0.3361672955006755
292,2396.3599999999997,0.34427698389508155
293,2407.42,0.33475280021135134
294,2412.9700000000003,0.3365048995382317
295,2424.1099999999997,0.3400100805294836
296,2435.3,0.32933098944259925
297,2446.54,0.33598232627757874
298,2452.18,0.331281635863814
299,2463.5,0.32834723737377547
300,2474.8700000000003,0.32109676680560073
301,2486.29,0.32192502415928986
302,2497.77,0.2874032550192155
303,2503.5299999999997,0.3182459116179238
304,2511.88643,0.3063756932046897
305,2515.08,0.3018681141691097
306,2520.8799999999997,0.31167975373650725
307,2526.6899999999996,0.30446092923419343
308,2532.52,0.30430557659245683
309,2544.21,0.2971300790998495
310,2555.9500000000003,0.3025376612586852
311,2567.7499999999995,0.29879215899925265
312,2573.67,0.3038360297301136
313,2585.5499999999997,0.30062161491299
314,2597.4799999999996,0.2974576797473094
315,2603.47,0.2916670019901907
316,2615.49,0.2880320901971077
317,2627.56,0.28938055805546775
318,2633.62,0.28922083181036934
319,2645.77,0.29336698711103837
320,2657.9799999999996,0.2913784579934391
321,2664.11,0.27974908326036096
322,2676.4100000000003,0.2821077775153592
323,2682.58,0.2803450465034356
324,2694.96,0.27315222820074275
325,2707.3999999999996,0.2723238254797817
326,2713.64,0.26754274597987837
327,2726.17,0.26721026663151476
328,2732.4500000000003,0.2690959308527659
329,2745.06,0.2563136389467113
330,2757.73,0.25502896262238833
331,2764.09,0.2558275142859484
332,2776.8500000000004,0.25988996133422304
333,2783.25,0.2558044567189376
334,2796.1000000000004,0.23604942713980975
335,2802.54,0.24216346624567875
336,2815.48,0.25303726003914845
337,2821.97,0.25191567879646054
338,2834.9999999999995,0.2431382959625278
339,2848.08,0.24142709278003815
340,2854.65,0.23943679897965917
341,2867.8199999999997,0.2422894191697671
342,2874.43,0.23893146909054255
343,2884.0315,0.23802716226326168
344,2887.7000000000003,0.2377101062599713
345,2894.36,0.23446899948901284
346,2907.72,0.23645213996048353
347,2927.8700000000003,0.23166124920450556
348,2948.17,0.2273993609987313
349,2968.6099999999997,0.2248845618398137
350,2989.1800000000003,0.22156853822440592
351,3009.8999999999996,0.2187149171592018
352,3030.77,0.2162917986442013
353,3051.77,0.21268515567271065
354,3072.93,0.20952302875477052
355,3087.11,0.2065428765006878
356,3108.5099999999998,0.2034655736630735
357,3130.06,0.19968367337566284
358,3151.76,0.19780277563845583
359,3173.6,0.19411726694810552
360,3188.2500000000005,0.1892170493513275
361,3210.3500000000004,0.18811359174799686
362,3232.6,0.18459573669486984
363,3247.52,0.18329928368845838
364,3270.0299999999997,0.18086137972235103
365,3292.7000000000003,0.17844779180979417
366,3307.8999999999996,0.17619931689709617
367,3311.31121,0.1768737445255389
368,3323.1699999999996,0.17928284578369214
369,3330.8300000000004,0.177526658105631
370,3338.51,0.17384370622997702
371,3346.2,0.17406702225552662
372,3353.92,0.1701518419846869
373,3361.65,0.17099612961505084
374,3369.4,0.16777555304782185
375,3377.17,0.16644621228300005
376,3384.95,0.1710120394193818
377,3392.75,0.17028050235817074
378,3400.5800000000004,0.17240176900057042
379,3408.41,0.16512943564297006
380,3416.27,0.16686190598898043
381,3424.15,0.16830921213739794
382,3432.04,0.16851798618701905
383,3439.95,0.16810579603904732
384,3447.8799999999997,0.16401274169348273
385,3455.83,0.16003932315032526
386,3463.8,0.15876724040957496
387,3471.7799999999997,0.15954052557002824
388,3479.79,0.15885281443409227
389,3487.81,0.15758837119935984
390,3495.85,0.1601106637670346
391,3503.91,0.15594419213711647
392,3511.98,0.1547047884084019
393,3520.08,0.1557356883832981
394,3528.19,0.15591725625939784
395,3536.33,0.15667262783910835
396,3544.48,0.15628036732002243
397,3552.65,0.15675044260334364
398,3560.84,0.155780853689072
399,3569.0499999999997,0.15312060057720753
400,3577.2799999999997,0.1475241832677502
401,3585.52,0.14661573385949642
402,3593.79,0.1465076881548534
403,3602.07,0.14801011035141395
404,3610.38,0.14790333625158522
405,3618.7000000000003,0.14779533005296008
406,3627.0400000000004,0.15153175965674207
407,3635.3999999999996,0.14921112506293122
408,3643.7799999999997,0.14910222627152753
409,3652.18,0.14682326328253098
410,3659.79,0.13430513609845196
411,3662.5200000000004,0.14023197312702806
412,3665.25,0.1437955101556042
413,3667.98,0.14715414718418032
414,3670.7000000000003,0.14776371631155286
415,3673.43,0.150944053340129
416,3676.16,0.14204009036870513
417,3678.8900000000003,0.12838479739728123
418,3681.62,0.13170006442585735
419,3684.35,0.14928770145443349
420,3687.07,0.12094078058180603
421,3689.7999999999997,0.12546932761038215
422,3692.53,0.12611980463895828
423,3695.26,0.14203098166753442
424,3697.99,0.12561419869611054
425,3700.7200000000003,0.14399515572468663
426,3703.44,0.1264191548520592
427,3706.1699999999996,0.12415314188063532
428,3708.9,0.14323409890921143
429,3711.63,0.14254633593778757
430,3714.3599999999997,0.15795077296636367
431,3717.08,0.16140684209373624
432,3719.81,0.20474787912231235
433,3722.54,0.3219707161508885
434,3725.27,0.5054557531794646
435,3728.0,0.5827974902080407
436,3730.73,0.5058827272366169
437,3733.45,0.3280433963639894
438,3736.18,0.2059982333925655
439,3738.91,0.16243647042114165
440,3741.64,0.16663330744971774
441,3744.3700000000003,0.1645222444782939
442,3747.1,0.14765048150687002
443,3749.8199999999997,0.14646015063424256
444,3752.55,0.15513508766281864
445,3755.2799999999997,0.16138852469139478
446,3758.0099999999998,0.16000076171997094
447,3760.7400000000002,0.16401099874854705
448,3763.47,0.15035903577712315
449,3766.1899999999996,0.14060260490449572
450,3768.92,0.1362050419330718
451,3771.6499999999996,0.13192247896164794
452,3774.38,0.14602041599022408
453,3777.11,0.1559868530188002
454,3779.83,0.15639652214617272
455,3782.56,0.16094335917474886
456,3785.29,0.167888396203325
457,3788.0200000000004,0.1735035332319011
458,3790.75,0.16396627026047722
459,3793.48,0.15555560728905338
460,3796.2000000000003,0.15554187641642592
461,3798.93,0.14052841344500203
462,3801.66,0.14835005047357816
463,3801.8939600000003,0.14788634149892735
464,3804.3900000000003,0.1429487504768888
465,3807.12,0.15021424684146323
466,3809.8500000000004,0.17034884320603766
467,3812.57,0.16626423335682244
468,3815.2999999999997,0.1620620297213969
469,3818.03,0.17071242608597137
470,3820.76,0.1786212224505458
471,3823.49,0.15079391881512025
472,3826.2200000000003,0.14425531517969467
473,3828.94,0.1531648053304795
474,3831.6699999999996,0.1496876016950539
475,3834.4,0.13798769805962835
476,3837.13,0.1504927944242028
477,3839.86,0.15194869078877724
478,3842.58,0.14366248093956205
479,3845.31,0.15681097730413648
480,3848.04,0.17138427366871092
481,3850.77,0.17764487003328536
482,3853.5000000000005,0.17253606639785982
483,3856.23,0.17440026276243425
484,3858.95,0.18030665291321904
485,3861.6800000000003,0.1809725492777935
486,3864.41,0.21195974564236794
487,3867.14,0.24214874200694236
488,3869.8700000000003,0.2474558383715168
489,3872.6,0.22171513473609125
490,3875.3199999999997,0.18860922488687604
491,3878.05,0.15980862125145048
492,3880.7799999999997,0.1491419176160249
493,3883.51,0.15099941398059938
494,3886.2400000000002,0.17488551034517383
495,3888.96,0.1722241004959586
496,3891.69,0.15309459686053306
497,3894.42,0.1505956932251075
498,3897.1499999999996,0.15055328958968195
499,3899.88,0.15582058595425638
500,3902.61,0.15445158231883083
501,3905.3300000000004,0.16198947246961562
502,3908.06,0.16295206883419006
503,3910.79,0.1682592651987645
504,3913.52,0.15113306156333894
505,3916.25,0.14969405792791338
506,3918.98,0.14989665429248783
507,3921.7000000000003,0.1633874444432726
508,3924.43,0.15786384080784704
509,3927.1600000000003,0.1567798371724215
510,3929.89,0.15236273353699595
511,3932.62,0.1505254299015704
512,3935.3500000000004,0.14762822626614483
513,3938.07,0.1547244164169296
514,3940.7999999999997,0.15892181278150405
515,3943.53,0.1577378091460785
516,3946.2599999999998,0.15803880551065297
517,3948.99,0.15418660187522742
518,3951.71,0.14914029202601217
519,3954.44,0.14227668839058663
520,3957.17,0.14923218475516106
521,3959.9,0.1517912811197355
522,3962.6299999999997,0.15925677748430997
523,3965.36,0.1610125738488844
524,3968.08,0.16791386399966918
525,3970.8100000000004,0.17248616036424363
526,3973.54,0.15646985672881805
527,3976.27,0.14478325309339252
528,3978.9999999999995,0.14560244945796696
529,3981.73,0.15753594582254138
530,3984.45,0.15593443597332618
531,3987.1800000000003,0.15155393233790063
532,3989.91,0.1541164287024751
533,3992.64,0.15888372506704954
534,3995.37,0.15817302143162398
535,3998.1,0.15255601779619843
536,4000.8199999999997,0.1518078079469832
537,4003.55,0.15323700431155762
538,4006.2799999999997,0.1586592006761321
539,4009.01,0.15794019704070653
540,4011.74,0.16122099340528098
541,4014.46,0.16954378355606575
542,4017.19,0.1590220799206402
543,4019.92,0.15543657628521462
544,4022.6499999999996,0.1639402726497891
545,4025.38,0.16071146901436353
546,4028.1099999999997,0.15644106537893798
547,4030.8300000000004,0.1541661555297228
548,4033.56,0.15714195189429722
549,4036.29,0.16404914825887165
550,4039.02,0.17124124462344611
551,4041.75,0.16276114098802055
552,4044.4799999999996,0.15002453735259497
553,4047.2000000000003,0.15593252750337977
554,4049.93,0.1603798238679542
555,4052.6600000000003,0.15332792023252867
556,4055.39,0.1501891165971031
557,4058.12,0.15056501296167754
558,4060.85,0.15747720932625198
559,4063.57,0.15066929947703678
560,4066.2999999999997,0.14860869584161124
561,4069.03,0.14861799220618566
562,4071.7599999999998,0.1646295885707601
563,4074.4900000000002,0.16544208493533455
564,4077.21,0.14304527508611933
565,4079.94,0.14621937145069377
566,4082.67,0.1454753678152682
567,4085.4,0.1487444641798427
568,4088.1299999999997,0.14638886054441713
569,4090.86,0.14286335690899155
570,4093.58,0.14510824705977635
571,4096.31,0.1546735434243508
572,4099.04,0.16790863978892523
573,4101.77,0.17361923615349967
574,4104.5,0.1770366325180741
575,4107.2300000000005,0.15658392888264855
576,4109.95,0.15010101903343337
577,4112.68,0.1455072153980078
578,4115.41,0.14113351176258224
579,4118.14,0.13687640812715668
580,4120.87,0.1595042044917311
581,4123.59,0.14587839464251592
582,4126.32,0.15300889100709036
583,4129.05,0.1421922873716648
584,4131.78,0.14068168373623924
585,4134.51,0.1442189801008137
586,4137.24,0.13909867646538812
587,4139.96,0.1489963666161729
