,lambda (Angstroms),Total Flux (erg/s/cm^2/Angstrom)
0,102.07000000000001,0.00020582564180159999
1,103.97,0.00022900188886098004
2,104.712855,0.000238949588362577
3,105.9,0.0002439718313675529
4,108.12,0.0002506841714897868
5,109.88,0.00026569823212723353
6,114.0,0.0002855243831648928
7,118.01,0.0003058724804127116
8,120.22644299999999,0.00033868947583879375
9,121.04,0.00035396818501342724
10,125.0,0.0004004093825002461
11,127.03,0.00042551159106040835
12,127.91,0.00043814372383525703
13,130.89,0.0004730284689137217
14,132.1,0.0004893074764791387
15,133.94,0.0005095879177356403
16,137.06,0.0005579169703010128
17,138.038426,0.0005708357572495131
18,139.93,0.0005961632457495815
19,142.86,0.0006780813942869533
20,146.85999999999999,0.0007783383567953107
21,150.98,0.0008019345021789188
22,154.85,0.0009079436499057545
23,158.489319,0.0009694458187989685
24,158.82,0.0009750329086979957
25,162.15,0.0010278723687987214
26,165.93,0.0010987428208049505
27,170.17999999999998,0.0011665503554680388
28,172.95000000000002,0.0011664273745308049
29,176.98,0.0012906812109289806
30,179.85000000000002,0.001342178183748525
31,181.93,0.0013798224218895187
32,181.970086,0.001380467784170763
33,186.17000000000002,0.0014481421428003563
34,190.95000000000002,0.0015338822361469675
35,194.04999999999998,0.0015914816732546025
36,198.10999999999999,0.0016588053424987956
37,201.8,0.0017288097660236898
38,205.07999999999998,0.0017813638091569296
39,208.929613,0.001825154214003725
40,209.85,0.0018356395882551458
41,216.23,0.0019714120334180033
42,220.25,0.0020407362261381738
43,222.8,0.002083561363311416
44,226.94,0.002161810009545621
45,230.1,0.002875768618748541
46,233.83999999999997,0.00582964008660263
47,239.83999999999997,0.013823423762304375
48,239.88329199999998,0.013825228199209807
49,245.98999999999998,0.014079531794862748
50,251.72,0.016315625287001628
51,256.99,0.00911190452671749
52,259.96,0.01728334650431827
53,264.19,0.02325861526029514
54,269.1,0.024522872563332118
55,274.1,0.025152758350538817
56,275.42287,0.024830497907336976
57,279.2,0.02391049398953458
58,283.74,0.026644125626804533
59,289.68,0.026521042438563024
60,295.74,0.024866171408134814
61,301.24,0.016657810307911188
62,308.26,0.0218068865399894
63,316.227766,0.02856882315278296
64,318.36,0.030378301730593936
65,328.03,0.0317391843654955
66,337.99999999999994,0.03181151304904963
67,348.27,0.031665437781256356
68,357.20000000000005,0.035042130162814884
69,363.078055,0.03855283018131377
70,366.36,0.040513066478941075
71,374.90000000000003,0.040326944266297966
72,385.4,0.03720432220157283
73,395.29,0.04242061386632221
74,405.43,0.04555761810095908
75,413.91999999999996,0.04545471537433848
76,416.86938299999997,0.04486369931137457
77,421.60999999999996,0.04391372493095148
78,430.44,0.04261697939095934
79,441.48,0.045246897481388194
80,450.73,0.0454566445317928
81,460.16,0.043112262692367447
82,469.8,0.043013702148140466
83,478.630092,0.04445940598992306
84,479.64,0.04462473844193156
85,489.67999999999995,0.04155344725184962
86,499.93,0.04462622436356876
87,505.71999999999997,0.0441166075417984
88,511.58000000000004,0.05992111015396173
89,519.89,0.05762173295380427
90,529.5600000000001,0.054773774755787104
91,539.4,0.049611515183037476
92,549.43,0.04881984407382216
93,549.5408739999999,0.048896889324544515
94,559.65,0.055921676569749106
95,570.05,0.057622359196688934
96,580.65,0.05566432129722376
97,590.0799999999999,0.05617915647722785
98,599.67,0.05135509123610794
99,609.4200000000001,0.047487425573864026
100,619.32,0.05643774951681636
101,629.38,0.05427394303864469
102,630.957344,0.0545279729907152
103,639.61,0.055921529585040625
104,650.0,0.05427370644681693
105,657.5300000000001,0.05170900316184827
106,665.14,0.05427408016070464
107,674.39,0.05515413297797421
108,685.35,0.050419261862003885
109,694.89,0.0537744957081392
110,704.5500000000001,0.04792716998001207
111,716.0,0.05365184060247007
112,724.43596,0.053236111527139855
113,725.9599999999999,0.053161003608097605
114,734.37,0.05303857058448194
115,744.5799999999999,0.051473821194337355
116,754.94,0.050651202106982034
117,765.44,0.046300403302230016
118,774.31,0.04961192120716807
119,785.0799999999999,0.04759687294743671
120,794.17,0.04837191129646568
121,805.2199999999999,0.048259703601940936
122,814.54,0.04792668241524676
123,825.8699999999999,0.04781682528592863
124,831.763771,0.04389861264869664
125,835.4399999999999,0.04145461100533754
126,845.11,0.04640811845123386
127,854.9,0.04545612536905443
128,864.8000000000001,0.04576866180280557
129,874.8100000000001,0.04535088775248728
130,884.94,0.04493550317409324
131,895.19,0.04452153806762347
132,905.55,0.04350928247708426
133,916.0400000000001,0.042713736314462986
134,924.5100000000001,0.08701271904111674
135,935.2199999999999,0.12605761191035664
136,946.05,0.16090766425152075
137,954.8,0.17400962574599776
138,954.992586,0.17427910773706923
139,965.86,0.18948571733957675
140,974.8,0.10485181112128471
141,986.08,0.16579680327538598
142,995.21,0.15260519692493785
143,1004.4200000000001,0.16655799051884504
144,1016.05,0.1669422824295009
145,1025.45,0.12038647589125198
146,1034.94,0.15616166929040282
147,1044.51,0.17683886263390894
148,1054.18,0.17044135590785928
149,1063.93,0.1547304491261649
150,1073.78,0.15906574227491474
151,1086.21,0.14176553362912386
152,1096.26,0.156523026638762
153,1096.4782,0.15633061428172798
154,1103.86,0.1498212104170203
155,1114.0700000000002,0.14708538819013767
156,1124.3799999999999,0.1344556657455578
157,1134.78,0.1434112431050505
158,1145.28,0.13727032024684602
159,1155.8799999999999,0.13445589717094433
160,1163.89,0.13109267973339978
161,1174.66,0.10293815628741286
162,1185.53,0.12262393262372878
163,1193.75,0.11656531472902013
164,1204.8,0.10828449067348112
165,1215.9399999999998,0.08120296642201463
166,1224.3700000000001,0.10778994807014189
167,1235.7,0.11391482340505076
168,1244.27,0.11312750474840194
169,1255.78,0.11106517969145586
170,1258.92541,0.1106052199012282
171,1264.48,0.10979297370409612
172,1276.18,0.11157617551580118
173,1285.03,0.11029897688619347
174,1293.94,0.10317367826587655
175,1305.91,0.10222958011939018
176,1314.96,0.10557918152075178
177,1324.08,0.10175918293295265
178,1336.33,0.09853197482982332
179,1345.5900000000001,0.09921389626370271
180,1354.92,0.09695584770842136
181,1364.31,0.0930188391624308
182,1373.77,0.0911105306272795
183,1386.48,0.08965499259537961
184,1396.0900000000001,0.0735494040834553
185,1405.77,0.06959393558237026
186,1415.51,0.084057227090576
187,1425.32,0.079905978609621
188,1435.2,0.08157959013950528
189,1441.8300000000002,0.08101627116613813
190,1445.43977,0.08061285685764007
191,1448.48,0.08027309212021048
192,1455.17,0.07790716298965059
193,1465.26,0.0757846343009586
194,1475.41,0.07508800562006426
195,1485.64,0.07457134694956682
196,1495.94,0.07287430828816667
197,1506.31,0.07072622963586381
198,1513.26,0.0678549905390938
199,1516.75,0.06816818099265821
200,1523.75,0.06723161190238626
201,1534.3100000000002,0.06103314327477601
202,1544.95,0.05477433465756265
203,1555.66,0.05464667604944657
204,1566.44,0.058826927450427766
205,1573.67,0.06047559839004689
206,1584.58,0.06019697980792304
207,1595.56,0.05964439123489647
208,1606.62,0.05722309267226679
209,1614.04,0.05579162363657852
210,1625.22,0.05540845508954418
211,1636.4899999999998,0.05579189655420634
212,1644.04,0.05452253753541302
213,1655.44,0.05490175901697014
214,1659.58691,0.05476460086888643
215,1666.92,0.05452206651561067
216,1670.76,0.051829170160085355
217,1678.47,0.05553475747750718
218,1686.22,0.054272714832892276
219,1694.0,0.052670702216749826
220,1705.74,0.051472863358971895
221,1713.62,0.049610960837737646
222,1725.49,0.04859404210334037
223,1733.46,0.0494960396675235
224,1745.47,0.04859406106599769
225,1753.5300000000002,0.04814834871559819
226,1765.69,0.04716020025643468
227,1773.84,0.04608643799145255
228,1786.1299999999999,0.046086919655669696
229,1794.3799999999999,0.04566323748559577
230,1806.8100000000002,0.045350619282684385
231,1815.15,0.04350880719802783
232,1823.53,0.04330820515133455
233,1836.17,0.04271378714773038
234,1844.6499999999999,0.04069830519594529
235,1853.16,0.04041942327263267
236,1866.01,0.0403264054683357
237,1874.62,0.04032677363993128
238,1883.27,0.03824523184949012
239,1896.33,0.03711757424450037
240,1905.0800000000002,0.03798336254896741
241,1905.46072,0.037931147963589734
242,1913.8700000000001,0.03677782262258055
243,1927.1399999999999,0.03536638638836523
244,1936.04,0.03627372550030824
245,1944.97,0.036439954575549924
246,1953.95,0.034321703589622755
247,1967.49,0.0352024270250956
248,1976.58,0.03553007590459693
249,1985.7,0.03432168474739696
250,1994.87,0.03346306352902812
251,2004.07,0.03361982227395797
252,2013.3200000000002,0.03323358095771896
253,2027.28,0.03331167387937337
254,2036.64,0.03195896242856287
255,2046.0400000000002,0.03173871092881729
256,2055.48,0.027578399380136606
257,2064.9700000000003,0.02901158777028707
258,2074.5,0.031447876111502446
259,2079.28,0.030378950263759474
260,2084.08,0.03052074439154896
261,2093.7,0.029552042622660386
262,2103.36,0.029689160804836728
263,2113.07,0.029620548925844207
264,2122.82,0.029349196997916598
265,2132.62,0.028813405008820132
266,2147.4,0.028155526927305257
267,2157.31,0.0283513148036373
268,2167.27,0.027641862618800483
269,2177.28,0.027514530372794808
270,2187.33,0.026952078077854043
271,2187.7616199999998,0.026957418686906202
272,2197.42,0.027076946970502246
273,2202.49,0.02664396191572692
274,2212.65,0.025976341825684056
275,2222.8700000000003,0.02561911179416456
276,2233.13,0.025442891801660646
277,2243.43,0.025095681848172312
278,2253.79,0.024523431953207345
279,2264.19,0.02452332209725796
280,2274.64,0.024298632290078045
281,2285.14,0.023965592531667607
282,2295.69,0.023052642822026643
283,2306.29,0.02310556316115515
284,2316.9300000000003,0.02289381353929924
285,2327.63,0.021365733975966694
286,2332.9900000000002,0.02224443920405432
287,2343.76,0.02204056970899904
288,2354.58,0.021939860262713235
289,2365.4500000000003,0.021589240865196906
290,2376.37,0.02139192151645005
291,2387.34,0.02076191221647267
292,2392.84,0.02088218758111482
293,2403.88,0.0206441783494147
294,2414.98,0.02050267917623795
295,2426.13,0.020456580051830674
296,2437.33,0.02008435097619287
297,2442.94,0.020015726448127866
298,2454.22,0.019833547450521224
299,2465.55,0.019607908501684056
300,2476.93,0.019384879601616358
301,2482.6400000000003,0.019185885171090305
302,2494.1,0.017179776349053766
303,2505.6099999999997,0.018795567575786706
304,2511.39,0.01792990321353791
305,2511.88643,0.01797129462259481
306,2517.17,0.018411821703195386
307,2522.98,0.018349139509912196
308,2534.6200000000003,0.01822465511579579
309,2546.32,0.017935310699029296
310,2552.1899999999996,0.01791581848309602
311,2563.97,0.017753404036129412
312,2575.81,0.017714619566512723
313,2587.7,0.017514055078020962
314,2593.66,0.01729472282811256
315,2605.63,0.017138428309420684
316,2617.66,0.016905813768078724
317,2623.7,0.01684851148797021
318,2635.81,0.01673500691642814
319,2647.9700000000003,0.01673757232601099
320,2654.08,0.01656617001947738
321,2666.33,0.016266655395085112
322,2672.4700000000003,0.016137323077226456
323,2684.8100000000004,0.01610281841885906
324,2697.2000000000003,0.015775293741616594
325,2703.42,0.015722391393557827
326,2715.9,0.015509336682340231
327,2722.1600000000003,0.015350884319181407
328,2734.72,0.015177939577763701
329,2747.35,0.015007194809920896
330,2753.68,0.014888362420336972
331,2766.3900000000003,0.014788797622294054
332,2772.77,0.01480731521383506
333,2785.57,0.014640720381817015
334,2791.99,0.014129077958257965
335,2804.87,0.014197393096039809
336,2817.8199999999997,0.014331888207396552
337,2824.32,0.014153025753637388
338,2837.3500000000004,0.01393003083479402
339,2843.89,0.0138517983659348
340,2857.02,0.01372799340934129
341,2863.6099999999997,0.013682190921607
342,2876.8300000000004,0.013560105931038364
343,2883.46,0.013453003428204015
344,2884.0315,0.013447855848074283
345,2896.77,0.01333312311404875
346,2910.14,0.013244643010756792
347,2930.31,0.012993202854930401
348,2950.62,0.012717292698022423
349,2971.07,0.01256254254003285
350,2991.67,0.012352832380884431
351,3012.41,0.012146632220654421
352,3033.29,0.011944162059342818
353,3047.2900000000004,0.011757011951183699
354,3068.41,0.011561151788017941
355,3089.6800000000003,0.011368881623693336
356,3111.1,0.011205461458209881
357,3132.66,0.010993941291644837
358,3147.12,0.010822011179931918
359,3168.94,0.010642141011358205
360,3190.8999999999996,0.010417710841702899
361,3213.02,0.010292440670811488
362,3227.85,0.010131520556240078
363,3250.23,0.01003291038334
364,3272.75,0.00986685520935833
365,3287.86,0.009735522092623737
366,3310.65,0.009596552916556141
367,3311.31121,0.009622989959087433
368,3318.28,0.00990162088226424
369,3325.9300000000003,0.009960756752476327
370,3333.6,0.00981473861973472
371,3341.29,0.009472803484039418
372,3348.9900000000002,0.00990989034686727
373,3356.71,0.009389894206741427
374,3364.45,0.009359266063661891
375,3372.2000000000003,0.009137723919105509
376,3379.97,0.00921379477159543
377,3387.77,0.009397672619654813
378,3395.5800000000004,0.00947594346623735
379,3403.3999999999996,0.009082696311343038
380,3411.25,0.009074327152018186
381,3419.11,0.009234343991216486
382,3426.99,0.009268342827461092
383,3434.89,0.009302585660752006
384,3442.81,0.009145312491089224
385,3450.75,0.00903225731847275
386,3458.7000000000003,0.00877793514437943
387,3466.68,0.008912407965855565
388,3474.67,0.008802340785854856
389,3482.6800000000003,0.008534757602900452
390,3490.71,0.008826552416992355
391,3498.75,0.00879822822960741
392,3506.82,0.008609842037791924
393,3514.9,0.008484167844499593
394,3523.0099999999998,0.00859418264677672
395,3531.13,0.008546973447577
396,3539.27,0.008598333245423586
397,3547.43,0.008669996040316477
398,3555.6,0.008622345833732524
399,3563.7999999999997,0.008555079622718028
400,3572.02,0.008488499408749838
401,3580.25,0.008155409193304802
402,3588.5,0.008054633974906071
403,3596.78,0.0081033027520768
404,3605.07,0.008208472527770683
405,3613.38,0.00818229730051087
406,3621.71,0.008212621070297363
407,3630.06,0.008357900837130165
408,3638.4300000000003,0.00819793460100927
409,3646.81,0.00811554536341153
410,3655.2200000000003,0.008070981121383249
411,3663.65,0.008045292876401273
412,3672.09,0.007964370629942452
413,3680.56,0.00788438337905309
414,3683.44,0.007183885953721168
415,3686.1899999999996,0.007976575547588257
416,3688.9300000000003,0.006024999142932195
417,3691.67,0.006051424738276133
418,3694.42,0.006932661332143222
419,3697.16,0.006254666927487159
420,3699.8999999999996,0.007875091522831095
421,3702.64,0.006822628118175032
422,3705.39,0.007580098712042123
423,3708.13,0.00720197430738606
424,3710.87,0.007291994902729996
425,3713.6200000000003,0.006503897496597086
426,3716.36,0.008180578091941023
427,3719.1000000000004,0.012363099687284959
428,3721.85,0.01954764928115205
429,3724.5899999999997,0.025303628876495985
430,3727.33,0.022374938471839922
431,3730.08,0.017412618065707014
432,3732.82,0.010654117661050951
433,3735.56,0.008231457256394887
434,3738.3100000000004,0.008393100850261976
435,3741.05,0.007013869445605914
436,3743.79,0.006827747040949851
437,3746.53,0.007220816636293787
438,3749.2799999999997,0.008812584230160878
439,3752.02,0.008104262825504815
440,3754.7599999999998,0.006048731420848752
441,3757.51,0.005932040014715841
442,3760.25,0.006573855610059778
443,3762.99,0.006574598205403715
444,3765.7400000000002,0.006360313799270805
445,3768.48,0.0076067573946147415
446,3771.2200000000003,0.007483251989958678
447,3773.97,0.007374381583825768
448,3776.7099999999996,0.006803763179169705
449,3779.45,0.006470151774513642
450,3782.2,0.006566252368380732
451,3784.94,0.007566881963724669
452,3787.68,0.006378916559068606
453,3790.42,0.0063855311544125425
454,3793.17,0.008773444748279633
455,3795.9100000000003,0.009200023343623569
456,3798.65,0.007857721938967506
457,3801.3999999999996,0.006275926532834596
458,3801.8939600000003,0.006329679403417183
459,3804.14,0.006574094197293372
460,3806.88,0.006250509876952219
461,3809.63,0.006169772555441937
462,3812.37,0.006877627235100783
463,3815.1099999999997,0.006995774914759629
464,3817.86,0.006978628593249347
465,3820.6,0.0068605022729081935
466,3823.34,0.00543650495256704
467,3826.0899999999997,0.007879939631056758
468,3828.83,0.009434326310715604
469,3831.57,0.00915403899037445
470,3834.3100000000004,0.009163837670033297
471,3837.06,0.008008848348523015
472,3839.7999999999997,0.006112793028181861
473,3842.54,0.005896338707840708
474,3845.29,0.007869917386330427
475,3848.03,0.0068778700659892725
476,3850.77,0.006603694745648118
477,3853.5199999999995,0.0076064904241378364
478,3856.26,0.007813670103796681
479,3859.0,0.0076801367834555285
480,3861.75,0.010417810461945247
481,3864.49,0.013020760141604094
482,3867.23,0.01301930982126294
483,3869.98,0.010756319499752658
484,3872.7200000000003,0.008404839179411504
485,3875.46,0.0073144658590703505
486,3878.2100000000005,0.007557073537560069
487,3880.9500000000003,0.009955539217218916
488,3883.69,0.01292292789687776
489,3886.4300000000003,0.015677297576536606
490,3889.18,0.013141817255026325
491,3891.9199999999996,0.008491430934685172
492,3894.66,0.006406793614344018
493,3897.41,0.006442725292833736
494,3900.15,0.006009075972492582
495,3902.89,0.0068458316521514285
496,3905.6400000000003,0.006687801330641147
497,3908.38,0.006420719010299994
498,3911.1200000000003,0.00685169868995884
499,3913.87,0.006543735368448558
500,3916.6099999999997,0.006455447048107404
501,3919.35,0.006251224727766251
502,3922.1,0.006285933406255969
503,3924.84,0.005991946085914815
504,3927.58,0.006038916765573661
505,3930.3199999999997,0.006829199445232507
506,3933.07,0.0058596201237222255
507,3935.81,0.007215394803381072
508,3938.55,0.006169779483039918
509,3941.2999999999997,0.005905844161529636
510,3944.04,0.006124272841188483
511,3946.7799999999997,0.006569193520847329
512,3949.53,0.0065231871993370475
513,3952.27,0.0064319648789958935
514,3955.0099999999998,0.005607947558654739
515,3957.76,0.006482093237144457
516,3960.5,0.008553784916803303
517,3963.2400000000002,0.01118559859646215
518,3965.99,0.014067318274951869
519,3968.7299999999996,0.013324517954610714
520,3971.47,0.01135093763426956
521,3974.21,0.007509403313928408
522,3976.96,0.006582379992418125
523,3979.7,0.006245099672076972
524,3982.44,0.005920291351735818
525,3985.19,0.005947909030225536
526,3987.9300000000003,0.006617607709884382
527,3990.67,0.006025707389543228
528,3993.4199999999996,0.006200079068032946
529,3996.1600000000003,0.006275422747691793
530,3998.9,0.005953061427350639
531,4001.65,0.005196523105840357
532,4004.39,0.005810697785499203
533,4007.1299999999997,0.006169521465158051
534,4009.88,0.005659285143647768
535,4012.62,0.0057334038233066145
536,4015.36,0.005379245502965461
537,4018.1,0.006019103182624308
538,4020.8500000000004,0.006642787861114025
539,4023.59,0.006434162540772871
540,4026.3300000000004,0.0063979732204317175
541,4029.08,0.006307696898921436
542,4031.8199999999997,0.006177583578580282
543,4034.56,0.005391477258239128
544,4037.31,0.005976763936728846
545,4040.05,0.005760553616387693
546,4042.79,0.00518406129604654
547,4045.5400000000004,0.005295332974536258
548,4048.28,0.005541886654195104
549,4051.02,0.00575664633385395
550,4053.77,0.005674933012343668
551,4056.5099999999998,0.0069047426920025145
552,4059.25,0.00571432937166136
553,4061.99,0.005982410051320207
554,4064.7400000000002,0.006247036729809925
555,4067.48,0.005433047409468771
556,4070.22,0.005802633089127618
557,4072.9700000000003,0.005922706767617337
558,4075.71,0.005967964447276182
559,4078.4500000000003,0.005741971126935029
560,4081.2,0.005835385805424747
561,4083.9399999999996,0.005373362485083593
562,4086.68,0.005921254164742439
563,4089.43,0.006122531843232157
564,4092.17,0.007230780522891004
565,4094.91,0.01030261320254985
566,4097.66,0.015161842881039568
567,4100.400000000001,0.016024782560698413
