,lambda (Angstroms),Total Flux (erg/s/cm^2/Angstrom)
0,102.07000000000001,0.00016849641393386667
1,103.97,0.00018534709628699334
2,104.712855,0.0001928216498044514
3,105.9,0.00020114161045585097
4,108.12,0.0002140207904965956
5,109.88,0.00023392387737574452
6,114.0,0.0002651947943882976
7,118.01,0.00029668209347090386
8,120.22644299999999,0.00033565604798234795
9,121.04,0.0003510393283378091
10,125.0,0.00039798952750008204
11,127.03,0.0004233526636868028
12,127.91,0.0004360979079450857
13,130.89,0.00047136568963790723
14,132.1,0.00048780022549304626
15,133.94,0.0005083171725785468
16,137.06,0.0005570472567670042
17,138.038426,0.0005700918064612894
18,139.93,0.0005954278819165272
19,142.86,0.0006773593314289845
20,146.85999999999999,0.0007776344522651035
21,150.98,0.0008012493007263062
22,154.85,0.0009072760166352515
23,158.489319,0.0009687947065152733
24,158.82,0.0009743841028993319
25,162.15,0.0010272467895995738
26,165.93,0.0010981436069349834
27,170.17999999999998,0.001165980785156013
28,172.95000000000002,0.0011658771248436017
29,176.98,0.0012901590703096601
30,179.85000000000002,0.0013416760612495083
31,181.93,0.0013793348072965062
32,181.970086,0.001379980449175789
33,186.17000000000002,0.001447645380933452
34,190.95000000000002,0.0015333747453823224
35,194.04999999999998,0.0015909672244182008
36,198.10999999999999,0.001658281780832932
37,201.8,0.0017282779220078965
38,205.07999999999998,0.00178082460305231
39,208.929613,0.0018246063672915282
40,209.85,0.0018350791960850487
41,216.23,0.001970764677806001
42,220.25,0.002040034075379391
43,222.8,0.0020828244544371386
44,226.94,0.0021610166698485403
45,230.1,0.0028749322062495137
46,233.83999999999997,0.0058287526955342105
47,239.83999999999997,0.013822454587434791
48,239.88329199999998,0.013824258434242835
49,245.98999999999998,0.014078630598287583
50,251.72,0.016314788429000544
51,256.99,0.009111126842239163
52,259.96,0.01728260216810609
53,264.19,0.023257918420098382
54,269.1,0.02452223085444404
55,274.1,0.02515217278351294
56,275.42287,0.024829927193988147
57,279.2,0.02390987799651153
58,283.74,0.026643455208934845
59,289.68,0.026520300812854343
60,295.74,0.024865357136044937
61,301.24,0.016656930102637062
62,308.26,0.021805922179996468
63,316.227766,0.028567763276392977
64,318.36,0.030377260576864646
65,328.03,0.03173822812183184
66,337.99999999999994,0.03181064434968321
67,348.27,0.03166465926041879
68,357.20000000000005,0.03504143005427163
69,363.078055,0.03855218168663151
70,366.36,0.04051239549298036
71,374.90000000000003,0.04032621475543266
72,385.4,0.03720352073385761
73,395.29,0.0424197446221074
74,405.43,0.04555667936698636
75,413.91999999999996,0.04545371845811283
76,416.86938299999997,0.04486268218292893
77,421.60999999999996,0.04391268831031716
78,430.44,0.04261590646365311
79,441.48,0.04524577916046273
80,450.73,0.04545548817726427
81,460.16,0.04311106756412248
82,469.8,0.043012467382713485
83,478.630092,0.04445813491744589
84,479.64,0.04462347281397718
85,489.67999999999995,0.04155223575061654
86,499.93,0.04462506812118959
87,505.71999999999997,0.044115482513932804
88,511.58000000000004,0.059920016717987246
89,519.89,0.05762068431793475
90,529.5600000000001,0.054772778251929034
91,539.4,0.04961057172767916
92,549.43,0.04881895469127406
93,549.5408739999999,0.04889600053973009
94,559.65,0.0559208055232497
95,570.05,0.05762150639889631
96,580.65,0.055663487099074586
97,590.0799999999999,0.056178338825742614
98,599.67,0.05135429041203598
99,609.4200000000001,0.047486641857954676
100,619.32,0.05643698317227212
101,629.38,0.054273194346214894
102,630.957344,0.05452722706602465
103,639.61,0.05592076319501354
104,650.0,0.05427291548227231
105,657.5300000000001,0.05170819438728275
106,665.14,0.054273253386901546
107,674.39,0.055153284325991404
108,685.35,0.05041838728733463
109,694.89,0.05377359856937973
110,704.5500000000001,0.04792624999333736
111,716.0,0.05365089353415669
112,724.43596,0.05323514450602118
113,725.9599999999999,0.05316003453603253
114,734.37,0.05303759019482731
115,744.5799999999999,0.05147282706477912
116,754.94,0.05065019403566068
117,765.44,0.04629938110074334
118,774.31,0.049610887069056024
119,785.0799999999999,0.04759582431581224
120,794.17,0.04837085043215523
121,805.2199999999999,0.04825862786731364
122,814.54,0.047925594138415586
123,825.8699999999999,0.04781572176197621
124,831.763771,0.043897501193319595
125,835.4399999999999,0.04145351033511251
126,845.11,0.04640704615041129
127,854.9,0.04545508178968481
128,864.8000000000001,0.04576764726760185
129,874.8100000000001,0.045349902584162424
130,884.94,0.044934547724697745
131,895.19,0.044520612689207824
132,905.55,0.04350838749236142
133,916.0400000000001,0.04271287210482099
134,924.5100000000001,0.08701187968037224
135,935.2199999999999,0.1260568039701189
136,946.05,0.16090688808384027
137,954.8,0.17400887524866593
138,954.992586,0.17427835780473735
139,965.86,0.1894849724465256
140,974.8,0.10485107037376157
141,986.08,0.16579606775846198
142,995.21,0.15260446564164595
143,1004.4200000000001,0.1665572635062817
144,1016.05,0.16694156080983363
145,1025.45,0.12038575863041732
146,1034.94,0.15616095643013428
147,1044.51,0.17683815421130297
148,1054.18,0.17044065196928643
149,1063.93,0.15472974970872164
150,1073.78,0.15906504742497157
151,1086.21,0.14176484454304128
152,1096.26,0.15652234221292066
153,1096.4782,0.1563299299570672
154,1103.86,0.14982053680567342
155,1114.0700000000002,0.14708472939671255
156,1124.3799999999999,0.13445502191518593
157,1134.78,0.14341061436835015
158,1145.28,0.13726970674894867
159,1155.8799999999999,0.13445529905698145
160,1163.89,0.1310920932444666
161,1174.66,0.10293758542913761
162,1185.53,0.12262337754124293
163,1193.75,0.11656477157634004
164,1204.8,0.10828396355782703
165,1215.9399999999998,0.08120245547400488
166,1224.3700000000001,0.10778944935671396
167,1235.7,0.11391434113501692
168,1244.27,0.11312703491613398
169,1255.78,0.11106472656381862
170,1258.92541,0.1106047713385703
171,1264.48,0.10979252456803204
172,1276.18,0.11157572517193372
173,1285.03,0.11029852562873116
174,1293.94,0.10317322608862552
175,1305.91,0.10222912670646339
176,1314.96,0.10557872717358394
177,1324.08,0.10175872764431755
178,1336.33,0.09853151827660776
179,1345.5900000000001,0.09921343875456756
180,1354.92,0.09695538923614046
181,1364.31,0.09301837972081026
182,1373.77,0.09111007020909316
183,1386.48,0.08965453086512654
184,1396.0900000000001,0.07354894136115177
185,1405.77,0.06959347186079008
186,1415.51,0.08405676236352534
187,1425.32,0.07990551286987366
188,1435.2,0.0815791233798351
189,1441.8300000000002,0.08101580372204605
190,1445.43977,0.0806123890409076
191,1448.48,0.08027262404007016
192,1455.17,0.07790669432988352
193,1465.26,0.0757841647669862
194,1475.41,0.07508753520668808
195,1485.64,0.07457087564985561
196,1495.94,0.07287383609605555
197,1506.31,0.07072575654528794
198,1513.26,0.06785451684636461
199,1516.75,0.06816770699755273
200,1523.75,0.06723113730079541
201,1534.3100000000002,0.06103266775825867
202,1544.95,0.05477385821918755
203,1555.66,0.05464619868314886
204,1566.44,0.05882644915014259
205,1573.67,0.060475119463348964
206,1584.58,0.06019649993597435
207,1595.56,0.05964391041163216
208,1606.62,0.057222610890755594
209,1614.04,0.055791141212192835
210,1625.22,0.05540797169651473
211,1636.4899999999998,0.05579141218473545
212,1644.04,0.054522052511804336
213,1655.44,0.05490127300565672
214,1659.58691,0.054764114498281544
215,1666.92,0.054521575505203555
216,1670.76,0.05182867672002845
217,1678.47,0.05553425915916906
218,1686.22,0.05427221161096409
219,1694.0,0.05267019407224994
220,1705.74,0.051472347786323966
221,1713.62,0.04961044027924588
222,1725.49,0.04859351403444679
223,1733.46,0.049495506555841166
224,1745.47,0.04859352035533256
225,1753.5300000000002,0.0481478029051994
226,1765.69,0.047159646752144894
227,1773.84,0.046085879330484185
228,1786.1299999999999,0.046086353218556565
229,1794.3799999999999,0.04566266582853192
230,1806.8100000000002,0.04535003976089479
231,1815.15,0.04350822239934261
232,1823.53,0.04330761505044485
233,1836.17,0.04271318904924346
234,1844.6499999999999,0.04069770173198176
235,1853.16,0.040418814424210886
236,1866.01,0.04032578848944523
237,1874.62,0.04032615121331043
238,1883.27,0.03824460394983004
239,1896.33,0.03711693808150013
240,1905.0800000000002,0.0379827208496558
241,1905.46072,0.037930506023388474
242,1913.8700000000001,0.036777187540860186
243,1927.1399999999999,0.035365762129455074
244,1936.04,0.03627310850010275
245,1944.97,0.03643934485851664
246,1953.95,0.034321101196540915
247,1967.49,0.03520183567503187
248,1976.58,0.035529491968198976
249,1985.7,0.03432110824913232
250,1994.87,0.03346249450967604
251,2004.07,0.03361926075798599
252,2013.3200000000002,0.03323302698590632
253,2027.28,0.033311131293124456
254,2036.64,0.03195842747618762
255,2046.0400000000002,0.0317381836429391
256,2055.48,0.02757787979337887
257,2064.9700000000003,0.02901107592342902
258,2074.5,0.031447372037167486
259,2079.28,0.030378450087919825
260,2084.08,0.03052024813051632
261,2093.7,0.02955155420755346
262,2103.36,0.029688680268278908
263,2113.07,0.029620076308614737
264,2122.82,0.029348732332638867
265,2132.62,0.02881294833627338
266,2147.4,0.028155082309101753
267,2157.31,0.0283508782678791
268,2167.27,0.02764143420626683
269,2177.28,0.027514110124264936
270,2187.33,0.026951666025951348
271,2187.7616199999998,0.026957006987026216
272,2197.42,0.027076528990167416
273,2202.49,0.02664354063857564
274,2212.65,0.025975913941894687
275,2222.8700000000003,0.02561867726472152
276,2233.13,0.02544245060055355
277,2243.43,0.025095233949390772
278,2253.79,0.02452297731773578
279,2264.19,0.024522860699085988
280,2274.64,0.024298164096692682
281,2285.14,0.02396511751055587
282,2295.69,0.023052160940675546
283,2306.29,0.023105074387051717
284,2316.9300000000003,0.02289331784643308
285,2327.63,0.02136523132532223
286,2332.9900000000002,0.022243933068018105
287,2343.76,0.022040056569666344
288,2354.58,0.021939340087571077
289,2365.4500000000003,0.0215887136217323
290,2376.37,0.021391387172150018
291,2387.34,0.020761370738824225
292,2392.84,0.020881642527038273
293,2403.88,0.020643626116471567
294,2414.98,0.02050211972541265
295,2426.13,0.020456013350610223
296,2437.33,0.02008377699206429
297,2442.94,0.020015148816042622
298,2454.22,0.019832962483507074
299,2465.55,0.01960731616722802
300,2476.93,0.01938427986720545
301,2482.6400000000003,0.019185281723696768
302,2494.1,0.017179165449684588
303,2505.6099999999997,0.0187949491919289
304,2511.39,0.017929281071179304
305,2511.88643,0.017970672157427803
306,2517.17,0.018411200567731795
307,2522.98,0.0183485198366374
308,2534.6200000000003,0.01822403837193193
309,2546.32,0.017934696899676434
310,2552.1899999999996,0.017915206161032007
311,2563.97,0.017752794678709802
312,2575.81,0.017714013188837575
313,2587.7,0.017513451692673654
314,2593.66,0.01729412094270419
315,2605.63,0.017137829436473562
316,2617.66,0.01690521792269291
317,2623.7,0.016847917162656736
318,2635.81,0.01673441563880938
319,2647.9700000000003,0.01673698410867033
320,2654.08,0.016565583339825794
321,2666.33,0.016266071798361703
322,2672.4700000000003,0.01613674102574215
323,2684.8100000000004,0.01610223947295302
324,2697.2000000000003,0.015774717913872197
325,2703.42,0.015721817131185943
326,2715.9,0.015508765560780078
327,2722.1600000000003,0.01535031477306047
328,2734.72,0.015177373192587901
329,2747.35,0.015006631603306965
330,2753.68,0.01488780080677899
331,2766.3900000000003,0.014788239207431352
332,2772.77,0.014806758404611688
333,2785.57,0.014640166793939004
334,2791.99,0.014128525986085988
335,2804.87,0.014196844365346604
336,2817.8199999999997,0.014331342735798851
337,2824.32,0.01415248191787913
338,2837.3500000000004,0.013929490278264674
339,2843.89,0.0138512594553116
340,2857.02,0.013727457803113763
341,2863.6099999999997,0.013681656973869
342,2876.8300000000004,0.013559575310346121
343,2883.46,0.013452474476068005
344,2884.0315,0.013447327039766309
345,2896.77,0.013332594371349583
346,2910.14,0.01324411433691893
347,2930.31,0.0129926742849768
348,2950.62,0.01271676423267414
349,2971.07,0.01256201418001095
350,2991.67,0.012352304126961478
351,3012.41,0.012146104073551474
352,3033.29,0.011943634019780939
353,3047.2900000000004,0.0117564839837279
354,3068.41,0.011560623929339315
355,3089.6800000000003,0.011368353874564446
356,3111.1,0.011204933819403294
357,3132.66,0.010993413763881613
358,3147.12,0.010821483726643972
359,3168.94,0.010641613670452736
360,3190.8999999999996,0.010417183613900967
361,3213.02,0.010291913556937163
362,3227.85,0.010130993518746693
363,3250.23,0.010032383461113334
364,3272.75,0.009866328403119443
365,3287.86,0.009734995364207912
366,3310.65,0.009596026305518713
367,3311.31121,0.009622463351455524
368,3318.28,0.009901094960754748
369,3325.9300000000003,0.009960231584158777
370,3333.6,0.00981421420657824
371,3341.29,0.009472279828013139
372,3348.9900000000002,0.009909367448955757
373,3356.71,0.009389372068913809
374,3364.45,0.009358744687887298
375,3372.2000000000003,0.009137203306368503
376,3379.97,0.009213274923865143
377,3387.77,0.009397153539884937
378,3395.5800000000004,0.00947542515541245
379,3403.3999999999996,0.00908217877044768
380,3411.25,0.009073810384006063
381,3419.11,0.009233827997072163
382,3426.99,0.009267827609153697
383,3434.89,0.009302071220250669
384,3442.81,0.009144798830363074
385,3450.75,0.009031744439490917
386,3458.7000000000003,0.008777423048126476
387,3466.68,0.008911896655285188
388,3474.67,0.008801830261951618
389,3482.6800000000003,0.008534247867633484
390,3490.71,0.008826043472330786
391,3498.75,0.008797720076535804
392,3506.82,0.008609334679263975
393,3514.9,0.008483661281499863
394,3523.0099999999998,0.008593676882258906
395,3531.13,0.008546468482525667
396,3539.27,0.008597829081807862
397,3547.43,0.008669492680105492
398,3555.6,0.008621843277910842
399,3563.7999999999997,0.008554577874239343
400,3572.02,0.008487998469583279
401,3580.25,0.008154909064434933
402,3588.5,0.008054134658302023
403,3596.78,0.008102804250692265
404,3605.07,0.008207974842590228
405,3613.38,0.008181800433503623
406,3621.71,0.008212125023432455
407,3630.06,0.008357405612376722
408,3638.4300000000003,0.008197440200336423
409,3646.81,0.008115051787803843
410,3655.2200000000003,0.008070488373794416
411,3663.65,0.008044800958800424
412,3672.09,0.00796387954331415
413,3680.56,0.00788389312635103
414,3683.44,0.0071833959845737224
415,3686.1899999999996,0.007976085849196086
416,3688.9300000000003,0.006024509714310732
417,3691.67,0.006050935579425378
418,3694.42,0.006932172444047741
419,3697.16,0.006254178309162387
420,3699.8999999999996,0.007874603174277031
421,3702.64,0.006822140039391677
422,3705.39,0.007579610904014041
423,3708.13,0.007201486769128687
424,3710.87,0.007291507634243332
425,3713.6200000000003,0.0065034104988656955
426,3716.36,0.008180091363980341
427,3719.1000000000004,0.012362613229094986
428,3721.85,0.01954716309371735
429,3724.5899999999997,0.025303142958831994
430,3727.33,0.02237445282394664
431,3730.08,0.017412132688569004
432,3732.82,0.01065363255368365
433,3735.56,0.008230972418798296
434,3738.3100000000004,0.008392616283420659
435,3741.05,0.007013385148535305
436,3743.79,0.00682726301364995
437,3746.53,0.007220332878764595
438,3749.2799999999997,0.00881210074338696
439,3752.02,0.008103779608501605
440,3754.7599999999998,0.00604824847361625
441,3757.51,0.005931557338238614
442,3760.25,0.006573373203353259
443,3762.99,0.006574116068467905
444,3765.7400000000002,0.006359831933090269
445,3768.48,0.007606275798204914
446,3771.2200000000003,0.00748277066331956
447,3773.97,0.007373900527941923
448,3776.7099999999996,0.006803282393056568
449,3779.45,0.006469671258171214
450,3782.2,0.0065657721227935775
451,3784.94,0.0075664019879082235
452,3787.68,0.006378436853022869
453,3790.42,0.006385051718137514
454,3793.17,0.008772965582759877
455,3795.9100000000003,0.009199544447874523
456,3798.65,0.00785724331298917
457,3801.3999999999996,0.0062754481776115326
458,3801.8939600000003,0.006329201096827673
459,3804.14,0.006573616065764457
460,3806.88,0.006250031958984073
461,3809.63,0.006169294851813979
462,3812.37,0.006877149745033595
463,3815.1099999999997,0.006995297638253209
464,3817.86,0.006978151531083115
465,3820.6,0.0068600254243027315
466,3823.34,0.005436028317522347
467,3826.0899999999997,0.007879463210352253
468,3828.83,0.009433850103571867
469,3831.57,0.009153562996791483
470,3834.3100000000004,0.0091633618900111
471,3837.06,0.008008372782841005
472,3839.7999999999997,0.006112317676060621
473,3842.54,0.005895863569280236
474,3845.29,0.007869442462110143
475,3848.03,0.0068773953553297575
476,3850.77,0.006603220248549373
477,3853.5199999999995,0.007606016141379279
478,3856.26,0.007813196034598893
479,3859.0,0.007679662927818509
480,3861.75,0.010417336820648417
481,3864.49,0.013020286713868031
482,3867.23,0.013018836607087646
483,3869.98,0.010755846499917553
484,3872.7200000000003,0.008404366393137167
485,3875.46,0.007313993286356783
486,3878.2100000000005,0.007556601179186689
487,3880.9500000000003,0.009955067072406306
488,3883.69,0.01292245596562592
489,3886.4300000000003,0.015676825858845535
490,3889.18,0.013141345751675441
491,3891.9199999999996,0.008490959644895057
492,3894.66,0.006406322538114673
493,3897.41,0.006442254430944579
494,3900.15,0.006008605324164194
495,3902.89,0.006845361217383809
496,3905.6400000000003,0.006687331110213715
497,3908.38,0.006420249003433331
498,3911.1200000000003,0.006851228896652946
499,3913.87,0.006543265789482853
500,3916.6099999999997,0.006454977682702468
501,3919.35,0.006250755575922084
502,3922.1,0.00628546446875199
503,3924.84,0.005991477361971605
504,3927.58,0.006038448255191221
505,3930.3199999999997,0.006828731148410836
506,3933.07,0.005859152041240742
507,3935.81,0.007214926934460357
508,3938.55,0.0061693118276799725
509,3941.2999999999997,0.005905376720509879
510,3944.04,0.006123805613729494
511,3946.7799999999997,0.00656872650694911
512,3949.53,0.006522720399779016
513,3952.27,0.006431498292998631
514,3955.0099999999998,0.005607481186218246
515,3957.76,0.006481627079048152
516,3960.5,0.008553318972267767
517,3963.2400000000002,0.011185132865487384
518,3965.99,0.01406685275831729
519,3968.7299999999996,0.013324052651536905
520,3971.47,0.01135047254475652
521,3974.21,0.007508938437976136
522,3976.96,0.006581915330806041
523,3979.7,0.0062446352240256575
524,3982.44,0.005919827117245272
525,3985.19,0.0059474450100751785
526,3987.9300000000003,0.006617143903294794
527,3990.67,0.0060252437965144096
528,3993.4199999999996,0.0061996156893443155
529,3996.1600000000003,0.006274959582563931
530,3998.9,0.005952598475783546
531,4001.65,0.005196060368613452
532,4004.39,0.005810235261833068
533,4007.1299999999997,0.0061690591550526835
534,4009.88,0.005658823047882589
535,4012.62,0.005732941941102205
536,4015.36,0.005378783834321821
537,4018.1,0.006018641727541436
538,4020.8500000000004,0.006642326620371342
539,4023.59,0.006433701513590957
540,4026.3300000000004,0.006397512406810572
541,4029.08,0.006307236299640479
542,4031.8199999999997,0.006177123192860094
543,4034.56,0.00539101708607971
544,4037.31,0.005976303978909615
545,4040.05,0.005760093872129231
546,4042.79,0.005183601765348847
547,4045.5400000000004,0.005294873658178753
548,4048.28,0.005541427551398368
549,4051.02,0.005756187444617983
550,4053.77,0.005674474337447889
551,4056.5099999999998,0.006904284230667505
552,4059.25,0.00571387112388712
553,4061.99,0.005981952017106736
554,4064.7400000000002,0.006246578909936642
555,4067.48,0.0054325898031562575
556,4070.22,0.0058021756963758725
557,4072.9700000000003,0.005922249589205779
558,4075.71,0.005967507482425394
559,4078.4500000000003,0.0057415143756450095
560,4081.2,0.005834929268474916
561,4083.9399999999996,0.00537290616169453
562,4086.68,0.005920798054914147
563,4089.43,0.006122075947744053
564,4092.17,0.007230324840963668
565,4094.91,0.010302157734183285
566,4097.66,0.01516138762701319
567,4100.400000000001,0.016024327520232803
