,lambda (Angstroms),Total Flux (erg/s/cm^2/Angstrom)
0,102.00000000000001,0.0001239105207574778
1,103.9,0.00014496091209471702
2,104.712855,0.00015398143643014563
3,106.07000000000001,0.00014162074150026103
4,108.05,0.00012365834977276497
5,110.06,0.00010584327588273098
6,113.91999999999999,7.091490063619823e-05
7,117.92999999999999,3.455582757697623e-05
8,120.22644299999999,1.862369787475795e-05
9,120.95,1.994597813452259e-05
10,124.91,1.9748587798756854e-05
11,126.94,1.9464234747846638e-05
12,128.12,1.9422660708401288e-05
13,131.1,1.897521287997152e-05
14,132.01,2.038303840887384e-05
15,133.85,2.0140174313467537e-05
16,136.97,2.1678460412561197e-05
17,138.038426,2.1581279887923055e-05
18,140.16,2.2258659934102864e-05
19,143.09,4.353114396396636e-05
20,147.10000000000002,8.199866736319933e-05
21,150.87,8.570715534701688e-05
22,155.1,9.038008454371399e-05
23,158.489319,9.495651164829249e-05
24,159.07999999999998,9.57493191776255e-05
25,162.04,9.941774280405432e-05
26,165.80999999999997,0.00010556995448366129
27,170.06,0.00011036467945404052
28,172.82999999999998,0.00011436145761120532
29,176.85,0.00011931609017142283
30,180.14,0.00012308136856025757
31,181.81,0.000125872130842736
32,181.970086,0.00012605636169068585
33,186.04,0.00013086425982985063
34,190.81,0.0001373069818811868
35,193.91,0.00014176460250155197
36,197.98,0.0001467117263482895
37,202.12,0.00015219427001548694
38,204.93,0.000156067937093947
39,208.929613,0.0001563650648418164
40,210.19,0.0001565061774620205
41,216.07999999999998,0.00017013769665694988
42,220.1,0.000176214685139737
43,223.16,0.00017837788085051524
44,226.78,0.00018471863067829868
45,229.94,0.00027523993605282784
46,234.21,0.00044996359869499224
47,239.88329199999998,0.0005355912563808446
48,240.22000000000003,0.0005406455367856245
49,245.82,0.0005079950034386743
50,252.11999999999998,0.0005243306659233555
51,256.81,0.00043542263799528473
52,259.78000000000003,0.0004971747060237774
53,264.0,0.0005132127380373256
54,268.91,0.0005048698373706248
55,273.90999999999997,0.0004954795933108479
56,275.42287,0.0004927486140497875
57,279.0,0.00048656606644209213
58,284.19,0.00047902750979088565
59,290.14000000000004,0.0004494887959036643
60,296.21999999999997,0.0004497194380155457
61,301.03000000000003,0.0004337496099823467
62,308.04,0.00043105923731857833
63,316.227766,0.00042819804394729754
64,318.14000000000004,0.000427398424382045
65,327.79999999999995,0.00041368479189274316
66,337.76,0.0003985556441087425
67,348.03000000000003,0.00038305839052021976
68,356.95,0.0003758511557578417
69,363.078055,0.0003756723938385219
70,366.10999999999996,0.0003757407733419927
71,374.64,0.00036826127491169165
72,385.13,0.00034805871576352543
73,395.01,0.00036537972602244983
74,405.15000000000003,0.0003792018312881881
75,413.63,0.0003820129992027305
76,416.86938299999997,0.00038111055388411445
77,422.29,0.00037955128597355245
78,430.14,0.00038052327423436944
79,441.17999999999995,0.00041137065797951835
80,451.45,0.0004307315669525872
81,459.84,0.00042888620115746033
82,469.47,0.0004531559038264625
83,478.630092,0.0004952987938380181
84,480.41,0.0005034316669825322
85,490.47,0.0004952500332429835
86,499.59000000000003,0.0005836714656779055
87,506.53999999999996,0.0005742852030049568
88,512.4,0.000841765881959852
89,519.53,0.0008651212087428556
90,530.41,0.0008870005491915346
91,540.27,0.0008393262827231498
92,549.5408739999999,0.0009039083391417138
93,550.3199999999999,0.0009093452010325827
94,560.55,0.0011705846125119389
95,569.65,0.0013528487840136145
96,580.25,0.0014066222475210609
97,589.67,0.001549105561317301
98,600.64,0.0014726658768528377
99,610.4,0.0015172162168370523
100,620.3100000000001,0.001953829686021844
101,630.39,0.0019900741683006235
102,630.957344,0.0020040587548394314
103,640.64,0.0022428606437724413
104,649.55,0.0023216823666457804
105,658.58,0.002290038028547716
106,664.68,0.0025868317625014053
107,675.48,0.002803848275075149
108,684.8799999999999,0.0026229848323152593
109,694.4,0.003116959328583967
110,705.69,0.0027848086755244824
111,715.5,0.0035213934411123
112,724.43596,0.003677782555751315
113,725.46,0.0036957009264793755
114,735.55,0.003843224850356423
115,745.7800000000001,0.0039326343975578295
116,754.42,0.004070793865575439
117,764.9100000000001,0.0038877815703792277
118,775.55,0.004412216943030544
119,784.53,0.004321841924835885
120,795.45,0.004695029544135919
121,804.66,0.004927644549974136
122,815.85,0.005100698371399722
123,825.3000000000001,0.005340899445793983
124,831.763771,0.004803696225096252
125,834.86,0.004546325171752832
126,844.52,0.005566767409299908
127,854.3000000000001,0.005643930482096013
128,864.1899999999999,0.0059644574872037325
129,874.1999999999999,0.006159580327560484
130,884.3199999999999,0.006346573100228849
131,894.56,0.006524218708146245
132,904.9200000000001,0.006554184151312673
133,915.4,0.006974330429728133
134,926.0,0.021496732543392627
135,934.5699999999999,0.039296039360760995
136,945.39,0.0646155143390487
137,954.14,0.08401013940929063
138,954.992586,0.08488503791250797
139,965.1899999999999,0.09534940548941336
140,974.12,0.02596319178937078
141,985.4,0.08420363448405387
142,994.52,0.08420358049252102
143,1006.03,0.11151240283434746
144,1015.34,0.10722918855132436
145,1024.73,0.05449388414556852
146,1034.22,0.08323940958639675
147,1046.19,0.13593484122250993
148,1055.87,0.13283872637184785
149,1065.64,0.10998621138311149
150,1075.5,0.12541109625630076
151,1085.45,0.10431158099141571
152,1095.5,0.12892176557311474
153,1096.4782,0.12841636395788875
154,1105.6299999999999,0.12368792012874313
155,1115.8600000000001,0.12004317100795697
156,1126.19,0.10797392140700672
157,1134.0,0.12981888390619148
158,1144.49,0.11976303353697867
159,1155.08,0.1236870826876018
160,1165.77,0.1256985313580608
161,1173.8500000000001,0.09001535256080254
162,1184.71,0.12004074041498262
163,1195.67,0.09147875778899861
164,1203.96,0.07233175798339574
165,1215.1000000000001,0.04946936449311637
166,1226.3400000000001,0.08616555052267291
167,1234.84,0.11731169970872547
168,1246.27,0.12598464482597024
169,1254.9099999999999,0.12171110333979307
170,1258.92541,0.11595007840854636
171,1263.61,0.1092289856591998
172,1275.3,0.1310127896517741
173,1284.14,0.13499969267096631
174,1296.02,0.11280459672843274
175,1305.0,0.11151159979544019
176,1314.05,0.1313193028863553
177,1326.2099999999998,0.12569720703945222
178,1335.3999999999999,0.11463671017818258
179,1344.66,0.12892021334082054
180,1353.98,0.12512191652395077
181,1366.51,0.11437442080341666
182,1375.98,0.11703352403777752
183,1385.52,0.11731142729604602
184,1395.12,0.09938904057480678
185,1404.79,0.10053933387747516
186,1414.53,0.10897893720405118
187,1424.33,0.10897984055111945
188,1434.21,0.10923064392551073
189,1440.83,0.1130636461864895
190,1445.43977,0.11360545170556086
191,1447.4799999999998,0.11384524834572905
192,1454.1599999999999,0.11048765026054426
193,1464.24,0.10359105314996601
194,1474.3899999999999,0.10311575605945321
195,1484.6100000000001,0.10383315898900582
196,1494.9,0.10430946193862387
197,1505.26,0.09938944490830734
198,1512.21,0.0906441669005178
199,1515.69,0.09490927789805625
200,1526.2,0.09275456091073707
201,1533.2399999999998,0.08172039292874593
202,1543.87,0.08343194597582464
203,1554.5700000000002,0.08004426904296875
204,1565.3500000000001,0.08343104213304481
205,1576.2,0.08796812524318628
206,1583.4799999999998,0.09064382732999089
207,1594.45,0.09169546047453024
208,1605.5,0.08898816364200153
209,1616.63,0.08837565683240473
210,1624.1,0.08498132897367264
211,1635.3500000000001,0.0887829521984737
212,1646.69,0.08898740544907319
213,1654.29,0.08439717762760547
214,1659.58691,0.08670620704482596
215,1665.76,0.0893971920683594
216,1673.45,0.08134383816617372
217,1677.3,0.09022216622554759
218,1685.05,0.09169444244896253
219,1696.73,0.08696122689921885
220,1704.56,0.08400965329010131
221,1716.3700000000001,0.08004413801249233
222,1724.29,0.07912796459177573
223,1736.25,0.08304761962816835
224,1744.26,0.08097136639585269
225,1756.3500000000001,0.08420413170438
226,1764.4599999999998,0.07876425868139873
227,1776.6899999999998,0.07949360428299418
228,1784.89,0.08022852144841386
229,1793.13,0.0834317486975673
230,1805.56,0.08266688471783153
231,1813.8899999999999,0.07732746215538591
232,1826.47,0.0782218984896517
233,1834.8999999999999,0.07574131613654048
234,1843.36,0.07036140384622956
235,1856.14,0.07036138059916414
236,1864.71,0.07166907853912105
237,1873.32,0.07539285656281171
238,1886.3,0.07003846373441505
239,1895.01,0.06719425196744012
240,1903.76,0.07052380028419893
241,1905.46072,0.07019495499768863
242,1916.95,0.06797337284236633
243,1925.8,0.0659677089620261
244,1934.69,0.0678165349737521
245,1943.6200000000001,0.07003795087754437
246,1957.09,0.06551469453085701
247,1966.13,0.07003759013783149
248,1975.2,0.07150454566385567
249,1984.32,0.06797238105496269
250,1993.48,0.06611996633813592
251,2007.3,0.06734939904702834
252,2016.56,0.06566485406036725
253,2025.87,0.06750452893878897
254,2035.22,0.06431840370927697
255,2044.6100000000001,0.06566510837183122
256,2054.05,0.06086029289946828
257,2063.53,0.06199148731917162
258,2073.06,0.06642511160395777
259,2077.84,0.06358168870587569
260,2082.63,0.06521188578081018
261,2097.06,0.062134456843713035
262,2106.74,0.06256524072374765
263,2116.47,0.0628532144688651
264,2126.2400000000002,0.06314387810604881
265,2136.0499999999997,0.059886641635298776
266,2145.91,0.060302095029631554
267,2155.81,0.061848538316030606
268,2165.77,0.05988634144052904
269,2175.7599999999998,0.05947445448407717
270,2185.81,0.05838857736572469
271,2187.7616199999998,0.05873224115202393
272,2195.89,0.06016361958672914
273,2206.0299999999997,0.05865842140161192
274,2216.21,0.05640671330254947
275,2226.44,0.05499582531105548
276,2236.7200000000003,0.05719085742712994
277,2247.04,0.055250279629259165
278,2257.41,0.05337425193895685
279,2262.62,0.053992073147589914
280,2273.06,0.05461804560788343
281,2283.56,0.0552497981972591
282,2294.09,0.052436370851175834
283,2304.68,0.05273590363417472
284,2315.3199999999997,0.051001256524742064
285,2326.01,0.043157299522877855
286,2336.75,0.048253402628582104
287,2347.5299999999997,0.046990515820341125
288,2352.94,0.049232587459248016
289,2363.8,0.04642309082311656
290,2374.71,0.04712167429455356
291,2385.68,0.04443210789507271
292,2396.69,0.04625790158164662
293,2407.75,0.044944255375788986
294,2413.2999999999997,0.04538601731588755
295,2424.44,0.04703362128213944
296,2435.63,0.0454892053559598
297,2446.87,0.047033009537348604
298,2452.5099999999998,0.04641432167107039
299,2463.83,0.045934776024568726
300,2475.21,0.04463186050714921
301,2486.63,0.04499309507578445
302,2492.36,0.04134218740312946
303,2503.8700000000003,0.045908792165387936
304,2511.88643,0.0432755092414803
305,2515.4300000000003,0.04211148646118214
306,2527.04,0.041870696794272515
307,2532.86,0.04208825194832816
308,2544.5499999999997,0.041464382214807624
309,2556.3,0.043369552431328895
310,2562.1899999999996,0.04240692752709998
311,2574.02,0.04394931767701034
312,2585.9,0.043397257785288856
313,2597.83,0.04285325785193556
314,2603.82,0.04161405286444301
315,2615.8399999999997,0.04109248285615242
316,2627.92,0.04219668279790365
317,2633.97,0.043007687760452905
318,2646.1299999999997,0.04529617763559322
319,2652.23,0.045848602556510645
320,2664.47,0.042644062365040036
321,2676.77,0.04379074212361124
322,2682.9399999999996,0.04381754698624411
323,2695.3300000000004,0.04199274666987803
324,2707.77,0.042629386311880124
325,2714.01,0.040924451116228444
326,2726.54,0.040598240683293256
327,2732.82,0.04176205545433612
328,2745.44,0.037959484946463645
329,2758.1099999999997,0.03853502439695935
330,2764.47,0.03945700910139129
331,2777.23,0.040520088476949705
332,2783.63,0.03872084314807619
333,2796.48,0.03345735244869732
334,2802.9300000000003,0.03497554707819198
335,2815.86,0.0396564763122022
336,2822.3500000000004,0.04079333090839139
337,2835.38,0.03945811005913796
338,2841.92,0.038584284613695334
339,2855.03,0.03732202369783098
340,2868.21,0.03985850272368208
341,2874.83,0.03988435721162853
342,2884.0315,0.03972926232405003
343,2888.1,0.03966068948079627
344,2894.75,0.03950391936747965
345,2908.1099999999997,0.041610279139824
346,2928.27,0.04018348879629572
347,2948.5699999999997,0.03934570845038182
348,2969.01,0.03960422810208232
349,2989.5899999999997,0.039318867751397195
350,3010.31,0.03930618739832646
351,3031.18,0.039203697042699714
352,3052.19,0.03901255668468735
353,3073.3500000000004,0.03891116632411898
354,3087.53,0.03869571608249046
355,3108.93,0.03868499571783246
356,3130.48,0.03796939535061844
357,3152.18,0.03787243498084841
358,3166.73,0.03783740473291506
359,3188.68,0.03612598435888501
360,3210.79,0.036873663982128546
361,3233.04,0.035450663602986474
362,3247.97,0.03708747334857787
363,3270.48,0.037944192965005376
364,3293.15,0.03758941257870645
365,3308.35,0.03712623231969704
366,3311.31121,0.03713631240648725
367,3323.62,0.03717820825976088
368,3331.2799999999997,0.03737681576458525
369,3338.96,0.035474123262894806
370,3346.6600000000003,0.03725819075468954
371,3354.37,0.03593641824322687
372,3362.1099999999997,0.034901085721991965
373,3369.86,0.03573966319749965
374,3377.62,0.03471082066974993
375,3385.41,0.035626618132227984
376,3393.2200000000003,0.03690514558819122
377,3401.04,0.038495253040897036
378,3408.88,0.03562213048708804
379,3416.74,0.03572980792676422
380,3424.61,0.037441335363183004
381,3432.5099999999998,0.038340942789829545
382,3440.42,0.03689615021321869
383,3448.35,0.034777247630093
384,3456.2999999999997,0.034963025040452504
385,3464.27,0.03364574244429719
386,3472.25,0.036078249844884454
387,3480.26,0.0339286072356995
388,3488.28,0.035308784623257136
389,3496.32,0.034849872004299946
390,3504.38,0.035524299378827943
391,3512.46,0.03482114674684112
392,3520.56,0.03590570410833948
393,3528.67,0.03330371146658043
394,3536.8100000000004,0.03562915881504915
395,3544.9599999999996,0.03640235616026046
396,3553.13,0.03668259349895695
397,3561.32,0.036039590831138626
398,3569.53,0.03350491815680548
399,3577.7599999999998,0.033069335475957515
400,3586.01,0.03153221278859473
401,3594.28,0.03350209009471713
402,3602.5600000000004,0.03584298739758212
403,3610.87,0.03370767469067488
404,3619.19,0.03499892198051023
405,3627.5299999999997,0.03617254926383076
406,3635.9,0.033628696537379064
407,3644.2799999999997,0.03656288380766996
408,3652.68,0.03438467107144603
409,3661.1,0.03773118832870729
410,3669.54,0.03681539557945373
411,3669.76,0.037696205507790716
412,3672.5,0.03236171461526054
413,3675.23,0.039061903725987765
414,3677.97,0.033406862833457576
415,3680.7000000000003,0.0308623119441848
416,3683.44,0.030732931051654616
417,3686.1699999999996,0.033188760162381835
418,3688.9100000000003,0.033304489269851655
419,3691.64,0.027228518380578878
420,3694.38,0.025088767488048693
421,3697.11,0.03322825659877592
422,3699.85,0.03324701570624573
423,3702.58,0.03660613481697296
424,3705.3199999999997,0.04004136392444277
425,3708.05,0.038421673035169995
426,3710.79,0.04207419214263981
427,3713.52,0.04296232125336703
428,3716.25,0.04051208036409426
429,3718.99,0.06278066947156408
430,3721.7200000000003,0.1302597085822913
431,3724.46,0.22337110768976112
432,3727.19,0.28881950680048835
433,3729.9300000000003,0.24682410590795814
434,3732.66,0.15339850501868538
435,3735.3999999999996,0.07160427412615519
436,3738.13,0.04355593323688242
437,3740.87,0.03365471234435223
438,3743.6000000000004,0.03734965145507946
439,3746.34,0.028797990562549274
440,3749.0699999999997,0.03347431967327649
441,3751.81,0.031357888780746315
442,3754.54,0.03662323789147354
443,3757.28,0.03985376699894335
444,3760.0099999999998,0.04074907610967058
445,3762.7500000000005,0.03239585521714039
446,3765.48,0.035956994327867614
447,3768.22,0.03357209343533744
448,3770.9500000000003,0.03865607254606465
449,3773.69,0.03968226165353447
450,3776.4199999999996,0.03413874076426169
451,3779.16,0.04050651987173151
452,3781.89,0.03623981898245874
453,3784.63,0.04105153808992855
454,3787.36,0.04615079720065578
455,3790.1,0.04618658630812558
456,3792.83,0.04015193541885281
457,3795.5699999999997,0.04120057452632263
458,3798.3,0.04071851363704985
459,3801.04,0.03707744274451967
460,3801.8939600000003,0.037850698554262346
461,3803.77,0.03954944198257748
462,3806.51,0.04866566127601659
463,3809.24,0.04278366057203439
464,3811.98,0.0451216698654735
465,3814.71,0.04007739916149129
466,3817.45,0.0380704984549304
467,3820.1800000000003,0.0423158477509482
468,3822.92,0.04606444704438731
469,3825.65,0.041538266340405104
470,3828.39,0.03657459563384421
471,3831.12,0.03614998492986201
472,3833.86,0.036730824223301116
473,3836.5899999999997,0.03812893351931891
474,3839.3300000000004,0.03220902281275802
475,3842.06,0.03290497210877582
476,3844.7999999999997,0.04222054140221493
477,3847.53,0.04232390069823272
478,3850.27,0.046977569991671825
479,3852.9999999999995,0.040064789287689626
480,3855.74,0.044016318581128734
481,3858.47,0.05237763787714653
482,3861.21,0.057093237170585634
483,3863.94,0.04801295646660344
484,3866.6800000000003,0.055645825760042546
485,3869.41,0.05734119505606034
486,3872.1499999999996,0.05326011434949945
487,3874.88,0.047541553645517244
488,3877.61,0.043941992941535044
489,3880.3500000000004,0.03510658223497415
490,3883.08,0.03566965153099194
491,3885.8199999999997,0.04285183082443106
492,3888.55,0.04310066012044885
493,3891.29,0.03737196941388796
494,3894.0200000000004,0.03569478870990575
495,3896.76,0.037475218003344864
496,3899.49,0.035550227299362656
497,3902.23,0.04314542659280177
498,3904.96,0.04411706588881956
499,3907.7000000000003,0.04334026518225867
500,3910.43,0.042267384478276465
501,3913.17,0.04628984377171558
502,3915.9,0.04492965306773337
503,3918.64,0.039241362361172476
504,3921.3700000000003,0.042546621657190274
505,3924.11,0.03842247095062938
506,3926.8399999999997,0.03820887024664718
507,3929.58,0.03408563954008628
508,3932.31,0.029066478836104085
509,3935.0499999999997,0.030433898129543193
510,3937.78,0.036692317425560984
511,3940.52,0.03872415671900009
512,3943.25,0.03270654601501789
513,3945.99,0.042858065308457004
514,3948.72,0.05110625460447479
515,3951.46,0.0444257838979139
516,3954.19,0.044662933193931706
517,3956.9300000000003,0.04480379248737081
518,3959.66,0.0347420717833886
519,3962.3999999999996,0.04251146107682771
520,3965.13,0.037301970372845515
521,3967.87,0.04146450966628462
522,3970.6000000000004,0.040923178962302416
523,3973.34,0.03921976825574152
524,3976.0699999999997,0.03634389755175932
525,3978.81,0.03789536684519843
526,3981.54,0.039521556141216226
527,3984.28,0.03929249543465533
528,3987.01,0.04214879473067313
529,3989.7500000000005,0.03776426402411224
530,3992.48,0.04718599332013003
531,3995.22,0.04759800261356914
532,3997.9500000000003,0.04467816190958694
533,4000.69,0.04842495120302605
534,4003.4199999999996,0.04576551049904384
535,4006.1600000000003,0.04027476979248295
536,4008.89,0.04540274908850075
537,4011.63,0.049999848381939854
538,4014.36,0.04869173767795765
539,4017.1,0.04309144697139675
540,4019.83,0.043363616267414556
541,4022.5699999999997,0.046786275560853664
542,4025.3,0.05032051485687146
543,4028.04,0.044887224150310566
544,4030.77,0.040209303446328365
545,4033.51,0.04290916273976747
546,4036.24,0.04396339203578527
547,4038.98,0.04736450132922437
548,4041.71,0.04548622062524217
549,4044.44,0.04819259992125997
550,4047.1800000000003,0.04575468921469908
551,4049.91,0.04303147851071687
552,4052.6499999999996,0.04415014780415598
553,4055.38,0.041443087100173776
554,4058.12,0.038851656393612884
555,4060.85,0.04355673568963068
556,4063.59,0.048243634983069786
557,4066.3199999999997,0.047454494279087586
558,4069.06,0.046262873572526696
559,4071.79,0.045483612868544486
560,4074.53,0.045478112161983594
561,4077.2599999999998,0.045711671458001396
562,4079.9999999999995,0.046975790751440503
563,4082.73,0.0464165200474583
564,4085.47,0.0465097793408974
565,4088.2000000000003,0.043373538636915204
566,4090.94,0.04152825793035431
