,lambda (Angstroms),Total Flux (erg/s/cm^2/Angstrom)
0,102.07000000000001,0.028633219177359948
1,103.97,0.028565721983542316
2,104.712855,0.028540218515189866
3,105.9,0.028283733622865917
4,108.12,0.027801419061952288
5,109.88,0.02742873611996672
6,114.0,0.026540998833045927
7,118.01,0.02567801455499924
8,120.22644299999999,0.025222588193843067
9,121.04,0.025084930989644875
10,125.0,0.024386954504097374
11,127.03,0.02403044865797075
12,127.91,0.023877654638960195
13,130.89,0.023352346279128987
14,132.1,0.023141164327989475
15,133.94,0.02281555372460376
16,137.06,0.022277371875384516
17,138.038426,0.02210636197143894
18,139.93,0.0218772744940684
19,142.86,0.021565110333374993
20,146.85999999999999,0.021127370969288444
21,150.98,0.020596830898279288
22,154.85,0.020182328600025546
23,158.489319,0.01975434570559199
24,158.82,0.01972630966146055
25,162.15,0.019440559857825376
26,165.93,0.019127085740185446
27,170.17999999999998,0.01876275983014056
28,172.95000000000002,0.018480987521711296
29,176.98,0.01819547717406873
30,179.85000000000002,0.01795515697363841
31,181.93,0.017781310020016438
32,181.970086,0.0177778794996472
33,186.17000000000002,0.017519714851601295
34,190.95000000000002,0.017234611529604427
35,194.04999999999998,0.017051705822870064
36,198.10999999999999,0.016804045335985698
37,201.8,0.01658777105603414
38,205.07999999999998,0.01638585514052165
39,208.929613,0.016130983697529397
40,209.85,0.01608776872140124
41,216.23,0.015851297495780257
42,220.25,0.015686073168664848
43,222.8,0.015580117528330443
44,226.94,0.015416816206375765
45,230.1,0.015946403342275095
46,233.83999999999997,0.01868206300311797
47,239.83999999999997,0.02632577426115467
48,239.88329199999998,0.026325052808875836
49,245.98999999999998,0.026304988824163072
50,251.72,0.028283639806279286
51,256.99,0.020843143822990004
52,259.96,0.028881147012673275
53,264.19,0.034666366585858546
54,269.1,0.03571002306442583
55,274.1,0.036115264427528986
56,275.42287,0.03573356891046437
57,279.2,0.03468320935106039
58,283.74,0.03726015731239882
59,289.68,0.03693207389617642
60,295.74,0.035068061219020244
61,301.24,0.02666988509288839
62,308.26,0.03157668832826192
63,316.227766,0.03806364281201535
64,318.36,0.039818215624955786
65,328.03,0.04093009240670139
66,337.99999999999994,0.04074569013307198
67,348.27,0.040335158804067565
68,357.20000000000005,0.04348190058907152
69,363.078055,0.046841238653054104
70,366.36,0.048738118894562366
71,374.90000000000003,0.04838713690539752
72,385.4,0.04506181839412926
73,395.29,0.0500871893106585
74,405.43,0.05302844669120516
75,413.91999999999996,0.05276164940923684
76,416.86938299999997,0.05211369720783534
77,421.60999999999996,0.05109384434783494
78,430.44,0.04966694128305908
79,441.48,0.052134125616566954
80,450.73,0.052207524184044105
81,460.16,0.04972414059391541
82,469.8,0.04948348281991322
83,478.630092,0.05079902778079746
84,479.64,0.05095292416303987
85,489.67999999999995,0.04776794128970412
86,499.93,0.0507246487048743
87,505.71999999999997,0.05014946665939482
88,511.58000000000004,0.06588761137675064
89,519.89,0.06349413279334228
90,529.5600000000001,0.06053667274501989
91,539.4,0.055262986263583266
92,549.43,0.05435773670984247
93,549.5408739999999,0.054433526437488236
94,559.65,0.06137095119259635
95,570.05,0.06298175761292807
96,580.65,0.06093211511826617
97,590.0799999999999,0.06136545677631695
98,599.67,0.05645851530237283
99,609.4200000000001,0.05250659069643382
100,619.32,0.06137135940424959
101,629.38,0.059120614980070464
102,630.957344,0.05936101361529135
103,639.61,0.060695243631944056
104,650.0,0.05897618188883192
105,657.5300000000001,0.056359849470580294
106,665.14,0.05887274881946544
107,674.39,0.059689379394654345
108,685.35,0.0548793614923917
109,694.89,0.05816918472345139
110,704.5500000000001,0.05225562560521624
111,716.0,0.05790178977666629
112,724.43596,0.057428219890816846
113,725.9599999999999,0.05734535631049245
114,734.37,0.057180125780654574
115,744.5799999999999,0.055563418894846645
116,754.94,0.05468807897937455
117,765.44,0.050283846902882554
118,774.31,0.053550226415407895
119,785.0799999999999,0.05148037088552039
120,794.17,0.05220915128787161
121,805.2199999999999,0.05204071143594432
122,814.54,0.05166026185947714
123,825.8699999999999,0.05149274768551007
124,831.763771,0.04754454233709559
125,835.4399999999999,0.04508657873944763
126,845.11,0.05000336048137576
127,854.9,0.04901418594709204
128,864.8000000000001,0.04928912315961412
129,874.8100000000001,0.048833332118941995
130,884.94,0.04837947480205802
131,895.19,0.0479265812089622
132,905.55,0.04687497936267217
133,916.0400000000001,0.046039593217152626
134,924.5100000000001,0.0903064077211993
135,935.2199999999999,0.12931062506929136
136,946.05,0.16411954614117158
137,954.8,0.17718827600072393
138,954.992586,0.17745702656920756
139,965.86,0.1926232151145842
140,974.8,0.10795605680423509
141,986.08,0.1688590932985597
142,995.21,0.15563352815611145
143,1004.4200000000001,0.1695520654001478
144,1016.05,0.16989309983534243
145,1025.45,0.12330233024727962
146,1034.94,0.15904222584401195
147,1044.51,0.17968382382722883
148,1054.18,0.17325034979355144
149,1063.93,0.15750317814635864
150,1073.78,0.16180183448227153
151,1086.21,0.14445539278231187
152,1096.26,0.1591755050844362
153,1096.4782,0.1589822811383097
154,1103.86,0.1524504091638068
155,1114.0700000000002,0.14968351058684573
156,1124.3799999999999,0.13702240742049226
157,1134.78,0.14594633012368563
158,1145.28,0.13977344823748666
159,1155.8799999999999,0.13692676176189528
160,1163.89,0.13353916415156636
161,1174.66,0.10535185987400797
162,1185.53,0.1250045510070572
163,1193.75,0.1189209137590043
164,1204.8,0.11060645663114727
165,1215.9399999999998,0.08349102537283712
166,1224.3700000000001,0.11005234848706022
167,1235.7,0.11614273850890455
168,1244.27,0.11532933519797833
169,1255.78,0.1132319769589164
170,1258.92541,0.11276244343095118
171,1264.48,0.11193813531986464
172,1276.18,0.1136959303250786
173,1285.03,0.1123995137264584
174,1293.94,0.10525486684581364
175,1305.91,0.10428477558191715
176,1314.96,0.10761472470988181
177,1324.08,0.10377492184215115
178,1336.33,0.10052111259547346
179,1345.5900000000001,0.1011829257363522
180,1354.92,0.09890461688153565
181,1364.31,0.09494721774469454
182,1373.77,0.09301836661215813
183,1386.48,0.09153522853662563
184,1396.0900000000001,0.07540877169902786
185,1405.77,0.07143228286573479
186,1415.51,0.08587442375041719
187,1425.32,0.08170187263940427
188,1435.2,0.08335402953269606
189,1441.8300000000002,0.08277631336898397
190,1445.43977,0.0823650603657964
191,1448.48,0.08202068733949501
192,1455.17,0.07964461770885703
193,1465.26,0.07750679490270797
194,1475.41,0.07679478115816754
195,1485.64,0.07626261616243862
196,1495.94,0.07454996507191976
197,1506.31,0.07238616788661098
198,1513.26,0.0695043941896104
199,1516.75,0.06981229460651224
200,1523.75,0.06886511512751885
201,1534.3100000000002,0.06265063997063738
202,1544.95,0.056375703562567415
203,1555.66,0.056231811059707516
204,1566.44,0.06039572246205768
205,1573.67,0.06203343438589736
206,1584.58,0.061738278755066225
207,1595.56,0.06116904702944515
208,1606.62,0.05873098405263558
209,1614.04,0.057288268004902575
210,1625.22,0.05688815315131027
211,1636.4899999999998,0.057254511890130894
212,1644.04,0.05597370880921658
213,1655.44,0.05633565051485591
214,1659.58691,0.05619220660575894
215,1666.92,0.05594188099391952
216,1670.76,0.05324490471671257
217,1678.47,0.05694230031638296
218,1686.22,0.05567202345483246
219,1694.0,0.05406174474736627
220,1705.74,0.05285143237903041
221,1713.62,0.050981157518511955
222,1725.49,0.04995162715120815
223,1733.46,0.05084515675294266
224,1745.47,0.04993041777136568
225,1753.5300000000002,0.049476141835353156
226,1765.69,0.04847507362419778
227,1773.84,0.04739265215043821
228,1786.1299999999999,0.047380075940314896
229,1794.3799999999999,0.04694762831350307
230,1806.8100000000002,0.04662180348910658
231,1815.15,0.04477113032454771
232,1823.53,0.04456162469876794
233,1836.17,0.043953776952961696
234,1844.6499999999999,0.04192928517412965
235,1853.16,0.04164136154938193
236,1866.01,0.04153469088216593
237,1874.62,0.04152591110436595
238,1883.27,0.03943517886534507
239,1896.33,0.038293645276719315
240,1905.0800000000002,0.03915013688464616
241,1905.46072,0.039097517792033416
242,1913.8700000000001,0.03793766109687426
243,1927.1399999999999,0.036515918264523294
244,1936.04,0.037416344887890016
245,1944.97,0.03757563817403213
246,1953.95,0.0354504125647999
247,1967.49,0.03632061969742748
248,1976.58,0.03664120851837169
249,1985.7,0.0354257340020913
250,1994.87,0.03455999059043656
251,2004.07,0.03470960384155722
252,2013.3200000000002,0.03431617819730353
253,2027.28,0.03438342860878661
254,2036.64,0.03302344739470937
255,2046.0400000000002,0.03279589506433265
256,2055.48,0.02862825161765645
257,2064.9700000000003,0.030054069275605912
258,2074.5,0.032482955817255896
259,2079.28,0.031410317419468585
260,2084.08,0.03154838346353153
261,2093.7,0.030572209993507703
262,2103.36,0.03070182540718439
263,2113.07,0.030625671925486736
264,2122.82,0.030346747327489605
265,2132.62,0.029803343834118128
266,2147.4,0.029133986361461965
267,2157.31,0.029322077298266934
268,2167.27,0.02860488933969756
269,2177.28,0.02846978248575384
270,2187.33,0.027899524515510643
271,2187.7616199999998,0.027904529892167376
272,2197.42,0.02801896562490616
273,2202.49,0.027583307323391083
274,2212.65,0.026910330194516684
275,2222.8700000000003,0.02654771148810956
276,2233.13,0.02636608173001396
277,2243.43,0.026013440920229874
278,2253.79,0.025435728532913066
279,2264.19,0.025430135093907777
280,2274.64,0.025199935340291885
281,2285.14,0.02486135927206539
282,2295.69,0.023942846889228292
283,2306.29,0.023990178191780592
284,2316.9300000000003,0.023772818442644415
285,2327.63,0.022239097115975506
286,2332.9900000000002,0.023114976189718934
287,2343.76,0.022905428022595188
288,2354.58,0.02279901354086084
289,2365.4500000000003,0.022442662744515885
290,2376.37,0.022239585633560332
291,2387.34,0.021603792207994178
292,2392.84,0.021721167600827918
293,2403.88,0.021477337334806917
294,2414.98,0.021329985491253194
295,2426.13,0.021278007333088867
296,2437.33,0.02089987286031394
297,2442.94,0.020828290361004358
298,2454.22,0.020640163784852467
299,2465.55,0.020408550894089973
300,2476.93,0.020179521688716874
301,2482.6400000000003,0.01997751656018609
302,2494.1,0.01796536525143603
303,2505.6099999999997,0.019575087628075367
304,2511.39,0.018706375659089735
305,2511.88643,0.018747505316691206
306,2517.17,0.019185962533130124
307,2522.98,0.0191210042441807
308,2534.6200000000003,0.018991959823634868
309,2546.32,0.018698031875148076
310,2552.1899999999996,0.018676240058257694
311,2563.97,0.018509210739182956
312,2575.81,0.018465787892167265
313,2587.7,0.018260565438534108
314,2593.66,0.018038898329732288
315,2605.63,0.017877914505511187
316,2617.66,0.017640587153349124
317,2623.7,0.01758091867395936
318,2635.81,0.01746266995120936
319,2647.9700000000003,0.01746047162184189
320,2654.08,0.017286675693187675
321,2666.33,0.01698236207190877
322,2672.4700000000003,0.016850624379284078
323,2684.8100000000004,0.016811285466093735
324,2697.2000000000003,0.016478906946285926
325,2703.42,0.01642356788307329
326,2715.9,0.016205624071354046
327,2722.1600000000003,0.01604471932284744
328,2734.72,0.01586685414054025
329,2747.35,0.01569116150896861
330,2753.68,0.01556984931119755
331,2766.3900000000003,0.015465305309037967
332,2772.77,0.015481323504649444
333,2785.57,0.015309714210578423
334,2791.99,0.014795556720895928
335,2804.87,0.014858826056236963
336,2817.8199999999997,0.014988247942313548
337,2824.32,0.014806839082043109
338,2837.3500000000004,0.01457873959753175
339,2843.89,0.014497945051967338
340,2857.02,0.01436899635422105
341,2863.6099999999997,0.014320612202039174
342,2876.8300000000004,0.014193348212381447
343,2883.46,0.014083648374905599
344,2884.0315,0.014078276906880295
345,2896.77,0.013960016475668306
346,2910.14,0.013867833792686197
347,2930.31,0.013610807920154474
348,2950.62,0.013329273276073203
349,2971.07,0.013168859860442379
350,2991.67,0.012953444903865609
351,3012.41,0.012741501175739287
352,3033.29,0.012533248676063414
353,3047.2900000000004,0.012342221521108327
354,3068.41,0.012140512555918938
355,3089.6800000000003,0.011942352049783604
356,3111.1,0.01177300000270232
357,3132.66,0.011555509184071486
358,3147.12,0.01137957463688216
359,3168.94,0.011193661813945018
360,3190.8999999999996,0.010963150219458323
361,3213.02,0.010831754314629285
362,3227.85,0.01066672729977329
363,3250.23,0.010561919390637945
364,3272.75,0.010389627709953048
365,3287.86,0.01025411015199795
366,3310.65,0.010108829697610348
367,3311.31121,0.010135083629990785
368,3318.28,0.010412348576672368
369,3325.9300000000003,0.010469984944074289
370,3333.6,0.01032246338825373
371,3341.29,0.009979020909210691
372,3348.9900000000002,0.010414598468556415
373,3356.71,0.009893089104679658
374,3364.45,0.009860943817580424
375,3372.2000000000003,0.009637882568869948
376,3379.97,0.009712430396936996
377,3387.77,0.009894779340170325
378,3395.5800000000004,0.009971519321792417
379,3403.3999999999996,0.009576739341803267
380,3411.25,0.009566831476980401
381,3419.11,0.009725307650546295
382,3426.99,0.009757761900889709
383,3434.89,0.009790456228010646
384,3442.81,0.009631630631909104
385,3450.75,0.009517019112585083
386,3458.7000000000003,0.009261138631649823
387,3466.68,0.009394047265880843
388,3474.67,0.009282413938500628
389,3482.6800000000003,0.00901326068789793
390,3490.71,0.009303481514072755
391,3498.75,0.00927358137863634
392,3506.82,0.009083613358366209
393,3514.9,0.008956355376484837
394,3523.0099999999998,0.009064780509769749
395,3531.13,0.00901597968144342
396,3539.27,0.009065743929894612
397,3547.43,0.009135807255123326
398,3555.6,0.009086555618740801
399,3563.7999999999997,0.009017682097524559
400,3572.02,0.008949490653085835
401,3580.25,0.008614787247035875
402,3588.5,0.008512394917763434
403,3596.78,0.008559440703657276
404,3605.07,0.008662985527939879
405,3613.38,0.008635181429000004
406,3621.71,0.008663872406837648
407,3630.06,0.008807515461452815
408,3638.4300000000003,0.008645908592845504
409,3646.81,0.008561876762626952
410,3655.2200000000003,0.008515664047574685
411,3663.65,0.008488323409299937
412,3672.09,0.008405746809413951
413,3680.56,0.008324099324694245
414,3683.44,0.00762303738065732
415,3686.1899999999996,0.008415187937566506
416,3688.9300000000003,0.006463074456086933
417,3691.67,0.006488962974607359
418,3694.42,0.007369660531516546
419,3697.16,0.006691129050036972
420,3699.8999999999996,0.008311016568557397
421,3702.64,0.007258016087077824
422,3705.39,0.008014947643987011
423,3708.13,0.007636286162507437
424,3710.87,0.007725769681027863
425,3713.6200000000003,0.006937133237937049
426,3716.36,0.008613276756457476
427,3719.1000000000004,0.0127952612749779
428,3721.85,0.019979271831887087
429,3724.5899999999997,0.025734714350407514
430,3727.33,0.02280548686892794
431,3730.08,0.017842627425837126
432,3732.82,0.011083589944357554
433,3735.56,0.008660392462877978
434,3738.3100000000004,0.008821497019787164
435,3741.05,0.007441728538307592
436,3743.79,0.007255069056828017
437,3746.53,0.007647601575348443
438,3749.2799999999997,0.00923883013225763
439,3752.02,0.008529971650778057
440,3754.7599999999998,0.006473903169298483
441,3757.51,0.006356672726207669
442,3760.25,0.006997951244728095
443,3762.99,0.006998156763248521
444,3765.7400000000002,0.006783333320157708
445,3768.48,0.008029239838678134
446,3771.2200000000003,0.00790519735719856
447,3773.97,0.007795787914107746
448,3776.7099999999996,0.007224632432628173
449,3779.45,0.006890483951148599
450,3782.2,0.006986045508057785
451,3784.94,0.007986138026578212
452,3787.68,0.006797635545098638
453,3790.42,0.0068037130636190634
454,3793.17,0.009191087620528251
455,3795.9100000000003,0.009617129139048676
456,3798.65,0.008274290657569103
457,3801.3999999999996,0.006691956214478289
458,3801.8939600000003,0.00674561226226243
459,3804.14,0.006989714515985322
460,3806.88,0.006665748920145943
461,3809.63,0.0065846289316210185
462,3812.37,0.007292102335781639
463,3815.1099999999997,0.00740986873994226
464,3817.86,0.007392339751417336
465,3820.6,0.007273832155577957
466,3823.34,0.005849453559738578
467,3826.0899999999997,0.008292505571213653
468,3828.83,0.009846510975374274
469,3831.57,0.009565842379534895
470,3834.3100000000004,0.009575259783695516
471,3837.06,0.008419887795170592
472,3839.7999999999997,0.006523451199331212
473,3842.54,0.0063066156034918336
474,3845.29,0.008279811614966909
475,3848.03,0.00728738301912753
476,3850.77,0.00701282642328815
477,3853.5199999999995,0.008015239434763226
478,3856.26,0.008222037838923847
479,3859.0,0.008088123243084467
480,3861.75,0.010825414254559544
481,3864.49,0.013427982658720165
482,3867.23,0.013426151062880785
483,3869.98,0.011162778074355862
484,3872.7200000000003,0.00881091647851648
485,3875.46,0.007720161882677102
486,3878.2100000000005,0.007962386894152178
487,3880.9500000000003,0.0103604712983128
488,3883.69,0.01332747870247342
489,3886.4300000000003,0.01608146710663404
490,3889.18,0.013545604118109116
491,3891.9199999999996,0.008894836522269738
492,3894.66,0.006809817926430359
493,3897.41,0.006845366937905434
494,3900.15,0.006411336342066054
495,3902.89,0.007247710746226675
496,3905.6400000000003,0.007089297757701751
497,3908.38,0.006821834161862372
498,3911.1200000000003,0.007252432566022993
499,3913.87,0.006944086577498069
500,3916.6099999999997,0.006855416981658689
501,3919.35,0.006650813385819311
502,3922.1,0.006685139397294386
503,3924.84,0.006390770801455007
504,3927.58,0.006437360205615627
505,3930.3199999999997,0.007227261609776248
506,3933.07,0.006257299621251324
507,3935.81,0.007612693025411945
508,3938.55,0.006566696429572565
509,3941.2999999999997,0.006302378441047641
510,3944.04,0.006520425845208262
511,3946.7799999999997,0.006964965249368883
512,3949.53,0.006918576260843959
513,3952.27,0.00682697266500458
514,3955.0099999999998,0.0060025740691652
515,3957.76,0.0068763370806402754
516,3960.5,0.008947647484800897
517,3963.2400000000002,0.011579079888961516
518,3965.99,0.014460416900436594
519,3968.7299999999996,0.013717235304597215
520,3971.47,0.011743273708757834
521,3974.21,0.007901358112918457
522,3976.96,0.006973952124393531
523,3979.7,0.006636290528554152
524,3982.44,0.006311100932714773
525,3985.19,0.006338335944189848
526,3987.9300000000003,0.00700765334835047
527,3990.67,0.00641537175251109
528,3993.4199999999996,0.006589360763986166
529,3996.1600000000003,0.006664323168146787
530,3998.9,0.0063415805723074075
531,4001.65,0.005584659583782484
532,4004.39,0.006198452987943104
533,4007.1299999999997,0.0065568953921037254
534,4009.88,0.0060462764035788
535,4012.62,0.006120013807739421
536,4015.36,0.005765474211900043
537,4018.1,0.006404950616060664
538,4020.8500000000004,0.007028252627535739
539,4023.59,0.006819246031696359
540,4026.3300000000004,0.006782675435856981
541,4029.08,0.006692016447332057
542,4031.8199999999997,0.006561521851492677
543,4034.56,0.005775034255653298
544,4037.31,0.006359938267128373
545,4040.05,0.006143346671288995
546,4042.79,0.005566473075449616
547,4045.5400000000004,0.0056773620869246914
548,4048.28,0.005923534491085312
549,4051.02,0.0061379128952459335
550,4053.77,0.0060558169067210085
551,4056.5099999999998,0.0072852453108816296
552,4059.25,0.00609445071504225
553,4061.99,0.006362150119202872
554,4064.7400000000002,0.006626394130677947
555,4067.48,0.005812023534838568
556,4070.22,0.006181227938999188
557,4072.9700000000003,0.006300918950474264
558,4075.71,0.006345795354634884
559,4078.4500000000003,0.006119420758795506
560,4081.2,0.006212452770270582
561,4083.9399999999996,0.005750048174431202
562,4086.68,0.006297558578591823
563,4089.43,0.0064984535900668985
564,4092.17,0.00760632099422752
565,4094.91,0.01067777239838814
566,4097.66,0.015536619409863216
567,4100.400000000001,0.016399177814023835
568,4103.14,0.013333366218184458
569,4105.88,0.008707048622345078
