,lambda (Angstroms),Total Flux (erg/s/cm^2/Angstrom)
0,102.07000000000001,0.00028048409753706665
1,103.97,0.0003163114740089534
2,104.712855,0.0003312054654788281
3,105.9,0.0003296322731909568
4,108.12,0.0003240109334761692
5,109.88,0.0003292469416302116
6,114.0,0.0003261835607180832
7,118.01,0.00032425325429632715
8,120.22644299999999,0.0003447563315516853
9,121.04,0.0003598258983646635
10,125.0,0.0004052490925005743
11,127.03,0.0004298294458076195
12,127.91,0.0004422353556155997
13,130.89,0.00047635402746535075
14,132.1,0.0004923219784513235
15,133.94,0.0005121294080498275
16,137.06,0.00055965639736903
17,138.038426,0.0005723236588259606
18,139.93,0.0005976339734156903
19,142.86,0.0006795255200028912
20,146.85999999999999,0.000779746165855725
21,150.98,0.0008033049050841439
22,154.85,0.0009092789164467606
23,158.489319,0.0009707480433663588
24,158.82,0.0009763305202953231
25,162.15,0.0010291235271970166
26,165.93,0.0010999412485448847
27,170.17999999999998,0.001167689496092091
28,172.95000000000002,0.0011675278739052112
29,176.98,0.0012917254921676212
30,179.85000000000002,0.001343182428746558
31,181.93,0.0013807976510755438
32,181.970086,0.001381442454160711
33,186.17000000000002,0.0014491356665341647
34,190.95000000000002,0.0015348972176762578
35,194.04999999999998,0.001592510570927406
36,198.10999999999999,0.0016598524658305227
37,201.8,0.0017298734540552765
38,205.07999999999998,0.0017824422213661689
39,208.929613,0.0018262499074281186
40,209.85,0.0018367603725953404
41,216.23,0.0019727067446420076
42,220.25,0.0020421405276557386
43,222.8,0.0020850351810599707
44,226.94,0.0021633966889397825
45,230.1,0.002877441443746596
46,233.83999999999997,0.00583141486873947
47,239.83999999999997,0.013825362112043545
48,239.88329199999998,0.013827167729143748
49,245.98999999999998,0.014081334188013078
50,251.72,0.016317299003003796
51,256.99,0.00911345989567414
52,259.96,0.017284835176742626
53,264.19,0.023260008940688654
54,269.1,0.024524155981108273
55,274.1,0.025153929484590574
56,275.42287,0.024831639334034632
57,279.2,0.023911725975580687
58,283.74,0.026645466462543912
59,289.68,0.026522525689980387
60,295.74,0.024867799952314563
61,301.24,0.016659570718459443
62,308.26,0.021808815259975273
63,316.227766,0.028570942905562922
64,318.36,0.030380384038052516
65,328.03,0.03174109685282282
66,337.99999999999994,0.03181325044778248
67,348.27,0.031666994822931505
68,357.20000000000005,0.03504353037990139
69,363.078055,0.03855412717067829
70,366.36,0.04051440845086251
71,374.90000000000003,0.04032840328802859
72,385.4,0.03720592513700328
73,395.29,0.04242235235475182
74,405.43,0.045559495568904526
75,413.91999999999996,0.04545670920678978
76,416.86938299999997,0.04486573356826584
77,421.60999999999996,0.04391579817222011
78,430.44,0.042619125245571786
79,441.48,0.04524913412323912
80,450.73,0.04545895724084987
81,460.16,0.04311465294885737
82,469.8,0.04301617167899442
83,478.630092,0.044461948134877395
84,479.64,0.0446272696978403
85,489.67999999999995,0.04155587025431578
86,499.93,0.044628536848327106
87,505.71999999999997,0.0441188575975296
88,511.58000000000004,0.059923297025910705
89,519.89,0.05762383022554329
90,529.5600000000001,0.05477576776350324
91,539.4,0.04961340209375411
92,549.43,0.04882162283891836
93,549.5408739999999,0.048898666894173375
94,559.65,0.05592341866274792
95,570.05,0.057624064792274186
96,580.65,0.05566598969352211
97,590.0799999999999,0.056180791780198316
98,599.67,0.051356692884251855
99,609.4200000000001,0.047488993005682725
100,619.32,0.05643928220590484
101,629.38,0.054275440423504275
102,630.957344,0.0545294648400963
103,639.61,0.0559230623650948
104,650.0,0.05427528837590617
105,657.5300000000001,0.05171062071097929
106,665.14,0.054275733708310826
107,674.39,0.05515583028193982
108,685.35,0.050421011011342394
109,694.89,0.053776289985658136
110,704.5500000000001,0.0479290099533615
111,716.0,0.05365373473909685
112,724.43596,0.0532380455693772
113,725.9599999999999,0.05316294175222775
114,734.37,0.053040531363791193
115,744.5799999999999,0.051475809453453834
116,754.94,0.050653218249624744
117,765.44,0.046302447705203365
118,774.31,0.049613989483392164
119,785.0799999999999,0.04759897021068567
120,794.17,0.04837403302508659
121,805.2199999999999,0.048261855071195514
122,814.54,0.04792885896890911
123,825.8699999999999,0.04781903233383347
124,831.763771,0.043900835559450735
125,835.4399999999999,0.0414568123457876
126,845.11,0.04641026305287901
127,854.9,0.045458212527793675
128,864.8000000000001,0.045770690873213
129,874.8100000000001,0.045352858089136985
130,884.94,0.044937414072884235
131,895.19,0.04452338882445476
132,905.55,0.04351107244652993
133,916.0400000000001,0.04271546473374697
134,924.5100000000001,0.08701439776260574
135,935.2199999999999,0.12605922779083212
136,946.05,0.16090921658688173
137,954.8,0.17401112674066144
138,954.992586,0.17428060760173295
139,965.86,0.1894872071256791
140,974.8,0.10485329261633097
141,986.08,0.165798274309234
142,995.21,0.15260665949152163
143,1004.4200000000001,0.16655944454397173
144,1016.05,0.16694372566883542
145,1025.45,0.12038791041292128
146,1034.94,0.1561630950109399
147,1044.51,0.1768402794791209
148,1054.18,0.17044276378500497
149,1063.93,0.15473184796105147
150,1073.78,0.15906713197480105
151,1086.21,0.14176691180128903
152,1096.26,0.15652439549044467
153,1096.4782,0.15633198293104952
154,1103.86,0.14982255763971403
155,1114.0700000000002,0.14708670577698787
156,1124.3799999999999,0.13445695340630157
157,1134.78,0.14341250057845117
158,1145.28,0.1372715472426407
159,1155.8799999999999,0.1344570933988701
160,1163.89,0.1310938527112661
161,1174.66,0.10293929800396336
162,1185.53,0.12262504278870051
163,1193.75,0.1165664010343803
164,1204.8,0.10828554490478927
165,1215.9399999999998,0.08120398831803415
166,1224.3700000000001,0.10779094549699773
167,1235.7,0.11391578794511842
168,1244.27,0.11312844441293786
169,1255.78,0.11106608594673037
170,1258.92541,0.11060611702654395
171,1264.48,0.10979387197622428
172,1276.18,0.11157707620353607
173,1285.03,0.11029987940111809
174,1293.94,0.10317458262037861
175,1305.91,0.10223048694524375
176,1314.96,0.10558009021508749
177,1324.08,0.10176009351022285
178,1336.33,0.09853288793625442
179,1345.5900000000001,0.09921481128197299
180,1354.92,0.09695676465298317
181,1364.31,0.09301975804567185
182,1373.77,0.09111145146365217
183,1386.48,0.08965591605588576
184,1396.0900000000001,0.07355032952806237
185,1405.77,0.06959486302553058
186,1415.51,0.08405815654467734
187,1425.32,0.07990691008911567
188,1435.2,0.08158052365884565
189,1441.8300000000002,0.08101720605432232
190,1445.43977,0.08061379249110501
191,1448.48,0.08027402828049114
192,1455.17,0.07790810030918469
193,1465.26,0.07578557336890338
194,1475.41,0.07508894644681662
195,1485.64,0.07457228954898927
196,1495.94,0.07287525267238891
197,1506.31,0.07072717581701554
198,1513.26,0.0678559379245522
199,1516.75,0.06816912898286916
200,1523.75,0.06723256110556795
201,1534.3100000000002,0.0610340943078107
202,1544.95,0.05477528753431286
203,1555.66,0.054647630782041996
204,1566.44,0.058827884050998126
205,1573.67,0.06047655624344273
206,1584.58,0.060197939551820415
207,1595.56,0.059645352881425084
208,1606.62,0.057224056235289165
209,1614.04,0.055792588485349875
210,1625.22,0.05540942187560309
211,1636.4899999999998,0.055792865293148135
212,1644.04,0.054523507582630394
213,1655.44,0.054902731039596996
214,1659.58691,0.054765573610096215
215,1666.92,0.05452304853642491
216,1670.76,0.051830157040199165
217,1678.47,0.05553575411418341
218,1686.22,0.054273721276748635
219,1694.0,0.052671718505749594
220,1705.74,0.05147389450426776
221,1713.62,0.04961200195472117
222,1725.49,0.048595098241127524
223,1733.46,0.04949710589088816
224,1745.47,0.04859514248732794
225,1753.5300000000002,0.04814944033639578
226,1765.69,0.04716130726501425
227,1773.84,0.046087555313389296
228,1786.1299999999999,0.04608805252989596
229,1794.3799999999999,0.04566438079972346
230,1806.8100000000002,0.04535177832626355
231,1815.15,0.04350997679539827
232,1823.53,0.043309385353113954
233,1836.17,0.04271498334470421
234,1844.6499999999999,0.04069951212387235
235,1853.16,0.04042064096947623
236,1866.01,0.040327639426116633
237,1874.62,0.040328018493172975
238,1883.27,0.03824648764881029
239,1896.33,0.03711884657050086
240,1905.0800000000002,0.03798464594759062
241,1905.46072,0.037932431843992254
242,1913.8700000000001,0.03677909278602128
243,1927.1399999999999,0.03536763490618554
244,1936.04,0.03627495950071922
245,1944.97,0.036441174009616495
246,1953.95,0.03432290837578643
247,1967.49,0.03520360972522306
248,1976.58,0.03553124377739284
249,1985.7,0.034322837743926235
250,1994.87,0.033464201567732284
251,2004.07,0.03362094530590193
252,2013.3200000000002,0.033234688901344234
253,2027.28,0.03331275905187121
254,2036.64,0.031960032333313376
255,2046.0400000000002,0.03173976550057367
256,2055.48,0.02757943855365208
257,2064.9700000000003,0.02901261146400316
258,2074.5,0.03144888426017237
259,2079.28,0.030379950615438772
260,2084.08,0.030521736913614237
261,2093.7,0.029553019452874234
262,2103.36,0.02969012187795236
263,2113.07,0.02962149416030315
264,2122.82,0.029350126328472066
265,2132.62,0.028814318353913643
266,2147.4,0.02815641616371227
267,2157.31,0.0283521878751537
268,2167.27,0.027642719443867796
269,2177.28,0.02751537086985455
270,2187.33,0.02695290218165943
271,2187.7616199999998,0.026958242086666175
272,2197.42,0.027077782931171905
273,2202.49,0.026644804470029475
274,2212.65,0.025977197593262797
275,2222.8700000000003,0.02561998085305064
276,2233.13,0.025443774203874843
277,2243.43,0.025096577645735394
278,2253.79,0.02452434122415047
279,2264.19,0.0245242448936019
280,2274.64,0.024299568676848772
281,2285.14,0.02396654257389108
282,2295.69,0.02305360658472883
283,2306.29,0.02310654070936202
284,2316.9300000000003,0.02289480492503156
285,2327.63,0.021366739277255624
286,2332.9900000000002,0.022245451476126745
287,2343.76,0.02204159598766443
288,2354.58,0.02194090061299755
289,2365.4500000000003,0.021590295352126112
290,2376.37,0.021392990205050116
291,2387.34,0.02076299517176956
292,2392.84,0.02088327768926791
293,2403.88,0.020645282815300967
294,2414.98,0.02050379807788855
295,2426.13,0.02045771345427157
296,2437.33,0.020085498944450036
297,2442.94,0.020016881712298356
298,2454.22,0.019834717384549522
299,2465.55,0.01960909317059613
300,2476.93,0.019386079070438173
301,2482.6400000000003,0.019187092065877372
302,2494.1,0.01718099814779212
303,2505.6099999999997,0.01879680434350231
304,2511.39,0.017931147498255123
305,2511.88643,0.017972539552928827
306,2517.17,0.01841306397412257
307,2522.98,0.018350378856461794
308,2534.6200000000003,0.018225888603523505
309,2546.32,0.01793653829773502
310,2552.1899999999996,0.017917043127224044
311,2563.97,0.01775462275096863
312,2575.81,0.017715832321863016
313,2587.7,0.017515261848715574
314,2593.66,0.0172959265989293
315,2605.63,0.017139626055314928
316,2617.66,0.016907005458850356
317,2623.7,0.016849700138597153
318,2635.81,0.016736189471665656
319,2647.9700000000003,0.01673874876069232
320,2654.08,0.016567343378780557
321,2666.33,0.01626782258853193
322,2672.4700000000003,0.016138487180195064
323,2684.8100000000004,0.01610397631067114
324,2697.2000000000003,0.015776445397105383
325,2703.42,0.015723539918301593
326,2715.9,0.015510478925460541
327,2722.1600000000003,0.015352023411423284
328,2734.72,0.015179072348115302
329,2747.35,0.015008321223148756
330,2753.68,0.014889485647452934
331,2766.3900000000003,0.01478991445201946
332,2772.77,0.014808428832281808
333,2785.57,0.014641827557573036
334,2791.99,0.014130181902601919
335,2804.87,0.01419849055742622
336,2817.8199999999997,0.014332979150591955
337,2824.32,0.014154113425153906
338,2837.3500000000004,0.013931111947852714
339,2843.89,0.013852876187181201
340,2857.02,0.013729064621796344
341,2863.6099999999997,0.013683258817083
342,2876.8300000000004,0.013561167172422848
343,2883.46,0.01345406133247604
344,2884.0315,0.01344891346469023
345,2896.77,0.013334180599447085
346,2910.14,0.013245700358432512
347,2930.31,0.012994259994837604
348,2950.62,0.012718349628718985
349,2971.07,0.012563599260076651
350,2991.67,0.01235388888873034
351,3012.41,0.012147688514860314
352,3033.29,0.011945218138466577
353,3047.2900000000004,0.011758067886095297
354,3068.41,0.011562207505375196
355,3089.6800000000003,0.011369937121951116
356,3111.1,0.011206516735823058
357,3132.66,0.010994996347171286
358,3147.12,0.010823066086507807
359,3168.94,0.010643195693169143
360,3190.8999999999996,0.010418765297306763
361,3213.02,0.010293494898560141
362,3227.85,0.010132574631226849
363,3250.23,0.010033964227793332
364,3272.75,0.009867908821836103
365,3287.86,0.009736575549455385
366,3310.65,0.009597606138630995
367,3311.31121,0.009624043174351251
368,3318.28,0.009902672725283227
369,3325.9300000000003,0.00996180708911143
370,3333.6,0.009815787446047679
371,3341.29,0.009473850796091976
372,3348.9900000000002,0.009910936142690297
373,3356.71,0.009390938482396664
374,3364.45,0.00936030881521108
375,3372.2000000000003,0.00913876514457952
376,3379.97,0.009214834467056007
377,3387.77,0.009398710779194566
378,3395.5800000000004,0.009476980087887148
379,3403.3999999999996,0.009083731393133756
380,3411.25,0.009075360688042433
381,3419.11,0.009235375979505134
382,3426.99,0.009269373264075882
383,3434.89,0.00930361454175468
384,3442.81,0.009146339812541524
385,3450.75,0.009033283076436416
386,3458.7000000000003,0.008778959336885332
387,3466.68,0.008913430586996318
388,3474.67,0.00880336183366133
389,3482.6800000000003,0.008535777073434387
390,3490.71,0.008827570306315494
391,3498.75,0.008799244535750624
392,3506.82,0.008610856754847823
393,3514.9,0.00848518097049905
394,3523.0099999999998,0.008595194175812346
395,3531.13,0.008547983377679666
396,3539.27,0.008599341572655033
397,3547.43,0.008671002760738449
398,3555.6,0.008623350945375889
399,3563.7999999999997,0.008556083119675399
400,3572.02,0.008489501287082956
401,3580.25,0.008156409451044537
402,3588.5,0.008055632608114167
403,3596.78,0.008104299754845867
404,3605.07,0.008209467898131593
405,3613.38,0.008183291034525364
406,3621.71,0.008213613164027184
407,3630.06,0.008358891286637051
408,3638.4300000000003,0.008198923402354966
409,3646.81,0.008116532514626905
410,3655.2200000000003,0.008071966616560915
411,3663.65,0.008046276711602973
412,3672.09,0.007965352803199054
413,3680.56,0.007885363884457207
414,3683.44,0.0071848658920160595
415,3686.1899999999996,0.007977554944372602
416,3688.9300000000003,0.006025978000175122
417,3691.67,0.006052403055977641
418,3694.42,0.006933639108334185
419,3697.16,0.006255644164136704
420,3699.8999999999996,0.007876068219939223
421,3702.64,0.006823604275741742
422,3705.39,0.007581074328098286
423,3708.13,0.007202949383900805
424,3710.87,0.007292969439703325
425,3713.6200000000003,0.006504871492059867
426,3716.36,0.008181551547862386
427,3719.1000000000004,0.012364072603664905
428,3721.85,0.019548621656021448
429,3724.5899999999997,0.025304600711823968
430,3727.33,0.022375909767626486
431,3730.08,0.01741358881998303
432,3732.82,0.01065508787578555
433,3735.56,0.00823242693158807
434,3738.3100000000004,0.008394069983944612
435,3741.05,0.0070148380397471325
436,3743.79,0.0068287150955496515
437,3746.53,0.007221784151352171
438,3749.2799999999997,0.008813551203708714
439,3752.02,0.008105229259511234
440,3754.7599999999998,0.006049697315313753
441,3757.51,0.005933005367670295
442,3760.25,0.006574820423472814
443,3762.99,0.006575562479275334
444,3765.7400000000002,0.006361277531631878
445,3768.48,0.007607720587434396
446,3771.2200000000003,0.007484214643236916
447,3773.97,0.007375343695593459
448,3776.7099999999996,0.006804724751395978
449,3779.45,0.006471112807198498
450,3782.2,0.006567212859555041
451,3784.94,0.007567841915357561
452,3787.68,0.0063798759711600804
453,3790.42,0.0063864900269625996
454,3793.17,0.008774403079319142
455,3795.9100000000003,0.00920098113512166
456,3798.65,0.007858679190924181
457,3801.3999999999996,0.006276883243280724
458,3801.8939600000003,0.006330636016596202
459,3804.14,0.006575050460351201
460,3806.88,0.00625146571288851
461,3809.63,0.006170727962697852
462,3812.37,0.00687858221523516
463,3815.1099999999997,0.006996729467772468
464,3817.86,0.00697958271758181
465,3820.6,0.006861455970119118
466,3823.34,0.005437458222656426
467,3826.0899999999997,0.007880892472465768
468,3828.83,0.009435278725003075
469,3831.57,0.009154990977540385
470,3834.3100000000004,0.009164789230077693
471,3837.06,0.008009799479887034
472,3839.7999999999997,0.006113743732424343
473,3842.54,0.005897288984961651
474,3845.29,0.007870867234770994
475,3848.03,0.006878819487308302
476,3850.77,0.006604643739845609
477,3853.5199999999995,0.007607438989654951
478,3856.26,0.007814618242192258
479,3859.0,0.0076810844947295676
480,3861.75,0.01041875774453891
481,3864.49,0.013021706997076218
482,3867.23,0.013020256249613525
483,3869.98,0.010757265499422868
484,3872.7200000000003,0.008405784751960176
485,3875.46,0.007315411004497484
486,3878.2100000000005,0.007558018254306826
487,3880.9500000000003,0.009956483506844135
488,3883.69,0.012923871759381443
489,3886.4300000000003,0.01567824101191875
490,3889.18,0.013142760261728092
491,3891.9199999999996,0.0084923735142654
492,3894.66,0.006407735766802709
493,3897.41,0.006443667016612051
494,3900.15,0.006010017269149359
495,3902.89,0.006846772521686667
496,3905.6400000000003,0.006688741771496009
497,3908.38,0.006421659024033318
498,3911.1200000000003,0.006852638276570626
499,3913.87,0.006544674526379969
500,3916.6099999999997,0.0064563857789172755
501,3919.35,0.006252163031454584
502,3922.1,0.0062868712812639265
503,3924.84,0.005992883533801234
504,3927.58,0.006039853786338542
505,3930.3199999999997,0.006830136038875851
506,3933.07,0.005860556288685193
507,3935.81,0.007216330541222501
508,3938.55,0.006170714793759809
509,3941.2999999999997,0.005906779043569151
510,3944.04,0.006125207296106459
511,3946.7799999999997,0.006570127548643767
512,3949.53,0.00652412079845311
513,3952.27,0.006432898050990418
514,3955.0099999999998,0.005608880303527725
515,3957.76,0.006483025553337067
516,3960.5,0.008554716805874375
517,3963.2400000000002,0.011186530058411684
518,3965.99,0.014068249308221027
519,3968.7299999999996,0.013325448560758334
520,3971.47,0.01135186781329564
521,3974.21,0.00751033306583295
522,3976.96,0.006583309315642292
523,3979.7,0.0062460285681796
524,3982.44,0.005921219820716909
525,3985.19,0.005948837070526251
526,3987.9300000000003,0.006618535323063559
527,3990.67,0.006026634575600867
528,3993.4199999999996,0.006201005825410209
529,3996.1600000000003,0.006276349077947518
530,3998.9,0.005953987330484825
531,4001.65,0.005197448580294167
532,4004.39,0.0058116228328314755
533,4007.1299999999997,0.006170446085368784
534,4009.88,0.005660209335178125
535,4012.62,0.005734327587715434
536,4015.36,0.005380168840252743
537,4018.1,0.00602002609279005
538,4020.8500000000004,0.006643710342599392
539,4023.59,0.0064350845951367
540,4026.3300000000004,0.006398894847674008
541,4029.08,0.006308618097483351
542,4031.8199999999997,0.006178504350020659
543,4034.56,0.005392397602557967
544,4037.31,0.005977683852367309
545,4040.05,0.005761473104904617
546,4042.79,0.0051849803574419255
547,4045.5400000000004,0.005296251607251268
548,4048.28,0.0055428048597885755
549,4051.02,0.005757564112325884
550,4053.77,0.005675850362135225
551,4056.5099999999998,0.006905659614672534
552,4059.25,0.005715245867209841
553,4061.99,0.00598332611974715
554,4064.7400000000002,0.006247952369556492
555,4067.48,0.005433962622093801
556,4070.22,0.005803547874631108
557,4072.9700000000003,0.005923621124440451
558,4075.71,0.005968878376977758
559,4078.4500000000003,0.005742884629515066
560,4081.2,0.005836298879324409
561,4083.9399999999996,0.005374275131861716
562,4086.68,0.005922166384399025
563,4089.43,0.006123443634208367
564,4092.17,0.007231691886745675
565,4094.91,0.010303524139282984
566,4097.66,0.015162753389092325
567,4100.400000000001,0.016025692641629632
