,lambda (Angstroms),Total Flux (erg/s/cm^2/Angstrom)
0,102.07000000000001,0.00024315486966933328
1,103.97,0.0002726566814349667
2,104.712855,0.0002850775269207025
3,105.9,0.00028680205227925483
4,108.12,0.000287347552482978
5,109.88,0.00029747258687872255
6,114.0,0.000305853971941488
7,118.01,0.0003150628673545194
8,120.22644299999999,0.0003417229036952395
9,121.04,0.00035689704168904535
10,125.0,0.00040282923750041024
11,127.03,0.00042767051843401393
12,127.91,0.00044018953972542837
13,130.89,0.00047469124818953626
14,132.1,0.0004908147274652311
15,133.94,0.000510858662892734
16,137.06,0.0005587866838350214
17,138.038426,0.0005715797080377368
18,139.93,0.0005968986095826359
19,142.86,0.0006788034571449222
20,146.85999999999999,0.0007790422613255178
21,150.98,0.0008026197036315314
22,154.85,0.0009086112831762575
23,158.489319,0.0009700969310826636
24,158.82,0.0009756817144966594
25,162.15,0.001028497947997869
26,165.93,0.0010993420346749176
27,170.17999999999998,0.001167119925780065
28,172.95000000000002,0.001166977624218008
29,176.98,0.0012912033515483008
30,179.85000000000002,0.0013426803062475416
31,181.93,0.0013803100364825312
32,181.970086,0.001380955119165737
33,186.17000000000002,0.0014486389046672605
34,190.95000000000002,0.0015343897269116127
35,194.04999999999998,0.0015919961220910042
36,198.10999999999999,0.0016593289041646592
37,201.8,0.001729341610039483
38,205.07999999999998,0.0017819030152615492
39,208.929613,0.0018257020607159219
40,209.85,0.0018361999804252431
41,216.23,0.0019720593890300052
42,220.25,0.002041438376896956
43,222.8,0.0020842982721856933
44,226.94,0.002162603349242702
45,230.1,0.0028766050312475687
46,233.83999999999997,0.0058305274776710506
47,239.83999999999997,0.013824392937173961
48,239.88329199999998,0.013826197964176777
49,245.98999999999998,0.014080432991437913
50,251.72,0.01631646214500271
51,256.99,0.009112682211195815
52,259.96,0.017284090840530446
53,264.19,0.023259312100491897
54,269.1,0.024523514272220198
55,274.1,0.025153343917564696
56,275.42287,0.024831068620685803
57,279.2,0.023911109982557632
58,283.74,0.026644796044674224
59,289.68,0.026521784064271706
60,295.74,0.024866985680224687
61,301.24,0.016658690513185317
62,308.26,0.021807850899982335
63,316.227766,0.02856988302917294
64,318.36,0.030379342884323226
65,328.03,0.03174014060915916
66,337.99999999999994,0.03181238174841606
67,348.27,0.03166621630209393
68,357.20000000000005,0.035042830271358134
69,363.078055,0.03855347867599603
70,366.36,0.04051373746490179
71,374.90000000000003,0.04032767377716328
72,385.4,0.037205123669288055
73,395.29,0.04242148311053702
74,405.43,0.045558556834931804
75,413.91999999999996,0.04545571229056413
76,416.86938299999997,0.04486471643982021
77,421.60999999999996,0.043914761551585794
78,430.44,0.04261805231826556
79,441.48,0.045248015802313656
80,450.73,0.045457800886321335
81,460.16,0.04311345782061241
82,469.8,0.04301493691356744
83,478.630092,0.04446067706240023
84,479.64,0.04462600406988593
85,489.67999999999995,0.0415546587530827
86,499.93,0.04462738060594793
87,505.71999999999997,0.044117732569663996
88,511.58000000000004,0.05992220358993622
89,519.89,0.05762278158967378
90,529.5600000000001,0.05477477125964517
91,539.4,0.04961245863839579
92,549.43,0.04882073345637026
93,549.5408739999999,0.04889777810935895
94,559.65,0.055922547616248514
95,570.05,0.05762321199448156
96,580.65,0.05566515549537293
97,590.0799999999999,0.05617997412871308
98,599.67,0.051355892060179896
99,609.4200000000001,0.047488209289773375
100,619.32,0.0564385158613606
101,629.38,0.054274691731074486
102,630.957344,0.05452871891540575
103,639.61,0.05592229597506771
104,650.0,0.054274497411361554
105,657.5300000000001,0.051709811936413774
106,665.14,0.05427490693450773
107,674.39,0.055154981629957016
108,685.35,0.05042013643667314
109,694.89,0.05377539284689867
110,704.5500000000001,0.047928089966686786
111,716.0,0.053652787670783464
112,724.43596,0.05323707854825853
113,725.9599999999999,0.05316197268016268
114,734.37,0.05303955097413657
115,744.5799999999999,0.0514748153238956
116,754.94,0.05065221017830339
117,765.44,0.04630142550371669
118,774.31,0.04961295534528012
119,785.0799999999999,0.04759792157906119
120,794.17,0.048372972160776136
121,805.2199999999999,0.04826077933656822
122,814.54,0.04792777069207793
123,825.8699999999999,0.04781792880988105
124,831.763771,0.04389972410407369
125,835.4399999999999,0.04145571167556257
126,845.11,0.046409190752056434
127,854.9,0.045457168948424054
128,864.8000000000001,0.04576967633800928
129,874.8100000000001,0.045351872920812136
130,884.94,0.04493645862348874
131,895.19,0.044522463446039114
132,905.55,0.0435101774618071
133,916.0400000000001,0.04271460052410498
134,924.5100000000001,0.08701355840186123
135,935.2199999999999,0.12605841985059438
136,946.05,0.16090844041920124
137,954.8,0.1740103762433296
138,954.992586,0.1742798576694011
139,965.86,0.1894864622326279
140,974.8,0.10485255186880783
141,986.08,0.16579753879231
142,995.21,0.15260592820822974
143,1004.4200000000001,0.16655871753140838
144,1016.05,0.16694300404916818
145,1025.45,0.12038719315208662
146,1034.94,0.15616238215067135
147,1044.51,0.17683957105651493
148,1054.18,0.17044205984643213
149,1063.93,0.1547311485436082
150,1073.78,0.15906643712485788
151,1086.21,0.14176622271520645
152,1096.26,0.15652371106460333
153,1096.4782,0.15633129860638875
154,1103.86,0.14982188402836716
155,1114.0700000000002,0.14708604698356276
156,1124.3799999999999,0.1344563095759297
157,1134.78,0.14341187184175083
158,1145.28,0.13727093374474336
159,1155.8799999999999,0.13445649528490722
160,1163.89,0.13109326622233294
161,1174.66,0.10293872714568811
162,1185.53,0.12262448770621465
163,1193.75,0.11656585788170022
164,1204.8,0.10828501778913519
165,1215.9399999999998,0.0812034773700244
166,1224.3700000000001,0.1077904467835698
167,1235.7,0.1139153056750846
168,1244.27,0.1131279745806699
169,1255.78,0.11106563281909311
170,1258.92541,0.11060566846388607
171,1264.48,0.1097934228401602
172,1276.18,0.11157662585966863
173,1285.03,0.11029942814365577
174,1293.94,0.10317413044312758
175,1305.91,0.10223003353231697
176,1314.96,0.10557963586791964
177,1324.08,0.10175963822158775
178,1336.33,0.09853243138303887
179,1345.5900000000001,0.09921435377283784
180,1354.92,0.09695630618070226
181,1364.31,0.09301929860405132
182,1373.77,0.09111099104546583
183,1386.48,0.08965545432563268
184,1396.0900000000001,0.07354986680575884
185,1405.77,0.06959439930395042
186,1415.51,0.08405769181762666
187,1425.32,0.07990644434936833
188,1435.2,0.08158005689917545
189,1441.8300000000002,0.08101673861023023
190,1445.43977,0.08061332467437254
191,1448.48,0.08027356020035081
192,1455.17,0.07790763164941764
193,1465.26,0.07578510383493098
194,1475.41,0.07508847603344043
195,1485.64,0.07457181824927804
196,1495.94,0.07287478048027779
197,1506.31,0.07072670272643967
198,1513.26,0.06785546423182301
199,1516.75,0.06816865498776369
200,1523.75,0.0672320865039771
201,1534.3100000000002,0.061033618791293355
202,1544.95,0.05477481109593776
203,1555.66,0.05464715341574428
204,1566.44,0.05882740575071295
205,1573.67,0.060476077316744814
206,1584.58,0.06019745967987172
207,1595.56,0.059644872058160776
208,1606.62,0.05722357445377798
209,1614.04,0.0557921060609642
210,1625.22,0.05540893848257364
211,1636.4899999999998,0.05579238092367724
212,1644.04,0.05452302255902171
213,1655.44,0.05490224502828357
214,1659.58691,0.05476508723949132
215,1666.92,0.05452255752601779
216,1670.76,0.05182966360014226
217,1678.47,0.05553525579584529
218,1686.22,0.05427321805482045
219,1694.0,0.052671210361249714
220,1705.74,0.05147337893161982
221,1713.62,0.04961148139622941
222,1725.49,0.048594570172233946
223,1733.46,0.04949657277920583
224,1745.47,0.04859460177666282
225,1753.5300000000002,0.04814889452599699
226,1765.69,0.04716075376072446
227,1773.84,0.04608699665242092
228,1786.1299999999999,0.04608748609278283
229,1794.3799999999999,0.04566380914265961
230,1806.8100000000002,0.04535119880447397
231,1815.15,0.04350939199671305
232,1823.53,0.04330879525222425
233,1836.17,0.04271438524621729
234,1844.6499999999999,0.04069890865990882
235,1853.16,0.040420032121054446
236,1866.01,0.04032702244722617
237,1874.62,0.040327396066552126
238,1883.27,0.03824585974915021
239,1896.33,0.037118210407500615
240,1905.0800000000002,0.03798400424827902
241,1905.46072,0.037931789903790994
242,1913.8700000000001,0.03677845770430092
243,1927.1399999999999,0.03536701064727538
244,1936.04,0.03627434250051373
245,1944.97,0.03644056429258321
246,1953.95,0.03432230598270459
247,1967.49,0.03520301837515933
248,1976.58,0.03553065984099489
249,1985.7,0.034322261245661595
250,1994.87,0.0334636325483802
251,2004.07,0.033620383789929945
252,2013.3200000000002,0.033234134929531596
253,2027.28,0.033312216465622296
254,2036.64,0.031959497380938125
255,2046.0400000000002,0.03173923821469548
256,2055.48,0.027578918966894343
257,2064.9700000000003,0.029012099617145112
258,2074.5,0.031448380185837406
259,2079.28,0.030379450439599123
260,2084.08,0.030521240652581598
261,2093.7,0.02955253103776731
262,2103.36,0.029689641341394544
263,2113.07,0.02962102154307368
264,2122.82,0.029349661663194332
265,2132.62,0.02881386168136689
266,2147.4,0.02815597154550876
267,2157.31,0.0283517513393955
268,2167.27,0.02764229103133414
269,2177.28,0.02751495062132468
270,2187.33,0.026952490129756736
271,2187.7616199999998,0.02695783038678619
272,2197.42,0.027077364950837075
273,2202.49,0.026644383192878197
274,2212.65,0.025976769709473425
275,2222.8700000000003,0.025619546323607603
276,2233.13,0.025443333002767743
277,2243.43,0.025096129746953855
278,2253.79,0.02452388658867891
279,2264.19,0.02452378349542993
280,2274.64,0.02429910048346341
281,2285.14,0.023966067552779344
282,2295.69,0.023053124703377736
283,2306.29,0.023106051935258585
284,2316.9300000000003,0.0228943092321654
285,2327.63,0.02136623662661116
286,2332.9900000000002,0.02224494534009053
287,2343.76,0.022041082848331735
288,2354.58,0.021940380437855393
289,2365.4500000000003,0.02158976810866151
290,2376.37,0.021392455860750084
291,2387.34,0.020762453694121115
292,2392.84,0.020882732635191362
293,2403.88,0.020644730582357836
294,2414.98,0.020503238627063252
295,2426.13,0.020457146753051124
296,2437.33,0.020084924960321455
297,2442.94,0.02001630408021311
298,2454.22,0.019834132417535375
299,2465.55,0.019608500836140092
300,2476.93,0.019385479336027266
301,2482.6400000000003,0.01918648861848384
302,2494.1,0.017180387248422944
303,2505.6099999999997,0.01879618595964451
304,2511.39,0.017930525355896516
305,2511.88643,0.01797191708776182
306,2517.17,0.01841244283865898
307,2522.98,0.018349759183186997
308,2534.6200000000003,0.018225271859659647
309,2546.32,0.017935924498382157
310,2552.1899999999996,0.017916430805160033
311,2563.97,0.01775401339354902
312,2575.81,0.017715225944187868
313,2587.7,0.017514658463368266
314,2593.66,0.01729532471352093
315,2605.63,0.017139027182367806
316,2617.66,0.01690640961346454
317,2623.7,0.016849105813283683
318,2635.81,0.016735598194046897
319,2647.9700000000003,0.016738160543351657
320,2654.08,0.01656675669912897
321,2666.33,0.01626723899180852
322,2672.4700000000003,0.016137905128710762
323,2684.8100000000004,0.016103397364765102
324,2697.2000000000003,0.015775869569360987
325,2703.42,0.01572296565592971
326,2715.9,0.015509907803900385
327,2722.1600000000003,0.015351453865302345
328,2734.72,0.0151785059629395
329,2747.35,0.015007758016534827
330,2753.68,0.014888924033894952
331,2766.3900000000003,0.014789356037156757
332,2772.77,0.014807872023058433
333,2785.57,0.014641273969695025
334,2791.99,0.014129629930429943
335,2804.87,0.014197941826733014
336,2817.8199999999997,0.014332433678994254
337,2824.32,0.014153569589395648
338,2837.3500000000004,0.013930571391323367
339,2843.89,0.013852337276558001
340,2857.02,0.013728529015568817
341,2863.6099999999997,0.013682724869345
342,2876.8300000000004,0.013560636551730607
343,2883.46,0.013453532380340028
344,2884.0315,0.013448384656382257
345,2896.77,0.013333651856747918
346,2910.14,0.013245171684594652
347,2930.31,0.012993731424884003
348,2950.62,0.012717821163370703
349,2971.07,0.01256307090005475
350,2991.67,0.012353360634807384
351,3012.41,0.012147160367757367
352,3033.29,0.011944690098904698
353,3047.2900000000004,0.011757539918639499
354,3068.41,0.01156167964669657
355,3089.6800000000003,0.011369409372822227
356,3111.1,0.011205989097016469
357,3132.66,0.010994468819408063
358,3147.12,0.010822538633219862
359,3168.94,0.010642668352263674
360,3190.8999999999996,0.01041823806950483
361,3213.02,0.010292967784685815
362,3227.85,0.010132047593733463
363,3250.23,0.010033437305566667
364,3272.75,0.009867382015597217
365,3287.86,0.009736048821039562
366,3310.65,0.00959707952759357
367,3311.31121,0.009623516566719342
368,3318.28,0.009902146803773734
369,3325.9300000000003,0.00996128192079388
370,3333.6,0.0098152630328912
371,3341.29,0.009473327140065697
372,3348.9900000000002,0.009910413244778784
373,3356.71,0.009390416344569046
374,3364.45,0.009359787439436487
375,3372.2000000000003,0.009138244531842515
376,3379.97,0.009214314619325719
377,3387.77,0.00939819169942469
378,3395.5800000000004,0.00947646177706225
379,3403.3999999999996,0.009083213852238396
380,3411.25,0.00907484392003031
381,3419.11,0.00923485998536081
382,3426.99,0.009268858045768488
383,3434.89,0.009303100101253342
384,3442.81,0.009145826151815374
385,3450.75,0.009032770197454583
386,3458.7000000000003,0.00877844724063238
387,3466.68,0.008912919276425941
388,3474.67,0.008802851309758093
389,3482.6800000000003,0.00853526733816742
390,3490.71,0.008827061361653924
391,3498.75,0.008798736382679017
392,3506.82,0.008610349396319874
393,3514.9,0.00848467440749932
394,3523.0099999999998,0.008594688411294533
395,3531.13,0.008547478412628333
396,3539.27,0.00859883740903931
397,3547.43,0.008670499400527462
398,3555.6,0.008622848389554206
399,3563.7999999999997,0.008555581371196714
400,3572.02,0.008489000347916397
401,3580.25,0.00815590932217467
402,3588.5,0.008055133291510119
403,3596.78,0.008103801253461333
404,3605.07,0.008208970212951137
405,3613.38,0.008182794167518118
406,3621.71,0.008213117117162274
407,3630.06,0.008358396061883608
408,3638.4300000000003,0.008198429001682118
409,3646.81,0.008116038939019217
410,3655.2200000000003,0.008071473868972083
411,3663.65,0.008045784794002123
412,3672.09,0.007964861716570754
413,3680.56,0.007884873631755149
414,3683.44,0.007184375922868614
415,3686.1899999999996,0.007977065245980429
416,3688.9300000000003,0.006025488571553658
417,3691.67,0.0060519138971268874
418,3694.42,0.006933150220238704
419,3697.16,0.006255155545811931
420,3699.8999999999996,0.007875579871385159
421,3702.64,0.006823116196958388
422,3705.39,0.007580586520070204
423,3708.13,0.007202461845643432
424,3710.87,0.007292482171216661
425,3713.6200000000003,0.006504384494328477
426,3716.36,0.008181064819901706
427,3719.1000000000004,0.012363586145474932
428,3721.85,0.019548135468586747
429,3724.5899999999997,0.025304114794159976
430,3727.33,0.022375424119733204
431,3730.08,0.01741310344284502
432,3732.82,0.01065460276841825
433,3735.56,0.008231942093991479
434,3738.3100000000004,0.008393585417103295
435,3741.05,0.007014353742676524
436,3743.79,0.006828231068249751
437,3746.53,0.0072213003938229785
438,3749.2799999999997,0.008813067716934795
439,3752.02,0.008104746042508024
440,3754.7599999999998,0.006049214368081252
441,3757.51,0.005932522691193068
442,3760.25,0.006574338016766297
443,3762.99,0.006575080342339524
444,3765.7400000000002,0.006360795665451341
445,3768.48,0.0076072389910245685
446,3771.2200000000003,0.007483733316597798
447,3773.97,0.007374862639709614
448,3776.7099999999996,0.006804243965282841
449,3779.45,0.006470632290856071
450,3782.2,0.0065667326139678866
451,3784.94,0.007567361939541115
452,3787.68,0.006379396265114343
453,3790.42,0.006386010590687571
454,3793.17,0.008773923913799386
455,3795.9100000000003,0.009200502239372615
456,3798.65,0.007858200564945845
457,3801.3999999999996,0.006276404888057661
458,3801.8939600000003,0.006330157710006693
459,3804.14,0.006574572328822287
460,3806.88,0.006250987794920364
461,3809.63,0.006170250259069894
462,3812.37,0.006878104725167971
463,3815.1099999999997,0.006996252191266048
464,3817.86,0.006979105655415578
465,3820.6,0.006860979121513656
466,3823.34,0.005436981587611733
467,3826.0899999999997,0.007880416051761263
468,3828.83,0.00943480251785934
469,3831.57,0.009154514983957418
470,3834.3100000000004,0.009164313450055495
471,3837.06,0.008009323914205025
472,3839.7999999999997,0.006113268380303102
473,3842.54,0.005896813846401179
474,3845.29,0.00787039231055071
475,3848.03,0.006878344776648787
476,3850.77,0.006604169242746863
477,3853.5199999999995,0.007606964706896394
478,3856.26,0.00781414417299447
479,3859.0,0.007680610639092548
480,3861.75,0.010418284103242078
481,3864.49,0.013021233569340155
482,3867.23,0.013019783035438232
483,3869.98,0.010756792499587763
484,3872.7200000000003,0.008405311965685839
485,3875.46,0.007314938431783917
486,3878.2100000000005,0.007557545895933447
487,3880.9500000000003,0.009956011362031525
488,3883.69,0.012923399828129602
489,3886.4300000000003,0.015677769294227678
490,3889.18,0.013142288758377208
491,3891.9199999999996,0.008491902224475286
492,3894.66,0.006407264690573364
493,3897.41,0.006443196154722894
494,3900.15,0.006009546620820971
495,3902.89,0.006846302086919048
496,3905.6400000000003,0.006688271551068578
497,3908.38,0.006421189017166655
498,3911.1200000000003,0.0068521684832647325
499,3913.87,0.006544204947414263
500,3916.6099999999997,0.00645591641351234
501,3919.35,0.0062516938796104175
502,3922.1,0.0062864023437599476
503,3924.84,0.005992414809858025
504,3927.58,0.006039385275956102
505,3930.3199999999997,0.00682966774205418
506,3933.07,0.005860088206203709
507,3935.81,0.007215862672301786
508,3938.55,0.006170247138399863
509,3941.2999999999997,0.005906311602549393
510,3944.04,0.0061247400686474706
511,3946.7799999999997,0.006569660534745548
512,3949.53,0.0065236539988950785
513,3952.27,0.006432431464993156
514,3955.0099999999998,0.005608413931091232
515,3957.76,0.006482559395240763
516,3960.5,0.00855425086133884
517,3963.2400000000002,0.011186064327436917
518,3965.99,0.014067783791586448
519,3968.7299999999996,0.013324983257684525
520,3971.47,0.011351402723782602
521,3974.21,0.007509868189880679
522,3976.96,0.0065828446540302085
523,3979.7,0.006245564120128286
524,3982.44,0.005920755586226363
525,3985.19,0.005948373050375893
526,3987.9300000000003,0.006618071516473971
527,3990.67,0.006026170982572048
528,3993.4199999999996,0.006200542446721577
529,3996.1600000000003,0.006275885912819655
530,3998.9,0.005953524378917732
531,4001.65,0.005196985843067262
532,4004.39,0.005811160309165339
533,4007.1299999999997,0.006169983775263417
534,4009.88,0.005659747239412947
535,4012.62,0.005733865705511024
536,4015.36,0.005379707171609102
537,4018.1,0.006019564637707179
538,4020.8500000000004,0.006643249101856709
539,4023.59,0.006434623567954785
540,4026.3300000000004,0.006398434034052863
541,4029.08,0.006308157498202393
542,4031.8199999999997,0.0061780439643004705
543,4034.56,0.005391937430398548
544,4037.31,0.005977223894548077
545,4040.05,0.005761013360646155
546,4042.79,0.005184520826744233
547,4045.5400000000004,0.005295792290893763
548,4048.28,0.00554234575699184
549,4051.02,0.005757105223089917
550,4053.77,0.005675391687239447
551,4056.5099999999998,0.006905201153337524
552,4059.25,0.005714787619435601
553,4061.99,0.005982868085533679
554,4064.7400000000002,0.006247494549683209
555,4067.48,0.005433505015781286
556,4070.22,0.005803090481879363
557,4072.9700000000003,0.005923163946028894
558,4075.71,0.00596842141212697
559,4078.4500000000003,0.005742427878225048
560,4081.2,0.005835842342374578
561,4083.9399999999996,0.005373818808472654
562,4086.68,0.005921710274570732
563,4089.43,0.006122987738720262
564,4092.17,0.00723123620481834
565,4094.91,0.010303068670916418
566,4097.66,0.015162298135065947
567,4100.400000000001,0.016025237601164023
