,lambda (Angstroms),Total Flux (erg/s/cm^2/Angstrom)
0,102.00000000000001,1.17866e-06
1,103.9,1.301066e-06
2,104.712855,1.3682126926382488e-06
3,106.07000000000001,1.480321e-06
4,108.05,1.715064e-06
5,110.06,2.372839e-06
6,113.91999999999999,2.919686e-06
7,117.92999999999999,3.414406e-06
8,120.22644299999999,8.58767158314302e-06
9,120.95,1.021765e-05
10,124.91,1.170428e-05
11,126.94,1.22832e-05
12,128.12,1.274343e-05
13,131.1,1.356325e-05
14,132.01,1.535806e-05
15,133.85,1.589767e-05
16,136.97,1.876276e-05
17,138.038426,1.911993581658934e-05
18,140.16,1.982918e-05
19,143.09,4.114567e-05
20,147.10000000000002,7.967342e-05
21,150.87,8.343853e-05
22,155.1,8.817499e-05
23,158.489319,9.280232163382665e-05
24,159.07999999999998,9.360876e-05
25,162.04,9.734549e-05
26,165.80999999999997,0.0001035847
27,170.06,0.0001084775
28,172.82999999999998,0.0001125382
29,176.85,0.0001175856
30,180.14,0.0001214268
31,181.81,0.0001242561
32,181.970086,0.0001244440250689362
33,186.04,0.0001292217
34,190.81,0.000135629
35,193.91,0.0001400636
36,197.98,0.0001449805
37,202.12,0.0001504323
38,204.93,0.0001542851
39,208.929613,0.00015455252659545625
40,210.19,0.0001546368
41,216.07999999999998,0.0001680027
42,220.1,0.0001738984
43,223.16,0.0001759236
44,226.78,0.0001821011
45,229.94,0.0002724799
46,234.21,0.000447011
47,239.88329199999998,0.0005323828112930443
48,240.22000000000003,0.0005374496
49,245.82,0.0005050071
50,252.11999999999998,0.0005215768
51,256.81,0.000432843
52,259.78000000000003,0.0004947054
53,264.0,0.0005109002
54,268.91,0.0005027397
55,273.90999999999997,0.0004935352
56,275.42287,0.0004908604220620825
57,279.0,0.000484536
58,284.19,0.0004767916
59,290.14000000000004,0.0004470169
60,296.21999999999997,0.0004470064
61,301.03000000000003,0.0004308458
62,308.04,0.0004278774
63,316.227766,0.00042469146728910893
64,318.14000000000004,0.0004239474
65,327.79999999999995,0.0004105144
66,337.76,0.0003956746
67,348.03000000000003,0.0003804757
68,356.95,0.0003735276
69,363.078055,0.0003735268640981987
70,366.10999999999996,0.0003735265
71,374.64,0.0003658536
72,385.13,0.0003454132
73,395.01,0.0003625102
74,405.15000000000003,0.0003761024
75,413.63,0.0003787213
76,416.86938299999997,0.0003777454078165473
77,422.29,0.0003761124
78,430.14,0.0003769776
79,441.17999999999995,0.0004076748
80,451.45,0.000426896
81,459.84,0.0004249365
82,469.47,0.0004490752
83,478.630092,0.0004910934797830711
84,480.41,0.0004992581
85,490.47,0.0004912559
86,499.59000000000003,0.00057984
87,506.53999999999996,0.0005705777
88,512.4,0.0008381629
89,519.53,0.0008616454
90,530.41,0.0008837188
91,540.27,0.0008362204
92,549.5408739999999,0.0009009678150259899
93,550.3199999999999,0.0009064092
94,560.55,0.001167708
95,569.65,0.001350025
96,580.25,0.00140386
97,589.67,0.001546398
98,600.64,0.001470022
99,610.4,0.001514629
100,620.3100000000001,0.0019513
101,630.39,0.001987603
102,630.957344,0.00200159088015766
103,640.64,0.002240317
104,649.55,0.002319069
105,658.58,0.002287354
106,664.68,0.0025841
107,675.48,0.002801032
108,684.8799999999999,0.002620095
109,694.4,0.003113995
110,705.69,0.002781756
111,715.5,0.003518264
112,724.43596,0.0036745831886224895
113,725.46,0.003692497
114,735.55,0.003839976
115,745.7800000000001,0.00392934
116,754.42,0.004067461
117,764.9100000000001,0.003884402
118,775.55,0.00440879
119,784.53,0.004318375
120,795.45,0.004691514
121,804.66,0.004924088
122,815.85,0.005097092
123,825.3000000000001,0.005337251
124,831.763771,0.004800019000545712
125,834.86,0.004542678
126,844.52,0.005563214
127,854.3000000000001,0.005640472
128,864.1899999999999,0.005961095
129,874.1999999999999,0.006156315
130,884.3199999999999,0.006343406
131,894.56,0.006521151
132,904.9200000000001,0.006551217
133,915.4,0.006971465
134,926.0,0.02149397
135,934.5699999999999,0.03929336
136,945.39,0.06461294
137,954.14,0.08400765
138,954.992586,0.08488255677863708
139,965.1899999999999,0.09534694
140,974.12,0.02596074
141,985.4,0.0842012
142,994.52,0.08420116
143,1006.03,0.11151
144,1015.34,0.1072268
145,1024.73,0.05449151
146,1034.22,0.08323705
147,1046.19,0.1359325
148,1055.87,0.1328364
149,1065.64,0.1099839
150,1075.5,0.1254088
151,1085.45,0.1043093
152,1095.5,0.1289195
153,1096.4782,0.12841409988548863
154,1105.6299999999999,0.1236857
155,1115.8600000000001,0.120041
156,1126.19,0.1079718
157,1134.0,0.1298168
158,1144.49,0.119761
159,1155.08,0.1236851
160,1165.77,0.1256966
161,1173.8500000000001,0.09001346
162,1184.71,0.1200389
163,1195.67,0.09147697
164,1203.96,0.07233001
165,1215.1000000000001,0.04946767
166,1226.3400000000001,0.08616391
167,1234.84,0.1173101
168,1246.27,0.1259831
169,1254.9099999999999,0.1217096
170,1258.92541,0.11594859434931008
171,1263.61,0.1092275
172,1275.3,0.1310113
173,1284.14,0.1349982
174,1296.02,0.1128031
175,1305.0,0.1115101
176,1314.05,0.1313178
177,1326.2099999999998,0.1256957
178,1335.3999999999999,0.1146352
179,1344.66,0.1289187
180,1353.98,0.1251204
181,1366.51,0.1143729
182,1375.98,0.117032
183,1385.52,0.1173099
184,1395.12,0.09938751
185,1404.79,0.1005378
186,1414.53,0.1089774
187,1424.33,0.1089783
188,1434.21,0.1092291
189,1440.83,0.1130621
190,1445.43977,0.11360390394466167
191,1447.4799999999998,0.1138437
192,1454.1599999999999,0.1104861
193,1464.24,0.1035895
194,1474.3899999999999,0.1031142
195,1484.6100000000001,0.1038316
196,1494.9,0.1043079
197,1505.26,0.09938788
198,1512.21,0.0906426
199,1515.69,0.09490771
200,1526.2,0.09275299
201,1533.2399999999998,0.08171882
202,1543.87,0.08343037
203,1554.5700000000002,0.08004269
204,1565.3500000000001,0.08342946
205,1576.2,0.08796654
206,1583.4799999999998,0.09064224
207,1594.45,0.09169387
208,1605.5,0.08898657
209,1616.63,0.08837406
210,1624.1,0.08497973
211,1635.3500000000001,0.08878135
212,1646.69,0.0889858
213,1654.29,0.08439557
214,1659.58691,0.08670459789886661
215,1665.76,0.08939557
216,1673.45,0.0813422
217,1677.3,0.09022052
218,1685.05,0.09169278
219,1696.73,0.08695954
220,1704.56,0.08400795
221,1716.3700000000001,0.08004241
222,1724.29,0.07912622
223,1736.25,0.08304585
224,1744.26,0.08096958
225,1756.3500000000001,0.08420232
226,1764.4599999999998,0.07876243
227,1776.6899999999998,0.07949175
228,1784.89,0.08022665
229,1793.13,0.08342986
230,1805.56,0.08266497
231,1813.8899999999999,0.07732553
232,1826.47,0.07821994
233,1834.8999999999999,0.07573934
234,1843.36,0.07035941
235,1856.14,0.07035936
236,1864.71,0.07166704
237,1873.32,0.0753908
238,1886.3,0.07003638
239,1895.01,0.06719215
240,1903.76,0.07052168
241,1905.46072,0.07019283115329794
242,1916.95,0.06797128
243,1925.8,0.06596564
244,1934.69,0.06781449
245,1943.6200000000001,0.07003593
246,1957.09,0.06551271
247,1966.13,0.07003563
248,1975.2,0.07150261
249,1984.32,0.06797047
250,1993.48,0.06611808
251,2007.3,0.06734755
252,2016.56,0.06566303
253,2025.87,0.06750273
254,2035.22,0.06431663
255,2044.6100000000001,0.06566336
256,2054.05,0.06085857
257,2063.53,0.06198979
258,2073.06,0.06642344
259,2077.84,0.06358003
260,2082.63,0.06521024
261,2097.06,0.06213285
262,2106.74,0.06256366
263,2116.47,0.06285166
264,2126.2400000000002,0.06314235
265,2136.0499999999997,0.05988514
266,2145.91,0.06030062
267,2155.81,0.06184709
268,2165.77,0.05988492
269,2175.7599999999998,0.05947306
270,2185.81,0.05838721
271,2187.7616199999998,0.05873087905244045
272,2195.89,0.06016224
273,2206.0299999999997,0.05865702
274,2216.21,0.05640529
275,2226.44,0.05499438
276,2236.7200000000003,0.05718939
277,2247.04,0.05524879
278,2257.41,0.05337274
279,2262.62,0.05399055
280,2273.06,0.0546165
281,2283.56,0.05524823
282,2294.09,0.05243478
283,2304.68,0.05273429
284,2315.3199999999997,0.05099962
285,2326.01,0.04315564
286,2336.75,0.04825172
287,2347.5299999999997,0.04698881
288,2352.94,0.04923087
289,2363.8,0.04642135
290,2374.71,0.04711991
291,2385.68,0.04443032
292,2396.69,0.04625609
293,2407.75,0.04494242
294,2413.2999999999997,0.04538417
295,2424.44,0.04703175
296,2435.63,0.04548731
297,2446.87,0.04703109
298,2452.5099999999998,0.04641239
299,2463.83,0.04593282
300,2475.21,0.04462988
301,2486.63,0.04499109
302,2492.36,0.04134017
303,2503.8700000000003,0.04590675
304,2511.88643,0.04327344982979248
305,2515.4300000000003,0.04210943
306,2527.04,0.04186865
307,2532.86,0.04208621
308,2544.5499999999997,0.04146235
309,2556.3,0.04336753
310,2562.1899999999996,0.04240491
311,2574.02,0.04394731
312,2585.9,0.04339526
313,2597.83,0.04285127
314,2603.82,0.04161207
315,2615.8399999999997,0.04109051
316,2627.92,0.04219472
317,2633.97,0.04300573
318,2646.1299999999997,0.04529423
319,2652.23,0.04584666
320,2664.47,0.04264213
321,2676.77,0.04378882
322,2682.9399999999996,0.04381563
323,2695.3300000000004,0.04199084
324,2707.77,0.04262749
325,2714.01,0.04092256
326,2726.54,0.04059636
327,2732.82,0.04176018
328,2745.44,0.03795762
329,2758.1099999999997,0.03853317
330,2764.47,0.03945516
331,2777.23,0.04051825
332,2783.63,0.03871901
333,2796.48,0.03345553
334,2802.9300000000003,0.03497373
335,2815.86,0.03965467
336,2822.3500000000004,0.04079153
337,2835.38,0.03945632
338,2841.92,0.0385825
339,2855.03,0.03732025
340,2868.21,0.03985674
341,2874.83,0.0398826
342,2884.0315,0.039727512773926145
343,2888.1,0.03965894
344,2894.75,0.03950217
345,2908.1099999999997,0.04160853
346,2928.27,0.04018174
347,2948.5699999999997,0.03934396
348,2969.01,0.03960248
349,2989.5899999999997,0.03931712
350,3010.31,0.03930444
351,3031.18,0.03920195
352,3052.19,0.03901081
353,3073.3500000000004,0.03890942
354,3087.53,0.03869397
355,3108.93,0.03868325
356,3130.48,0.03796765
357,3152.18,0.03787069
358,3166.73,0.03783566
359,3188.68,0.03612424
360,3210.79,0.03687192
361,3233.04,0.03544892
362,3247.97,0.03708573
363,3270.48,0.03794245
364,3293.15,0.03758767
365,3308.35,0.03712449
366,3311.31121,0.03713457013724951
367,3323.62,0.03717647
368,3331.2799999999997,0.03737508
369,3338.96,0.03547239
370,3346.6600000000003,0.03725646
371,3354.37,0.03593469
372,3362.1099999999997,0.03489936
373,3369.86,0.03573794
374,3377.62,0.0347091
375,3385.41,0.0356249
376,3393.2200000000003,0.03690343
377,3401.04,0.03849354
378,3408.88,0.03562042
379,3416.74,0.0357281
380,3424.61,0.03743963
381,3432.5099999999998,0.03833924
382,3440.42,0.03689445
383,3448.35,0.03477555
384,3456.2999999999997,0.03496133
385,3464.27,0.03364405
386,3472.25,0.03607656
387,3480.26,0.03392692
388,3488.28,0.0353071
389,3496.32,0.03484819
390,3504.38,0.03552262
391,3512.46,0.03481947
392,3520.56,0.03590403
393,3528.67,0.03330204
394,3536.8100000000004,0.03562749
395,3544.9599999999996,0.03640069
396,3553.13,0.03668093
397,3561.32,0.03603793
398,3569.53,0.03350326
399,3577.7599999999998,0.03306768
400,3586.01,0.03153056
401,3594.28,0.03350044
402,3602.5600000000004,0.03584134
403,3610.87,0.03370603
404,3619.19,0.03499728
405,3627.5299999999997,0.03617091
406,3635.9,0.03362706
407,3644.2799999999997,0.03656125
408,3652.68,0.03438304
409,3661.1,0.03772956
410,3669.54,0.03681377
411,3669.76,0.03769458
412,3672.5,0.03236009
413,3675.23,0.03906028
414,3677.97,0.03340524
415,3680.7000000000003,0.03086069
416,3683.44,0.03073131
417,3686.1699999999996,0.03318714
418,3688.9100000000003,0.03330287
419,3691.64,0.0272269
420,3694.38,0.02508715
421,3697.11,0.03322664
422,3699.85,0.0332454
423,3702.58,0.03660452
424,3705.3199999999997,0.04003975
425,3708.05,0.03842006
426,3710.79,0.04207258
427,3713.52,0.04296071
428,3716.25,0.04051047
429,3718.99,0.06277906
430,3721.7200000000003,0.1302581
431,3724.46,0.2233695
432,3727.19,0.2888179
433,3729.9300000000003,0.2468225
434,3732.66,0.1533969
435,3735.3999999999996,0.07160267
436,3738.13,0.04355433
437,3740.87,0.03365311
438,3743.6000000000004,0.03734805
439,3746.34,0.02879639
440,3749.0699999999997,0.03347272
441,3751.81,0.03135629
442,3754.54,0.03662164
443,3757.28,0.03985217
444,3760.0099999999998,0.04074748
445,3762.7500000000005,0.03239426
446,3765.48,0.0359554
447,3768.22,0.0335705
448,3770.9500000000003,0.03865448
449,3773.69,0.03968067
450,3776.4199999999996,0.03413715
451,3779.16,0.04050493
452,3781.89,0.03623823
453,3784.63,0.04104995
454,3787.36,0.04614921
455,3790.1,0.046185
456,3792.83,0.04015035
457,3795.5699999999997,0.04119899
458,3798.3,0.04071693
459,3801.04,0.03707586
460,3801.8939600000003,0.037849116087912416
461,3803.77,0.03954786
462,3806.51,0.04866408
463,3809.24,0.04278208
464,3811.98,0.04512009
465,3814.71,0.04007582
466,3817.45,0.03806892
467,3820.1800000000003,0.04231427
468,3822.92,0.04606287
469,3825.65,0.04153669
470,3828.39,0.03657302
471,3831.12,0.03614841
472,3833.86,0.03672925
473,3836.5899999999997,0.03812736
474,3839.3300000000004,0.03220745
475,3842.06,0.0329034
476,3844.7999999999997,0.04221897
477,3847.53,0.04232233
478,3850.27,0.046976
479,3852.9999999999995,0.04006322
480,3855.74,0.04401475
481,3858.47,0.05237607
482,3861.21,0.05709167
483,3863.94,0.04801139
484,3866.6800000000003,0.05564426
485,3869.41,0.05733963
486,3872.1499999999996,0.05325855
487,3874.88,0.04753999
488,3877.61,0.04394043
489,3880.3500000000004,0.03510502
490,3883.08,0.03566809
491,3885.8199999999997,0.04285027
492,3888.55,0.0430991
493,3891.29,0.03737041
494,3894.0200000000004,0.03569323
495,3896.76,0.03747366
496,3899.49,0.03554867
497,3902.23,0.04314387
498,3904.96,0.04411551
499,3907.7000000000003,0.04333871
500,3910.43,0.04226583
501,3913.17,0.04628829
502,3915.9,0.0449281
503,3918.64,0.03923981
504,3921.3700000000003,0.04254507
505,3924.11,0.03842092
506,3926.8399999999997,0.03820732
507,3929.58,0.03408409
508,3932.31,0.02906493
509,3935.0499999999997,0.03043235
510,3937.78,0.03669077
511,3940.52,0.03872261
512,3943.25,0.032705
513,3945.99,0.04285652
514,3948.72,0.05110471
515,3951.46,0.04442424
516,3954.19,0.04466139
517,3956.9300000000003,0.04480225
518,3959.66,0.03474053
519,3962.3999999999996,0.04250992
520,3965.13,0.03730043
521,3967.87,0.04146297
522,3970.6000000000004,0.04092164
523,3973.34,0.03921823
524,3976.0699999999997,0.03634236
525,3978.81,0.03789383
526,3981.54,0.03952002
527,3984.28,0.03929096
528,3987.01,0.04214726
529,3989.7500000000005,0.03776273
530,3992.48,0.04718446
531,3995.22,0.04759647
532,3997.9500000000003,0.04467663
533,4000.69,0.04842342
534,4003.4199999999996,0.04576398
535,4006.1600000000003,0.04027324
536,4008.89,0.04540122
537,4011.63,0.04999832
538,4014.36,0.04869021
539,4017.1,0.04308992
540,4019.83,0.04336209
541,4022.5699999999997,0.04678475
542,4025.3,0.05031899
543,4028.04,0.0448857
544,4030.77,0.04020778
545,4033.51,0.04290764
546,4036.24,0.04396187
547,4038.98,0.04736298
548,4041.71,0.0454847
549,4044.44,0.04819108
550,4047.1800000000003,0.04575317
551,4049.91,0.04302996
552,4052.6499999999996,0.04414863
553,4055.38,0.04144157
554,4058.12,0.03885014
555,4060.85,0.04355522
556,4063.59,0.04824212
557,4066.3199999999997,0.04745298
558,4069.06,0.04626136
559,4071.79,0.0454821
560,4074.53,0.0454766
561,4077.2599999999998,0.04571016
562,4079.9999999999995,0.04697428
563,4082.73,0.04641501
564,4085.47,0.04650827
565,4088.2000000000003,0.04337203
566,4090.94,0.04152675
567,4093.6699999999996,0.04234304
568,4096.41,0.04505547
569,4099.14,0.05009727
570,4101.88,0.05529686
571,4104.610000000001,0.05116487
572,4107.35,0.04335844
573,4110.08,0.04019436
574,4112.82,0.04198017
575,4115.55,0.0462812
576,4118.29,0.0469581
577,4121.02,0.04002195
578,4123.76,0.03900814
579,4126.49,0.04177464
580,4129.23,0.04877812
581,4131.96,0.04475207
582,4134.7,0.04250273
583,4137.43,0.04207453
584,4140.17,0.03964922
585,4142.9,0.04007133
586,4145.64,0.04362599
587,4148.37,0.04454644
588,4151.11,0.04350478
589,4153.84,0.04373654
590,4156.58,0.04375618
591,4159.31,0.04607824
592,4162.05,0.04520269
593,4164.78,0.04478527
594,4167.52,0.04408929
595,4170.25,0.04343842
596,4172.99,0.04242459
597,4175.72,0.0433576
598,4178.46,0.04551514
599,4181.1900000000005,0.04505283
600,4183.93,0.04236532
601,4186.66,0.04236811
602,4189.4,0.04352181
603,4192.13,0.0444665
604,4194.87,0.04752012
605,4197.6,0.04745828
606,4200.34,0.04596318
607,4203.07,0.04626139
608,4205.8,0.04394043
609,4208.54,0.0443722
610,4211.2699999999995,0.04251636
611,4214.01,0.04264017
612,4216.74,0.04494246
613,4219.48,0.04330101
614,4222.21,0.04218772
615,4224.95,0.04171891
616,4227.679999999999,0.04455098
617,4230.42,0.04324354
618,4233.15,0.04273453
619,4235.89,0.04528984
620,4238.62,0.04307842
621,4241.360000000001,0.0438119
622,4244.09,0.04595708
623,4246.83,0.04308999
624,4249.56,0.04299491
625,4252.3,0.04467567
626,4255.030000000001,0.04518039
627,4257.77,0.042826
628,4260.5,0.04085791
629,4263.24,0.03953521
630,4265.97,0.03990793
631,4268.71,0.04167849
632,4271.4400000000005,0.04284944
633,4274.18,0.04367989
634,4276.91,0.04066306
635,4279.65,0.04425274
636,4282.38,0.04385149
637,4285.12,0.04044836
638,4287.85,0.04181236
639,4290.59,0.03986653
640,4293.32,0.03688829
641,4296.0599999999995,0.03847657
642,4298.79,0.03811122
643,4301.53,0.03469734
644,4304.259999999999,0.03746743
645,4307.0,0.03986831
646,4309.73,0.03561686
647,4312.47,0.03739371
648,4315.2,0.03966457
649,4317.9400000000005,0.04082815
650,4320.67,0.04107696
651,4323.41,0.03621117
652,4326.14,0.03846048
653,4328.88,0.03118117
654,4331.610000000001,0.03724653
655,4334.35,0.0450635
656,4337.08,0.05709721
657,4339.82,0.06593954
658,4342.55,0.06510196
659,4345.29,0.05464762
660,4348.02,0.04641584
661,4350.76,0.04109122
662,4353.49,0.04151151
663,4356.23,0.04019422
664,4358.96,0.04060375
665,4361.7,0.04351103
666,4364.43,0.04473586
667,4365.15832,0.043653228268614154
668,4367.17,0.04066291
669,4369.9,0.04111106
670,4372.63,0.0422416
671,4375.37,0.04002819
672,4378.099999999999,0.03943925
673,4380.84,0.03927395
674,4383.57,0.03777366
675,4386.3099999999995,0.03779421
676,4389.04,0.0407412
677,4391.78,0.03876395
678,4394.51,0.03791462
679,4397.25,0.03474047
680,4399.98,0.04165435
681,4402.72,0.03993209
682,4405.45,0.03575965
683,4408.1900000000005,0.04134628
684,4410.92,0.04093604
685,4413.66,0.04313039
686,4416.39,0.03880711
687,4419.13,0.04136693
688,4421.860000000001,0.04217153
689,4424.6,0.04256112
690,4427.33,0.03898579
691,4430.07,0.03870736
692,4432.8,0.03836265
693,4435.54,0.03823236
694,4438.27,0.04212663
695,4441.01,0.03852149
696,4443.74,0.042264
697,4446.48,0.03927212
698,4449.21,0.03990253
699,4451.95,0.0452916
700,4454.679999999999,0.04033262
701,4457.42,0.03909613
702,4460.15,0.03990432
703,4462.89,0.04253326
704,4465.62,0.04136609
705,4468.36,0.0463987
706,4471.09,0.04416663
707,4473.83,0.04389896
708,4476.56,0.04549461
709,4479.3,0.03761549
710,4482.03,0.04389636
711,4484.77,0.04020322
712,4487.5,0.04335762
713,4490.24,0.04243268
714,4492.97,0.04371766
715,4495.71,0.04549899
716,4498.4400000000005,0.04581066
717,4501.18,0.04060546
718,4503.91,0.04358028
719,4506.65,0.04320487
720,4509.38,0.0436126
721,4512.12,0.04143691
722,4514.85,0.04312594
723,4517.59,0.04007211
724,4520.32,0.04399959
725,4523.0599999999995,0.04092331
726,4525.79,0.04155013
727,4528.53,0.04193703
728,4531.259999999999,0.03963222
729,4534.0,0.03773937
730,4536.73,0.0393404
731,4539.46,0.03846414
732,4542.2,0.03870917
733,4544.929999999999,0.04148017
734,4547.67,0.03683258
735,4550.4,0.04065052
736,4553.14,0.03899201
737,4555.87,0.04348876
738,4558.610000000001,0.0430065
739,4561.34,0.04032727
740,4564.08,0.03692056
741,4566.81,0.043214
742,4569.55,0.03998777
743,4572.280000000001,0.03960715
744,4575.02,0.04087219
745,4577.75,0.03854313
746,4580.49,0.03956844
747,4583.22,0.03824772
748,4585.96,0.04246325
749,4588.6900000000005,0.03883584
750,4591.43,0.04302354
751,4594.16,0.04550631
752,4596.9,0.04275058
753,4599.63,0.0391501
754,4602.37,0.04191014
755,4605.099999999999,0.04275695
756,4607.84,0.04044837
757,4610.57,0.04160584
758,4613.3099999999995,0.04565615
759,4616.04,0.04162828
760,4618.78,0.03871543
761,4621.51,0.04206107
762,4624.25,0.04156983
763,4626.98,0.04265907
764,4629.72,0.04288075
765,4632.45,0.0400363
766,4635.1900000000005,0.03828532
767,4637.92,0.04065944
768,4640.66,0.04205917
769,4643.39,0.04090816
770,4646.13,0.04163985
771,4648.860000000001,0.04083633
772,4651.6,0.04368794
773,4654.33,0.03907465
774,4657.07,0.04152223
775,4659.8,0.04238339
776,4662.54,0.04179428
