,lambda (Angstroms),Total Flux (erg/s/cm^2/Angstrom)
0,101.99,0.0010464346536565256
1,103.88,0.0012241098966796985
2,104.712855,0.0013025148670589922
3,106.06,0.0011978592306690478
4,108.03,0.0010451427651379562
5,110.03999999999999,0.0008904821470174012
6,113.91,0.0005922039174867791
7,117.91,0.0002841367185403999
8,120.22644299999999,0.0001134263490959321
9,120.94000000000001,0.00011402943900174754
10,124.89999999999999,0.0001112025769631653
11,126.92999999999999,0.00011065321932722537
12,128.1,0.00011058218349764421
13,131.08,0.00010862545514537767
14,131.99,0.00011248411172237011
15,134.14000000000001,0.00011037434220647314
16,136.95000000000002,0.00012418743735081243
17,138.038426,0.0001260838817627501
18,140.14000000000001,0.00013707738714123312
19,143.07,0.0002152920561090609
20,147.08,0.00034489568326298223
21,150.85,0.00037251156415332715
22,155.07999999999998,0.0004769065920488601
23,158.489319,0.000544053608489898
24,159.06,0.0005552541474591373
25,162.01,0.0006175539258885799
26,166.17,0.0007118806483517937
27,170.04,0.0008105118817490624
28,172.8,0.0007603528466525409
29,176.83,0.0010102460809137794
30,180.12,0.0011005535361791577
31,181.970086,0.0011574888754619652
32,182.2,0.0011646239862009385
33,186.02,0.001299364224851104
34,190.79,0.0014799634574064154
35,193.89,0.0016031082269916284
36,197.95,0.0017608146219967782
37,202.09,0.001933844069120256
38,204.9,0.00206199652477653
39,208.929613,0.002178152936231714
40,210.16,0.0022140138618075415
41,216.04999999999998,0.0025769327131673642
42,220.07,0.002786907407983406
43,223.13,0.0029118809368732295
44,226.75,0.0031631202292200134
45,229.91,0.004270096108727151
46,234.18,0.007024521680086479
47,239.88329199999998,0.008388059106065241
48,240.19,0.008461172033475397
49,245.78,0.008557445056915127
50,252.08999999999997,0.00942171262004656
51,256.77,0.008874284128042614
52,259.75,0.009862186695099931
53,263.97,0.01160841552495962
54,268.88,0.012321884372023856
55,273.87,0.012960547945720505
56,275.42287,0.012825999013894352
57,278.97,0.012520973763077379
58,284.15,0.014376100901997107
59,290.1,0.015264007750756254
60,296.18,0.015335508446631145
61,300.99,0.015839100789913747
62,308.0,0.01805980516130898
63,316.227766,0.019042385697913895
64,318.09,0.019263690198207003
65,327.76,0.021310291201814074
66,337.72,0.022056200560234593
67,347.98,0.022515075802944883
68,356.9,0.031502022095827524
69,363.078055,0.04454464282842882
70,366.06,0.05084120075424714
71,374.59,0.05178559545992747
72,385.08,0.04367984808156718
73,394.96000000000004,0.06937562308650524
74,405.09000000000003,0.09040276629500955
75,413.57,0.09315029135997664
76,416.86938299999997,0.09055537226236646
77,422.22999999999996,0.0863389076782072
78,430.08,0.08456885581592
79,441.12,0.10236882299303456
80,451.39,0.10695181109167284
81,459.78,0.09532633170000537
82,470.49,0.1000467207006301
83,478.630092,0.11317073030994136
84,480.34,0.11592710303559076
85,490.4,0.09844650711369085
86,499.52000000000004,0.12536049377296252
87,506.46999999999997,0.10768673958238555
88,512.33,0.18160685072529473
89,519.46,0.17503476923194022
90,530.34,0.16297141893072045
91,540.1999999999999,0.13462502334524004
92,549.5408739999999,0.13291015155707933
93,550.24,0.13278187198666974
94,560.47,0.17788146694093818
95,569.58,0.20281111718858097
96,580.17,0.1991077943699791
97,589.59,0.2037437293132058
98,600.55,0.1679302882280428
99,610.3100000000001,0.1656210063857808
100,620.23,0.2128554166444654
101,630.3100000000001,0.2004890190040965
102,630.957344,0.201807950445316
103,640.55,0.22135362540380898
104,649.46,0.21286081833387677
105,658.49,0.19324461924953468
106,664.59,0.22033772518370004
107,675.39,0.23285684388681252
108,684.78,0.19547976875924084
109,694.3100000000001,0.230724402948191
110,705.5899999999999,0.181595653593664
111,715.41,0.23827650708112363
112,724.43596,0.23978938691547105
113,725.36,0.23994424271479867
114,735.45,0.2404942247518001
115,745.68,0.2307277120896123
116,754.31,0.22861833884673044
117,764.81,0.20281263640753472
118,775.45,0.22756413926914973
119,784.43,0.20706497927829473
120,795.3399999999999,0.22341599236290183
121,804.55,0.2275641410805216
122,815.7399999999999,0.22756506476675015
123,825.1899999999999,0.230728922571474
124,831.763771,0.19463207864799137
125,834.74,0.17828912580698242
126,844.41,0.22289912761657193
127,854.1899999999999,0.217827920346436
128,864.08,0.22547710399657458
129,874.08,0.22496497856698774
130,884.1999999999999,0.22444714323224585
131,894.4399999999999,0.22392879799234894
132,904.8000000000001,0.21782714284729693
133,915.28,0.20945857779708993
134,925.88,0.46780040284172786
135,934.4399999999999,0.7312456962740015
136,945.26,0.9728879031591886
137,954.01,1.1325391809083
138,954.992586,1.1385072649214774
139,965.06,1.1996559684568253
140,973.99,0.4550553519503366
141,985.26,0.9121416049147117
142,994.38,0.8996205859293613
143,1005.89,1.1483024357625433
144,1015.2,1.1777573142983315
145,1024.6,0.812924391659922
146,1034.08,1.0047510679777816
147,1046.05,1.4062359118095091
148,1055.73,1.346021785518041
149,1065.5,1.106759658052375
150,1075.3600000000001,1.2247715294125119
151,1085.31,1.0521003995984508
152,1095.35,1.2504212686101923
153,1096.4782,1.2435424636836683
154,1105.48,1.1886568863149019
155,1115.71,1.1483094685869786
156,1126.04,1.0001280467756937
157,1133.84,1.2051967282734648
158,1144.3300000000002,1.1299432999288008
159,1154.92,1.1377858675007748
160,1165.61,1.1170104309893871
161,1173.69,0.7448290010537449
162,1184.55,1.054511657600642
163,1195.51,0.8670779100641768
164,1203.79,0.7228745719618109
165,1214.93,0.5984988170752945
166,1226.17,0.845402258105416
167,1234.6699999999998,1.047261611019654
168,1246.1,1.084057144291388
169,1254.74,1.0400447914889193
170,1258.92541,1.01663617401914
171,1266.35,0.9751114421479705
172,1275.12,1.1221686676201605
173,1283.96,1.1430336932956635
174,1295.8400000000001,0.952920427800751
175,1304.83,0.9507037539119241
176,1313.8700000000001,1.1042047801683208
177,1326.03,1.0496798154866593
178,1335.22,0.9617310421787263
179,1344.47,1.0642838690450613
180,1353.79,1.028145896114709
181,1366.32,0.9376857325077013
182,1375.79,0.9420081600130195
183,1385.33,0.9312175877216503
184,1394.93,0.7178853156045493
185,1404.6,0.7064123436907611
186,1414.3400000000001,0.8551712719802858
187,1424.14,0.8415078004440786
188,1434.01,0.861108029111184
189,1440.6299999999999,0.8791369483387665
190,1445.43977,0.8805929122349085
191,1447.28,0.8811499667945043
192,1453.96,0.8473436830782783
193,1464.04,0.7907800076502008
194,1474.19,0.7944289323927616
195,1484.3999999999999,0.801787657281584
196,1494.6899999999998,0.7962691823654215
197,1505.06,0.7499925076442743
198,1512.0,0.680851724561848
199,1515.4899999999998,0.7113017330693887
200,1525.9900000000002,0.6951161586651412
201,1536.57,0.594377384455909
202,1543.66,0.5650149017391364
203,1554.36,0.5546952278224271
204,1565.1399999999999,0.6040209541007331
205,1575.9899999999998,0.6398212805496775
206,1583.26,0.6577384982716891
207,1594.24,0.6592488250375331
208,1605.29,0.6442515519740156
209,1616.41,0.6354277790811366
210,1623.8700000000001,0.6166792972663093
211,1635.1299999999999,0.6457367247147069
212,1646.4599999999998,0.6457442523337429
213,1654.06,0.6195285708601923
214,1659.58691,0.6321563449454698
215,1665.53,0.6457350901319716
216,1673.22,0.5875718270293436
217,1677.07,0.6607904955670396
218,1684.82,0.6638313335325315
219,1696.49,0.6281467412818595
220,1704.32,0.6082295806715113
221,1716.1399999999999,0.5702456910911391
222,1724.06,0.5598278320829709
223,1736.01,0.5889293448168585
224,1744.02,0.5768443874108702
225,1756.11,0.5943792026370377
226,1764.22,0.5624117470112493
227,1776.45,0.5521641647296965
228,1784.65,0.5637102107060881
229,1797.02,0.5795102309168152
230,1805.31,0.5781795784953867
231,1813.65,0.530962326964058
232,1826.22,0.540828550735185
233,1834.6499999999999,0.5236814008060362
234,1843.1200000000001,0.4853469515889674
235,1855.89,0.4831349789204941
236,1864.46,0.4909854314836253
237,1873.06,0.5176845845808163
238,1886.05,0.4743191158287829
239,1894.75,0.4519211707061739
240,1903.5,0.4798030264736648
241,1905.46072,0.47628057364041687
242,1916.69,0.4561066037003958
243,1925.54,0.43960720061966946
244,1934.43,0.46245039662106413
245,1943.3600000000001,0.4699657917045798
246,1956.83,0.4315861826088302
247,1965.8600000000001,0.4667205753976484
248,1974.93,0.4787018672685876
249,1984.05,0.45191885799217807
250,1993.21,0.43960144779788957
251,2007.02,0.4529713309001686
252,2016.29,0.43960361818171284
253,2025.59,0.45610500477484783
254,2034.94,0.4246880902206342
255,2044.3400000000001,0.4325685745190717
256,2053.77,0.3900063581291
257,2063.25,0.40277384059177956
258,2072.7799999999997,0.4396022219071104
259,2077.5499999999997,0.40932151245004095
260,2087.1400000000003,0.4237051923885533
261,2096.78,0.40092037117971696
262,2106.46,0.40650034905300153
263,2116.18,0.4093176260084072
264,2125.9500000000003,0.4102681018164641
265,2135.7599999999998,0.392703176706642
266,2145.62,0.3882036504494712
267,2155.52,0.4000031232744214
268,2165.47,0.3891037949520228
269,2175.47,0.38642066548227555
270,2185.5099999999998,0.3741710350946493
271,2187.7616199999998,0.37670654408961646
272,2195.6,0.3855335268334815
273,2205.73,0.3776207121664031
274,2215.9100000000003,0.36397149841409715
275,2226.14,0.3540550855765638
276,2236.41,0.36145747347084856
277,2246.7400000000002,0.3524209624628603
278,2257.11,0.34045755218669016
279,2267.53,0.34598984282529255
280,2272.75,0.3467924383275483
281,2283.24,0.3475914302468323
282,2293.78,0.3266447230808889
283,2304.37,0.328926716829718
284,2315.01,0.31702641149331967
285,2325.69,0.26861430688873944
286,2336.43,0.3020776033818862
287,2347.21,0.29931230060685116
288,2352.62,0.30417799958524255
289,2363.48,0.2925131982738436
290,2374.3900000000003,0.2911808978772171
291,2385.35,0.2793633983953632
292,2396.3599999999997,0.2878634998282819
293,2407.42,0.27873150217597314
294,2412.9700000000003,0.2806804037157278
295,2424.1099999999997,0.2845806075270551
296,2435.3,0.274298312253155
297,2446.54,0.28134821789402753
298,2452.18,0.27684752108037275
299,2463.5,0.27431452818488133
300,2474.8700000000003,0.26746723620416246
301,2486.29,0.26870044513821617
302,2497.77,0.23458575516999694
303,2503.5299999999997,0.26563266055179635
304,2511.88643,0.2540587599612161
305,2515.08,0.24963549082335576
306,2520.8799999999997,0.259600249754592
307,2526.6899999999996,0.2525348086150201
308,2532.52,0.25253336733383175
309,2544.21,0.24566648455903034
310,2555.9500000000003,0.25138400143018785
311,2567.7499999999995,0.24795001787649615
312,2573.67,0.25315017595803385
313,2585.5499999999997,0.2502493918378764
314,2597.4799999999996,0.2474004073636779
315,2603.47,0.2417678649495581
316,2615.49,0.23845027983808567
317,2627.56,0.24011739437257218
318,2633.62,0.2401176514627949
319,2645.77,0.24458456543081572
320,2657.9799999999996,0.24291837897398721
321,2664.11,0.23145083556855245
322,2676.4100000000003,0.23413424847445002
323,2682.58,0.2325344047857824
324,2694.96,0.22566841712521432
325,2707.3999999999996,0.22516842903979692
326,2713.64,0.2205520848554718
327,2726.17,0.2205503961327805
328,2732.4500000000003,0.22260185166522253
329,2745.06,0.21015246237606552
330,2757.73,0.2092022726620592
331,2764.09,0.21016872762803554
332,2776.8500000000004,0.21456803727675533
333,2783.25,0.21065149195949878
334,2796.1000000000004,0.19123570097094467
335,2802.54,0.19751975537045527
336,2815.48,0.20873516374462722
337,2821.97,0.20778491779009675
338,2834.9999999999995,0.19935152552699478
339,2848.08,0.19798563290985174
340,2854.65,0.19616878638885557
341,2867.8199999999997,0.19936909313443862
342,2874.43,0.1961856463302096
343,2884.0315,0.19553481804980757
344,2887.7000000000003,0.19528617781209903
345,2894.36,0.1921692768469944
346,2907.72,0.19440157491098872
347,2927.8700000000003,0.18998647199104005
348,2948.17,0.18610316904935478
349,2968.6099999999997,0.18396956608738202
350,2989.1800000000003,0.1810371631065709
351,3009.8999999999996,0.17856996010402318
352,3030.77,0.17653605707973885
353,3051.77,0.17332105403661618
354,3072.93,0.17055355097030778
355,3087.11,0.16783784891547543
356,3108.5099999999998,0.1651596458143885
357,3130.06,0.16177964269156497
358,3151.76,0.16030343954700488
359,3173.6,0.15702523638215726
360,3188.2500000000005,0.15239823425921692
361,3210.3500000000004,0.15170693105669256
362,3232.6,0.14860402783243162
363,3247.52,0.1475858256703654
364,3270.0299999999997,0.14556772240842772
365,3292.7000000000003,0.1435769191233043
366,3307.8999999999996,0.1416119169206631
367,3311.31121,0.1423499619795843
368,3323.1699999999996,0.14491568357592263
369,3330.8300000000004,0.14326066235670745
370,3338.51,0.1396791410820896
371,3346.2,0.14000401977977045
372,3353.92,0.13619079839434728
373,3361.65,0.13713717698122282
374,3369.4,0.1340189555126957
375,3377.17,0.1327922339887659
376,3384.95,0.13746081243713482
377,3392.75,0.13683229083010104
378,3400.5800000000004,0.13905696913996335
379,3408.41,0.13188804744982563
380,3416.27,0.1337243256765839
381,3424.15,0.13527570384793955
382,3432.04,0.13558868199159388
383,3439.95,0.13528096007984555
384,3447.8799999999997,0.1312926381126946
385,3455.83,0.12742421609014093
386,3463.8,0.12625739401218466
387,3471.7799999999997,0.12713607190652707
388,3479.79,0.1265541497177655
389,3487.81,0.12539562750130256
390,3495.85,0.12802410522943702
391,3503.91,0.1239640829021688
392,3511.98,0.12283126054719927
393,3520.08,0.12396913810912577
394,3528.19,0.12425781564335092
395,3536.33,0.12512069309447213
396,3544.48,0.12483607051789199
397,3552.65,0.1254140478859092
398,3560.84,0.12455262519852375
399,3569.0499999999997,0.12200080245573568
400,3577.2799999999997,0.11651307965754494
401,3585.52,0.11571345683165286
402,3593.79,0.11571463392265682
403,3602.07,0.11732641098595946
404,3610.38,0.11732938796615812
405,3618.7000000000003,0.11733126491865545
406,3627.0400000000004,0.12117784181575014
407,3635.3999999999996,0.11896761865744217
408,3643.7799999999997,0.11896939544373156
409,3652.18,0.11680137217461829
410,3659.79,0.10438375109390971
411,3662.5200000000004,0.1103466435314479
412,3665.25,0.11394623596898609
413,3667.98,0.11734092840652428
414,3670.7000000000003,0.11798642087176378
415,3673.43,0.12120281330930198
416,3676.16,0.11233490574684016
417,3678.8900000000003,0.09871566818437835
418,3681.62,0.10206699062191654
419,3684.35,0.11969068305945472
420,3687.07,0.09137968552469423
421,3689.7999999999997,0.09594428796223244
422,3692.53,0.09663082039977063
423,3695.26,0.1125780528373088
424,3697.99,0.09619732527484699
425,3700.7200000000003,0.11461433771238518
426,3703.44,0.0970742601776247
427,3706.1699999999996,0.09484430261516288
428,3708.9,0.11396131505270106
429,3711.63,0.11330960749023926
430,3714.3599999999997,0.12875009992777744
431,3717.08,0.13224209239301696
432,3719.81,0.17561918483055514
433,3722.54,0.29287807726809334
434,3725.27,0.4763991697056315
435,3728.0,0.5537769621431696
436,3730.73,0.4768982545807079
437,3733.45,0.2990948470459474
438,3736.18,0.1770857394834856
439,3738.91,0.13356003192102378
440,3741.64,0.13779292435856197
441,3744.3700000000003,0.13571791679610015
442,3747.1,0.11888220923363835
443,3749.8199999999997,0.11772780169887787
444,3752.55,0.12643879413641604
445,3755.2799999999997,0.13272828657395422
446,3758.0099999999998,0.13137657901149244
447,3760.7400000000002,0.13542287144903062
448,3763.47,0.1218069638865688
449,3766.1899999999996,0.1120864563518083
450,3768.92,0.10772494878934649
451,3771.6499999999996,0.10347844122688468
452,3774.38,0.11761243366442288
453,3777.11,0.12761492610196107
454,3779.83,0.12806051856720058
455,3782.56,0.13264341100473875
456,3785.29,0.13962450344227695
457,3788.0200000000004,0.14527569587981515
458,3790.75,0.1357744883173533
459,3793.48,0.12739988075489153
460,3796.2000000000003,0.12742207322013102
461,3798.93,0.11244466565766921
462,3801.66,0.1203023580952074
463,3801.8939600000003,0.11984173905589754
464,3804.3900000000003,0.11492755197343517
465,3807.12,0.12221864598670232
466,3809.8500000000004,0.1423788399999695
467,3812.57,0.13831973403516606
468,3815.2999999999997,0.13414312804843323
469,3818.03,0.14281912206170042
470,3820.76,0.15075351607496754
471,3823.49,0.12295181008823472
472,3826.2200000000003,0.11643880410150188
473,3828.94,0.12537379813669847
474,3831.6699999999996,0.12192219214996562
475,3834.4,0.11024788616323279
476,3837.13,0.12277858017649995
477,3839.86,0.12426007418976712
478,3842.58,0.1159993682249637
479,3845.31,0.12917346223823087
480,3848.04,0.143772356251498
481,3850.77,0.15005855026476517
482,3853.5000000000005,0.14497534427803235
483,3856.23,0.14686513829129952
484,3858.95,0.15279703232649608
485,3861.6800000000003,0.15348852633976326
486,3864.41,0.18450132035303043
487,3867.14,0.21471591436629756
488,3869.8700000000003,0.22004860837956472
489,3872.6,0.1943335023928319
490,3875.3199999999997,0.1612530964280285
491,3878.05,0.13247809044129563
492,3880.7799999999997,0.1218369844545628
493,3883.51,0.12372007846782998
494,3886.2400000000002,0.14763177248109716
495,3888.96,0.1449958665162937
496,3891.69,0.1258919605295609
497,3894.42,0.12341865454282804
498,3897.1499999999996,0.1234018485560952
499,3899.88,0.12869474256936236
500,3902.61,0.12735133658262954
501,3905.3300000000004,0.1349147306178261
502,3908.06,0.13590292463109327
503,3910.79,0.14123571864436044
504,3913.52,0.12413511265762758
505,3916.25,0.12272170667089476
506,3918.98,0.12294990068416191
507,3921.7000000000003,0.1364661947193585
508,3924.43,0.13096818873262564
509,3927.1600000000003,0.12990978274589282
510,3929.89,0.12551827675916
511,3932.62,0.12370657077242714
512,3935.3500000000004,0.1208349647856943
513,3938.07,0.12795665882089088
514,3940.7999999999997,0.13217965283415806
515,3943.53,0.1310212468474252
516,3946.2599999999998,0.13134784086069237
517,3948.99,0.12752123487395955
518,3951.71,0.12250042890915612
519,3954.44,0.11566242292242329
520,3957.17,0.12264351693569045
521,3959.9,0.1252282109489576
522,3962.6299999999997,0.13271930496222478
523,3965.36,0.13450069897549194
524,3968.08,0.14142749301068852
525,3970.8100000000004,0.1460253870239557
526,3973.54,0.13003468103722282
527,3976.27,0.11837367505049
528,3978.9999999999995,0.11921846906375717
529,3981.73,0.13117756307702433
530,3984.45,0.1296015571122209
531,3987.1800000000003,0.12524665112548808
532,3989.91,0.12783474513875526
533,3992.64,0.1326276391520224
534,3995.37,0.13194253316528956
535,3998.1,0.12635112717855673
536,4000.8199999999997,0.12562842121375328
537,4003.55,0.12708321522702046
538,4006.2799999999997,0.13253100924028763
539,4009.01,0.13183760325355479
540,4011.74,0.13514399726682194
541,4014.46,0.14349229130201854
542,4017.19,0.1329961853152857
543,4019.92,0.12943627932855287
544,4022.6499999999996,0.13796557334182002
545,4025.38,0.13476236735508718
546,4028.1099999999997,0.13051756136835435
547,4030.8300000000004,0.12826815540355094
548,4033.56,0.1312695494168181
549,4036.29,0.13820234343008525
550,4039.02,0.14542003744335244
551,4041.75,0.13696553145661958
552,4044.4799999999996,0.12425452546988673
553,4047.2000000000003,0.13018801950508332
554,4049.93,0.13466091351835047
555,4052.6600000000003,0.12763460753161765
556,4055.39,0.12452140154488481
557,4058.12,0.12492289555815196
558,4060.85,0.1318606895714191
559,4063.57,0.12507828360661571
560,4066.2999999999997,0.12304327761988287
561,4069.03,0.12307817163315005
562,4071.7599999999998,0.1391153656464172
563,4074.4900000000002,0.13995345965968436
564,4077.21,0.11758215369488095
565,4079.94,0.12078184770814811
566,4082.67,0.12006344172141527
567,4085.4,0.12335813573468243
568,4088.1299999999997,0.1210281297479496
569,4090.86,0.11752822376121676
570,4093.58,0.11979861779641335
571,4096.31,0.12938951180968053
572,4099.04,0.14265020582294766
573,4101.77,0.14838639983621482
574,4104.5,0.151829393849482
575,4107.2300000000005,0.13140228786274916
576,4109.95,0.12494488189794574
577,4112.68,0.1203766759112129
578,4115.41,0.11602856992448006
579,4118.14,0.11179706393774723
