,lambda (Angstroms),Total Flux (erg/s/cm^2/Angstrom)
0,100.11000000000001,0.015588404377900641
1,101.98,0.01554480518613798
2,104.11,0.01549514297442575
3,104.712855,0.015481087276076983
4,106.05,0.015317319745324099
5,108.02000000000001,0.015076043482857718
6,110.03,0.014829872420815429
7,113.89,0.014357118782264503
8,117.9,0.013865993057016397
9,120.22644299999999,0.01358111340909423
10,120.92,0.013509912797560109
11,124.88000000000001,0.013103300598892911
12,126.91,0.012894858170980439
13,128.08,0.012774722737144672
14,131.07,0.012467706303597729
15,131.98,0.012374282879792135
16,134.12,0.012154544643436124
17,136.93,0.01186603231143314
18,138.038426,0.011752218511479907
19,140.12,0.011599444516901031
20,143.05,0.011384609437962497
21,147.06,0.011090643886100543
22,150.82999999999998,0.010813975165843795
23,155.06,0.01050355541892707
24,158.489319,0.010251900556568003
25,159.04000000000002,0.010221351028157967
26,161.99,0.010057694266294477
27,166.15,0.009826917603751385
28,170.02,0.00961221948473894
29,173.18,0.009436915555336014
30,176.80999999999997,0.009235535992797214
31,180.09,0.009053566161657464
32,181.970086,0.00894926124415714
33,182.18,0.008940377144677818
34,185.99,0.008779136384248327
35,191.20000000000002,0.008558637283151831
36,193.86,0.008446074146484525
37,197.92000000000002,0.00827424622515021
38,202.07,0.008098613052530162
39,204.88,0.007979690832719962
40,208.929613,0.007808258796996441
41,210.13,0.007770054665896723
42,216.02,0.007582715833956267
43,220.04,0.0074548251091106615
44,223.1,0.007357451093228183
45,227.25,0.007225425119220902
46,229.88000000000002,0.007142556308488577
47,234.14999999999998,0.007008227727485905
48,239.88329199999998,0.006827017340712396
49,240.16,0.006820291684624713
50,245.75,0.006682818241460376
51,252.06,0.006528323115881313
52,256.74,0.006412371060185588
53,259.71999999999997,0.006340216275024637
54,263.94,0.006236993516038322
55,268.84000000000003,0.006116768243438097
56,273.84,0.00599405439033583
57,275.42287,0.005955199984066383
58,278.93,0.005889113495811626
59,284.12,0.005791401166642039
60,290.07,0.005679122595592125
61,296.14,0.005564815445087424
62,300.95,0.005473962383357998
63,307.96,0.0053420993072907895
64,316.227766,0.005186539698115697
65,318.05,0.0051609350023990525
66,327.72,0.005024863823233879
67,337.66999999999996,0.004884819973274887
68,347.92999999999995,0.004740404737687022
69,356.86,0.004614805464119805
70,363.078055,0.004527401515572657
71,366.01,0.004496538993143861
72,375.4,0.004397547934745764
73,385.03000000000003,0.004295870055040367
74,394.90999999999997,0.004191926750556535
75,405.03999999999996,0.004085257322294264
76,414.46999999999997,0.003985856707011618
77,416.86938299999997,0.0039605519754331185
78,422.18,0.003917758474859232
79,430.03,0.0038545256559837475
80,441.06,0.003765812630917938
81,451.33,0.0036831576816145953
82,459.71999999999997,0.003615569609197358
83,470.43,0.0035293962044525866
84,478.630092,0.0034634724182259053
85,480.28000000000003,0.003453271250222301
86,490.34000000000003,0.003390940376861251
87,499.46,0.0033346284158281714
88,506.4,0.00329263700021528
89,512.27,0.0032636242667948663
90,520.59,0.0032124652654664434
91,530.27,0.003152930480940105
92,540.13,0.0030911959527552186
93,549.5408739999999,0.0030371485798950017
94,550.1700000000001,0.0030344580368576075
95,560.4,0.0029890792435349482
96,569.51,0.0029482992816611034
97,580.09,0.0028971084610106895
98,589.52,0.0028569561458657547
99,600.48,0.0028057501338309213
100,610.24,0.0027639252940626752
101,620.15,0.0027210755540111055
102,630.2299999999999,0.0026758316709717704
103,630.957344,0.002672412028729464
104,640.47,0.0026369880433291756
105,649.38,0.002608169738193703
106,658.41,0.002576627996962128
107,664.5,0.00255630945008502
108,675.3000000000001,0.0025163272514359615
109,684.7,0.0024803676872414107
110,694.22,0.002456653876950759
111,705.5,0.002411257893917298
112,715.3199999999999,0.0023850754533863952
113,724.43596,0.002353142702402269
114,725.27,0.002351024857035833
115,735.36,0.0023253018096076497
116,745.59,0.0023047717331566766
117,754.22,0.0022850876026804397
118,764.7099999999999,0.0022597132637585723
119,775.35,0.002237576818026573
120,784.33,0.0022184596149933625
121,795.24,0.0021924844890031264
122,804.45,0.002171183466861048
123,815.64,0.0021435592028252325
124,825.0799999999999,0.002126725751574286
125,831.763771,0.0020947954445977306
126,834.64,0.002083070973219627
127,844.3000000000001,0.0020879985134137826
128,854.0799999999999,0.0020714611347283627
129,865.96,0.0020559212256503674
130,875.99,0.002043862340965831
131,884.09,0.0020381641665944703
132,894.33,0.0020246602688706768
133,904.6899999999999,0.002003920592267308
134,915.16,0.0020583787850243273
135,925.7600000000001,0.003355031650661806
136,934.32,0.0051977271572520726
137,945.14,0.008332154561610329
138,954.992586,0.010695532315646909
139,956.09,0.010958822422631565
140,964.93,0.012307844168671218
141,976.11,0.003532713700427248
142,985.1400000000001,0.01109294674530712
143,994.26,0.011293729089637623
144,1005.77,0.015029078719379295
145,1015.07,0.014116279662611057
146,1024.47,0.006734402605232406
147,1033.95,0.01034494614736543
148,1045.92,0.01788164397429921
149,1055.6,0.017490143515211408
150,1065.3600000000001,0.01430520065563528
151,1075.22,0.016454014795448738
152,1085.17,0.013411036234712827
153,1095.21,0.016797324973427546
154,1096.4782,0.016708346577871715
155,1105.35,0.01608915496214106
156,1115.57,0.015509588601074254
157,1125.8899999999999,0.014076206032952001
158,1133.7,0.016982135261921497
159,1144.19,0.015461800141804982
160,1154.78,0.01617674881463302
161,1165.46,0.01653932790111115
162,1176.24,0.012105070780533838
163,1184.4,0.015756608284809265
164,1195.3600000000001,0.011329861991532143
165,1203.64,0.008614947047341032
166,1214.78,0.005748990581364104
167,1226.02,0.010586804908331728
168,1234.52,0.015214915308618631
169,1245.94,0.01654626446288645
170,1254.58,0.015875004173295727
171,1258.92541,0.015103378888207456
172,1266.19,0.013816854255518707
173,1274.96,0.01715515301199733
174,1283.8,0.01774495882810577
175,1295.6799999999998,0.014531542662423447
176,1304.66,0.014246042597791523
177,1313.6999999999998,0.01707268144141373
178,1325.8600000000001,0.01633961351425068
179,1335.0500000000002,0.01467138462850821
180,1344.31,0.016853222802395557
181,1353.6200000000001,0.01627173173316135
182,1366.1499999999999,0.014728575406898765
183,1375.62,0.015263354759675567
184,1385.15,0.015317843020706498
185,1394.7499999999998,0.013491398341367249
186,1404.42,0.013829210721657815
187,1414.1599999999999,0.014116310161578202
188,1423.96,0.014287248509752716
189,1433.8300000000002,0.01412341391755705
190,1440.45,0.014735340128262692
191,1445.43977,0.014825036432497623
192,1447.1000000000001,0.014855474847403861
193,1453.78,0.014439990166986745
194,1463.85,0.013444871793962743
195,1474.0,0.013321747257101411
196,1484.22,0.013427844826882413
197,1494.51,0.013534944503305751
198,1504.8700000000001,0.012847866286371424
199,1511.8100000000002,0.011642156573482988
200,1515.3,0.012275710176079434
201,1525.8,0.011906166172429782
202,1536.3799999999999,0.010520074004942795
203,1543.47,0.011251462234859361
204,1554.17,0.010662104821616378
205,1564.94,0.010812348515015734
206,1575.79,0.011344762044577756
207,1586.71,0.011704620680782115
208,1594.03,0.011875286689666356
209,1605.0800000000002,0.011565107809635052
210,1616.2099999999998,0.011506432765766418
211,1623.67,0.01097233298793533
212,1634.92,0.0114664286983107
213,1646.26,0.011530879974369072
214,1653.8600000000001,0.010761794409822655
215,1659.58691,0.011138282287934249
216,1665.3200000000002,0.011516597079569507
217,1673.01,0.010455027635533945
218,1676.8600000000001,0.011435952517258666
219,1684.6,0.011755709110648101
220,1696.28,0.011134173453127248
221,1704.1100000000001,0.010685409913881677
222,1715.9199999999998,0.010166308953665815
223,1723.8400000000001,0.010053985281785239
224,1735.7900000000002,0.010530907226359364
225,1743.8000000000002,0.010259227421843781
226,1755.8899999999999,0.010747454271207898
227,1764.0,0.009966435541542307
228,1776.22,0.010109693088211415
229,1784.4199999999998,0.010213810225910818
230,1796.79,0.010654671884854916
231,1805.09,0.01055845909740431
232,1813.42,0.009832019932408701
233,1825.99,0.009951817741052783
234,1834.4199999999998,0.009611714650907169
235,1842.88,0.008934107183216551
236,1855.66,0.008888695349045619
237,1864.22,0.009036708956204995
238,1877.1499999999999,0.00960759623430905
239,1885.81,0.008890175916318419
240,1894.51,0.008514372428267785
241,1903.26,0.008937201977642147
242,1905.46072,0.008882776899447699
243,1916.45,0.008612706419708342
244,1925.3,0.008427406725000666
245,1934.18,0.008679204295734657
246,1943.1100000000001,0.008881811642204765
247,1956.58,0.008324820825514096
248,1965.6100000000001,0.008891443723456434
249,1974.68,0.009099941641987661
250,1983.8,0.008620976336255004
251,1992.96,0.00838057205111124
252,2006.77,0.008556080909426153
253,2016.03,0.008299616175754618
254,2025.34,0.008603391217819197
255,2034.69,0.008150986280472668
256,2044.0800000000002,0.00832327436371503
257,2053.51,0.007902910467546287
258,2062.9900000000002,0.007983667347113657
259,2072.52,0.00841897800241714
260,2077.29,0.007994778207642494
261,2086.88,0.008216342393829318
262,2096.51,0.007817401600605033
263,2106.19,0.007897346583116862
264,2115.91,0.007910192586217581
265,2125.6800000000003,0.007974185365054419
266,2135.49,0.007538278164480146
267,2145.35,0.007582523739641988
268,2155.25,0.007775807335392723
269,2165.2,0.007574105706879572
270,2175.19,0.007489257098955313
271,2185.23,0.007326454266767169
272,2187.7616199999998,0.007385392072349412
273,2195.32,0.007562393978627822
274,2205.45,0.00736742979543516
275,2215.63,0.007116459252996728
276,2225.86,0.00690392435131253
277,2236.13,0.0071716799622317156
278,2246.4500000000003,0.006927534213905134
279,2256.82,0.006720744106332784
280,2267.2400000000002,0.006804384639514665
281,2272.4700000000003,0.006905358662407299
282,2282.96,0.006961674092645104
283,2293.49,0.006639169035486296
284,2304.08,0.006609204747232565
285,2314.7200000000003,0.006385701099733066
286,2325.4,0.005390342964836952
287,2336.1299999999997,0.00609045947069507
288,2346.92,0.005960575745458266
289,2352.33,0.006178896075066133
290,2363.19,0.005869988246885253
291,2374.09,0.005930559931307759
292,2385.0499999999997,0.005658549384635343
293,2396.06,0.0058764874787171585
294,2407.12,0.005678582213553205
295,2412.67,0.005725812337272922
296,2423.81,0.005871564097315739
297,2434.99,0.005661552369961942
298,2446.23,0.005842759411513223
299,2457.52,0.005742243093818735
300,2463.19,0.005704591755348608
301,2474.56,0.005547275462860891
302,2485.98,0.005664281811127406
303,2497.46,0.0052902769282989984
304,2503.21,0.0057095996150356414
305,2511.88643,0.005434705501031827
306,2514.77,0.005343556857196035
307,2520.56,0.005492432929630161
308,2526.3799999999997,0.005308344582750475
309,2532.2,0.005296431235870788
310,2543.89,0.005195022843255061
311,2555.6299999999997,0.0053615687517829785
312,2567.43,0.005292320821683271
313,2573.34,0.0054516542168621465
314,2585.22,0.005404085168592271
315,2597.1499999999996,0.005345475421466041
316,2603.14,0.005210207698474748
317,2615.1600000000003,0.00516459669340708
318,2627.23,0.005229450989483056
319,2633.28,0.005239941427864139
320,2645.44,0.005443460465998677
321,2657.6499999999996,0.005418960805276861
322,2663.78,0.0051588991254877745
323,2676.0699999999997,0.005257335346595791
324,2682.2400000000002,0.005211927107721621
325,2694.62,0.0050682320708882
326,2707.06,0.005099191195427151
327,2713.3,0.004959346978154086
328,2725.8199999999997,0.0049472889845228706
329,2732.1099999999997,0.005063612068393449
330,2744.72,0.004709253816820796
331,2757.3900000000003,0.004707614726620516
332,2763.7400000000002,0.00476703497186347
333,2776.5,0.004878384623721752
334,2782.8999999999996,0.004784974170108352
335,2795.75,0.004239771564025194
336,2802.19,0.00442157955132671
337,2815.13,0.004791090687302116
338,2828.12,0.004799717124421165
339,2834.64,0.004648058993552514
340,2847.7200000000003,0.004577650172730125
341,2854.29,0.004538083343005119
342,2867.46,0.004653711264241292
343,2874.07,0.004593885875431201
344,2884.0315,0.004592555315942052
345,2887.3399999999997,0.00459232136422463
346,2894.0,0.004533626909986617
347,2907.3500000000004,0.004650082467932941
348,2927.5099999999998,0.004541049903753007
349,2947.7999999999997,0.004462765694069929
350,2968.23,0.004442526327691158
351,2988.81,0.004394000293424142
352,3009.52,0.0043738976136539825
353,3030.3799999999997,0.004335325265995579
354,3051.39,0.004278596250448932
355,3072.5400000000004,0.0042318410782065915
356,3086.72,0.004194803207171301
357,3108.12,0.004140026255115221
358,3129.6600000000003,0.004077116146363447
359,3151.36,0.004049594858530879
360,3173.2,0.003996400414002618
361,3187.85,0.003878101516917498
362,3209.95,0.0038928297813829484
363,3232.2000000000003,0.0038090103779601543
364,3247.12,0.0038241106786761955
365,3269.62,0.003814205495439663
366,3292.29,0.0037719076219297873
367,3307.48,0.00373868812044699
368,3311.31121,0.003744368048335401
369,3322.75,0.0037618307384742443
370,3330.41,0.0037615608092011984
371,3338.09,0.0036585847391206504
372,3345.7799999999997,0.003658311598636352
373,3353.5,0.0036346892469408015
374,3361.23,0.0036112468248415
375,3368.9799999999996,0.0035650392619346978
376,3376.74,0.0034750736286241445
377,3384.5199999999995,0.0035492838545060895
378,3392.33,0.0036252798691767825
379,3400.15,0.003703102813443725
380,3407.9900000000002,0.0035181816169031657
381,3415.84,0.003555517349958856
382,3423.7200000000003,0.0036240928718032943
383,3431.61,0.0036313893232439816
384,3439.52,0.0036003516338771677
385,3447.4500000000003,0.003472015803702852
386,3455.4,0.0034348258327210348
387,3463.3599999999997,0.003362375791335467
388,3471.3500000000004,0.0034341935387386473
389,3479.35,0.003361558215738077
390,3487.3700000000003,0.0033972287519300048
391,3495.41,0.003418612147314432
392,3503.46,0.0033819534722951076
393,3511.5400000000004,0.0033387805860645315
394,3519.64,0.0033454945590264537
395,3527.75,0.0033308874615846254
396,3535.88,0.0033876992233352957
397,3544.03,0.0034237168442784647
398,3552.2,0.003415974324414132
399,3560.39,0.0034011776637422977
400,3568.6,0.0033219918622629627
401,3576.83,0.0031902049199761255
402,3585.07,0.003156054907285538
403,3593.33,0.003162421753787449
404,3601.62,0.003257533389078108
405,3609.9199999999996,0.003215782953965016
406,3618.24,0.0032358683780444224
407,3626.59,0.0033192185909125768
408,3634.94,0.0032628338037807313
409,3643.3199999999997,0.003297377805437634
410,3651.72,0.003227392666287035
411,3660.14,0.0033035193863289345
412,3668.5800000000004,0.0032612109655633325
413,3677.03,0.00325381447439398
414,3685.51,0.0031780347720133753
415,3694.0099999999998,0.003191229928825269
416,3702.5200000000004,0.0032595710152334124
417,3711.06,0.0031297368904303034
418,3719.6099999999997,0.0034526596952234438
419,3728.19,0.003089210288805332
420,3736.78,0.0028557648119834694
421,3745.3999999999996,0.003953990123950354
422,3754.0299999999997,0.0025911963655134893
423,3762.68,0.003996459466269122
424,3771.36,0.003047884355813503
425,3780.0499999999997,0.0037282601749541334
426,3786.88,0.004891600089192396
427,3789.6200000000003,0.0043183097985647016
428,3792.36,0.0029009825079370057
429,3795.1000000000004,0.0035863342173093104
430,3797.84,0.004596790926681615
431,3800.58,0.00510964763605392
432,3801.8939600000003,0.0046923520234869774
433,3803.32,0.004239505616691731
434,3806.06,0.0038563343890829463
435,3808.8,0.0035961171614741624
436,3811.54,0.004005452933865378
437,3814.2799999999997,0.0030603117062565945
438,3817.02,0.00427065447864781
439,3819.7599999999998,0.0033797572510390257
440,3822.51,0.0029793932634754653
441,3825.25,0.003855587035866681
442,3827.99,0.0032869028082578963
443,3830.73,0.0041102995806491125
444,3833.47,0.0038309173530403284
445,3836.21,0.004708016125431544
446,3838.95,0.00307940389782276
447,3841.6899999999996,0.004088677670213976
448,3844.43,0.003619440442605192
449,3847.1699999999996,0.004917474214996408
450,3849.9100000000003,0.004065996987387624
451,3852.65,0.004482203759778839
452,3855.3900000000003,0.0041153065321700546
453,3858.13,0.004365526304561271
454,3860.8700000000003,0.0047898690769524865
455,3863.61,0.007308760849343702
456,3866.35,0.012758827621734917
457,3869.09,0.012450339394126134
458,3871.83,0.011060211166517349
459,3874.57,0.0064846899389085656
460,3877.32,0.004031356951345005
461,3880.0600000000004,0.0041947857237362215
462,3882.8,0.004113574496127437
463,3885.54,0.005381954268518653
464,3888.28,0.006521414040909868
465,3891.02,0.005803196813301084
466,3893.76,0.0051820765856923
467,3896.5,0.004945365358083516
468,3899.24,0.004049770130474732
469,3901.98,0.0036711199028659474
470,3904.72,0.004363247675257163
471,3907.46,0.0038802684476483794
472,3910.2,0.003797248220039595
473,3912.9399999999996,0.004749386992430811
474,3915.6800000000003,0.0041423687648220265
475,3918.42,0.004265838537213243
476,3921.1600000000003,0.004040337309604458
477,3923.9,0.003332786081995674
478,3926.6400000000003,0.004325788854386891
479,3929.38,0.004064487626778105
480,3932.1299999999997,0.003624702639214545
481,3934.87,0.004232388411605761
482,3937.61,0.003996943183996977
483,3940.3500000000004,0.004356373956388193
484,3943.09,0.004614730728779408
485,3945.8300000000004,0.004126145501170624
486,3948.57,0.00367589427356184
487,3951.31,0.003647299045953056
488,3954.05,0.003678191818344272
489,3956.79,0.004076316590735487
490,3959.53,0.004787973363126704
491,3962.27,0.004721949135517919
492,3965.0099999999998,0.005858699907909135
493,3967.75,0.007897891680300351
494,3970.49,0.007094148452691566
495,3973.23,0.0053311872250827825
496,3975.97,0.004297990997473999
497,3978.7099999999996,0.004643680769865215
498,3981.4500000000003,0.0044749545422564305
499,3984.19,0.004336786314647645
500,3986.94,0.0038499893270840854
501,3989.68,0.0032921540994753007
502,3992.42,0.003768750871866517
503,3995.16,0.004250230644257733
504,3997.8999999999996,0.003796724416648949
505,4000.64,0.003678988189040165
506,4003.38,0.00425141696143138
507,4006.1200000000003,0.004110536733822596
508,4008.86,0.004203629506213812
509,4011.6000000000004,0.0031776662786050275
510,4014.34,0.003925304050996244
511,4017.08,0.0032783258233874592
512,4019.82,0.0039049995957786752
513,4022.56,0.0045994793681698905
514,4025.3,0.005054019140561107
515,4028.04,0.005236615912952323
516,4030.7799999999997,0.0039025436853435385
517,4033.52,0.004456350457734755
518,4036.2599999999998,0.004258513230125971
519,4039.0,0.003749134002517186
520,4041.75,0.004192986014953625
521,4044.4900000000002,0.0036337037873448415
522,4047.23,0.0037913465597360567
523,4049.97,0.0033817773321272726
524,4052.71,0.0037466321045184887
525,4055.45,0.004136620876909704
526,4058.19,0.003979286649300921
527,4060.93,0.003526683421692136
528,4063.6699999999996,0.004574110194083352
529,4066.41,0.004222762966474568
530,4069.15,0.004007568738865784
531,4071.8900000000003,0.0038113595112569997
532,4074.63,0.0029956812836482156
533,4077.3700000000003,0.004578860056039431
534,4080.11,0.003945262828430647
535,4082.85,0.003212397600821863
536,4085.59,0.0039667253732130784
537,4088.33,0.004864622145604295
538,4091.07,0.00364843991799551
539,4093.81,0.0039120406903867255
540,4096.56,0.0063464647028231656
541,4099.3,0.00798641547521438
542,4102.04,0.007547374247605597
543,4104.78,0.006715428019996812
544,4107.52,0.0040384587923880284
545,4110.26,0.0033656255647792448
546,4113.0,0.0034836703371704603
547,4115.74,0.003761192109561676
548,4118.48,0.0034991678819528923
549,4121.22,0.0036248056543441076
550,4123.96,0.004294332426735324
551,4126.7,0.0031882681991265397
552,4129.44,0.003988341971517755
553,4132.179999999999,0.0033874717439089713
554,4134.92,0.004264211516300187
555,4137.66,0.003339321288691403
556,4140.400000000001,0.004034706061082619
557,4143.14,0.003684260833473834
