,lambda (Angstroms),Total Flux (erg/s/cm^2/Angstrom)
0,100.11000000000001,0.05455939049178475
1,101.98,0.05440678816415793
2,104.11,0.05423296730036513
3,104.712855,0.05418377091459851
4,106.05,0.053610581359584346
5,108.02000000000001,0.05276610844470202
6,110.03,0.051904493082479
7,113.89,0.05024984143462577
8,117.9,0.04853088902095739
9,120.22644299999999,0.04753367301281365
10,120.92,0.047284429958460376
11,124.88000000000001,0.04586124944087519
12,126.91,0.045131687394931536
13,128.08,0.04471120223050636
14,131.07,0.04363662537434205
15,131.98,0.04330959660452248
16,134.12,0.04254050074127643
17,136.93,0.04153063563751599
18,138.038426,0.04113227871749585
19,140.12,0.04059755354815361
20,143.05,0.03984508831911874
21,147.06,0.03881532177685191
22,150.82999999999998,0.03784689003070329
23,155.06,0.036760301159244745
24,158.489319,0.035879395345111545
25,159.04000000000002,0.03577245372230288
26,161.99,0.03519956424953067
27,166.15,0.03439170010312985
28,170.02,0.03364014415658629
29,173.18,0.033026475696176054
30,176.80999999999997,0.03232153181479024
31,180.09,0.031684550698301124
32,181.970086,0.031319434699268074
33,182.18,0.03128833490387236
34,185.99,0.030723872817369144
35,191.20000000000002,0.02995198707353141
36,193.86,0.029557909835195836
37,197.92000000000002,0.028956402495525738
38,202.07,0.028341564991355567
39,204.88,0.027925253814519865
40,208.929613,0.02732524164127787
41,210.13,0.02719152716813853
42,216.02,0.026535542878846935
43,220.04,0.026087795661887316
44,223.1,0.025746948793798644
45,227.25,0.02528472270977316
46,229.88000000000002,0.02499259455221002
47,234.14999999999998,0.02451851790620067
48,239.88329199999998,0.02388113073649548
49,240.16,0.0238574388711865
50,245.75,0.023377217442611314
51,252.06,0.022835827900584596
52,256.74,0.022432924043149564
53,259.71999999999997,0.022178052085086233
54,263.94,0.02181608218863413
55,268.84000000000003,0.021395415927033336
56,273.84,0.020966129636175404
57,275.42287,0.02083022236699589
58,278.93,0.02059910389784069
59,284.12,0.020257170230747135
60,290.07,0.019864907659572443
61,296.14,0.019464969772805985
62,300.95,0.019147776704252994
63,307.96,0.018686050125517762
64,316.227766,0.018141441407640877
65,318.05,0.01805179189339668
66,327.72,0.017575855803818576
67,337.66999999999996,0.017086106073962107
68,347.92999999999995,0.01658108959940458
69,356.86,0.016141633691919316
70,363.078055,0.015835687995128356
71,366.01,0.015727654136003515
72,375.4,0.015381510129110175
73,385.03000000000003,0.015026362292641284
74,394.90999999999997,0.014662368814447872
75,405.03999999999996,0.014289068995529926
76,414.46999999999997,0.013941462597040665
77,416.86938299999997,0.013853004022755095
78,422.18,0.013703465779507313
79,430.03,0.013482445978443117
80,441.06,0.013172027168212785
81,451.33,0.012882942625651086
82,459.71999999999997,0.012646713434690754
83,470.43,0.012345266325584053
84,478.630092,0.01211451861956759
85,480.28000000000003,0.012078811623278054
86,490.34000000000003,0.011860963816514377
87,499.46,0.011663666325398602
88,506.4,0.011514389868253481
89,512.27,0.011394633158782032
90,520.59,0.011214855779132551
91,530.27,0.011005678458290367
92,540.13,0.010791518784643267
93,549.5408739999999,0.010591989278073458
94,550.1700000000001,0.010581879554001626
95,560.4,0.010415860027372319
96,569.51,0.010267647310813862
97,580.09,0.010091688263537414
98,589.52,0.009940329485530142
99,600.48,0.009759873968408226
100,610.24,0.009602951029219363
101,620.15,0.00944323426403887
102,630.2299999999999,0.009279118573401197
103,630.957344,0.009267121481156328
104,640.47,0.009142766826652113
105,649.38,0.00903065188367796
106,658.41,0.008914691664367449
107,664.5,0.008837439725297571
108,675.3000000000001,0.008696491905025866
109,684.7,0.008572654855344936
110,694.22,0.008459941719327659
111,705.5,0.008309092753710542
112,715.3199999999999,0.008191106386852385
113,724.43596,0.008073951546230555
114,725.27,0.008066045924625415
115,735.36,0.007970303858626774
116,745.59,0.007878783241048367
117,754.22,0.0077992116843815405
118,764.7099999999999,0.007701042548155004
119,775.35,0.007605070388093005
120,784.33,0.0075236369524767695
121,795.24,0.007421952461510942
122,804.45,0.0073367391340136675
123,815.64,0.007231462459888315
124,825.0799999999999,0.007149120630510002
125,831.763771,0.007070808650018114
126,834.64,0.0070441650062686946
127,844.3000000000001,0.0069989855469482385
128,854.0799999999999,0.006931718721549269
129,865.96,0.006854556539776286
130,875.99,0.006790471443380409
131,884.09,0.006742758083080647
132,894.33,0.0066761386910473685
133,904.6899999999999,0.006601661072935578
134,915.16,0.006601810747585146
135,925.7600000000001,0.007843480777316322
136,934.32,0.009641775050382254
137,945.14,0.012720078465636154
138,954.992586,0.015032350265022663
139,956.09,0.015290070979210476
140,964.93,0.01659422959034926
141,976.11,0.00776236045149537
142,985.1400000000001,0.015276766108574919
143,994.26,0.015431264313731676
144,1005.77,0.019108200517827537
145,1015.07,0.0181482038191387
146,1024.47,0.010718621618313424
147,1033.95,0.014281054015778998
148,1045.92,0.021757003910047236
149,1055.6,0.021316377303239934
150,1065.3600000000001,0.01808190229472348
151,1075.22,0.020180676784070584
152,1085.17,0.017087201821494893
153,1095.21,0.02042253740699641
154,1096.4782,0.020327122877087492
155,1105.35,0.019671067367493706
156,1115.57,0.01904903510375989
157,1125.8899999999999,0.017572771115332002
158,1133.7,0.020446248416725238
159,1144.19,0.018882325496317437
160,1154.78,0.019553270851215564
161,1165.46,0.01987147265388903
162,1176.24,0.01539242273186843
163,1184.4,0.019010053996832425
164,1195.3600000000001,0.0145377669703625
165,1203.64,0.011788447165693614
166,1214.78,0.008876202034774367
167,1226.02,0.013667312179161048
168,1234.52,0.01826010358016521
169,1245.94,0.01954400062010257
170,1254.58,0.01883683960653504
171,1258.92541,0.01804715837642639
172,1266.19,0.016739114894315472
173,1274.96,0.020051435541990653
174,1283.8,0.020615055898370194
175,1295.6799999999998,0.017366449318482066
176,1304.66,0.017054349092270334
177,1313.6999999999998,0.019854210044948056
178,1325.8600000000001,0.01908512229987738
179,1335.0500000000002,0.017389671199778738
180,1344.31,0.019544079808384456
181,1353.6200000000001,0.018935011066064718
182,1366.1499999999999,0.017354738924145678
183,1375.62,0.017861466658864483
184,1385.15,0.017887725572472743
185,1394.7499999999998,0.01603284419478537
186,1404.42,0.016342012525802356
187,1414.1599999999999,0.01660026056552371
188,1423.96,0.01674216978413451
189,1433.8300000000002,0.01654909871144968
190,1440.45,0.017141415448919426
191,1445.43977,0.017216331275621385
192,1447.1000000000001,0.01724333696591351
193,1453.78,0.016814040584453613
194,1463.85,0.015798101278869603
195,1474.0,0.015653990399854937
196,1484.22,0.015738956894088448
197,1494.51,0.01582478076157013
198,1504.8700000000001,0.015116282002299988
199,1511.8100000000002,0.013896223007190454
200,1515.3,0.014522560616278022
201,1525.8,0.01413130660350423
202,1536.3799999999999,0.012723339017299782
203,1543.47,0.013440067822007764
204,1554.17,0.012828586875657327
205,1564.94,0.012956562302555066
206,1575.79,0.013466542156022148
207,1586.71,0.013803822382737405
208,1594.03,0.013959353413832247
209,1605.0800000000002,0.013626327333722682
210,1616.2099999999998,0.013544639680182465
211,1623.67,0.012995115457773656
212,1634.92,0.01346595044408745
213,1646.26,0.013506954910291755
214,1653.8600000000001,0.012722155434379295
215,1659.58691,0.013086802239314401
216,1665.3200000000002,0.013456814778493276
217,1673.01,0.012384109224368813
218,1676.8600000000001,0.01335945881040533
219,1684.6,0.013668006887268354
220,1696.28,0.01302955708594537
221,1704.1100000000001,0.01256945469858587
222,1715.9199999999998,0.012033251337830354
223,1723.8400000000001,0.011909458486248333
224,1735.7900000000002,0.012369075292257779
225,1743.8000000000002,0.012085795976453234
226,1755.8899999999999,0.012556514949227646
227,1764.0,0.011763751895398075
228,1776.22,0.011889313308739954
229,1784.4199999999998,0.01198155579068786
230,1796.79,0.012404504096992203
231,1805.09,0.012296271840915082
232,1813.42,0.011557769763430455
233,1825.99,0.011659364593684744
234,1834.4199999999998,0.011307053778175091
235,1842.88,0.01061719514125793
236,1855.66,0.010553276221659667
237,1864.22,0.01068889384671748
238,1877.1499999999999,0.011241056820081677
239,1885.81,0.010511095707114466
240,1894.51,0.010122693498937244
241,1903.26,0.01053285192174751
242,1905.46072,0.01047523991764996
243,1916.45,0.010193507468979198
244,1925.3,0.009998816037502328
245,1934.18,0.0102411900350713
246,1943.1100000000001,0.010434320747716675
247,1956.58,0.009863035389299338
248,1965.6100000000001,0.010420075532097516
249,1974.68,0.010618948246956816
250,1983.8,0.010130304676892517
251,1992.96,0.00988017967888934
252,2006.77,0.010041033182991536
253,2016.03,0.009774741615141164
254,2025.34,0.01006863676236719
255,2034.69,0.00960630948165434
256,2044.0800000000002,0.009768632773002611
257,2053.51,0.009338261636412003
258,2062.9900000000002,0.009408958214897798
259,2072.52,0.009834155508459994
260,2077.29,0.009404893726748733
261,2086.88,0.009616280878402612
262,2096.51,0.009207120602117612
263,2106.19,0.009276793040909014
264,2115.91,0.009279324051761538
265,2125.6800000000003,0.009332948777690463
266,2135.49,0.008886631075680511
267,2145.35,0.00892041308874696
268,2155.25,0.00910319067387453
269,2165.2,0.0088909299740785
270,2175.19,0.008795479846343594
271,2185.23,0.00862202243368509
272,2187.7616199999998,0.008678273650720485
273,2195.32,0.008849848925197374
274,2205.45,0.008647611784023056
275,2215.63,0.00838933238548855
276,2225.86,0.008169452729593853
277,2236.13,0.008429834867811006
278,2246.4500000000003,0.00817827974866797
279,2256.82,0.007964044372164743
280,2267.2400000000002,0.008040203738301329
281,2272.4700000000003,0.008137422818425544
282,2282.96,0.008186206824257867
283,2293.49,0.007856141624202036
284,2304.08,0.007818574115313977
285,2314.7200000000003,0.007587431349065731
286,2325.4,0.006584405376929333
287,2336.1299999999997,0.007276818147432746
288,2346.92,0.007139187609103931
289,2352.33,0.007353623762731467
290,2363.19,0.007036918864098388
291,2374.09,0.007089664759577157
292,2385.0499999999997,0.0068097853462237
293,2396.06,0.007019818675510054
294,2407.12,0.006813972747436218
295,2412.67,0.0068572181804552245
296,2423.81,0.0069949718406050855
297,2434.99,0.0067769332948667965
298,2446.23,0.00695007044029628
299,2457.52,0.006841448328365574
300,2463.19,0.006799726143720127
301,2474.56,0.006634246620013119
302,2485.98,0.006743053838945921
303,2497.46,0.006360806749046497
304,2503.21,0.006776001152624746
305,2511.88643,0.006494877689082849
306,2514.77,0.006402186500186122
307,2520.56,0.006547965253705565
308,2526.3799999999997,0.006360763539626662
309,2532.2,0.00634573682554776
310,2543.89,0.0062380749513927134
311,2555.6299999999997,0.006398340631240426
312,2567.43,0.006322780375891447
313,2573.34,0.006478952259017511
314,2585.22,0.006425028090072947
315,2597.1499999999996,0.006360036475131142
316,2603.14,0.006221564444661619
317,2615.1600000000003,0.006169523426924778
318,2627.23,0.006227920963190698
319,2633.28,0.0062351749975244845
320,2645.44,0.006432189130995369
321,2657.6499999999996,0.006401157818469012
322,2663.78,0.006137816939207213
323,2676.0699999999997,0.006229678713085269
324,2682.2400000000002,0.006180969877025676
325,2694.62,0.006030652248108699
326,2707.06,0.00605495668399503
327,2713.3,0.005911774423539301
328,2725.8199999999997,0.005893018945830046
329,2732.1099999999997,0.006005977239377075
330,2744.72,0.0056448733588727856
331,2757.3900000000003,0.005636456543171807
332,2763.7400000000002,0.0056924799015221446
333,2776.5,0.0057970036830261315
334,2782.8999999999996,0.00570016959537923
335,2795.75,0.005148092974088182
336,2802.19,0.005326455929643485
337,2815.13,0.005689044905557404
338,2828.12,0.005690722435474079
339,2834.64,0.005535576477433798
340,2847.7200000000003,0.005458170604555439
341,2854.29,0.005415089200517916
342,2867.46,0.005523671924844522
343,2874.07,0.005460310564009205
344,2884.0315,0.005453651171641191
345,2887.3399999999997,0.005452167274786207
346,2894.0,0.005390956684953159
347,2907.3500000000004,0.0055023686377652925
348,2927.5099999999998,0.005385719663135525
349,2947.7999999999997,0.0052997699292447525
350,2968.23,0.005271812146919052
351,2988.81,0.005215511026984497
352,3009.52,0.0051875841477889385
353,3030.3799999999997,0.005141130930984527
354,3051.39,0.005076464376571263
355,3072.5400000000004,0.00502171877372307
356,3086.72,0.004979323725099553
357,3108.12,0.004916461892903273
358,3129.6600000000003,0.004845414012272063
359,3151.36,0.004809694504858078
360,3173.2,0.004748248949009164
361,3187.85,0.004624415309211243
362,3209.95,0.004630794234840318
363,3232.2000000000003,0.00453856882286054
364,3247.12,0.004548032375366685
365,3269.62,0.00452962673403882
366,3292.29,0.004478764176754256
367,3307.48,0.004439805921564466
368,3311.31121,0.004444038425450917
369,3322.75,0.004458440084659856
370,3330.41,0.004456120332204194
371,3338.09,0.004351089086922277
372,3345.7799999999997,0.004348758095227233
373,3353.5,0.004323069864292806
374,3361.23,0.0042975588869452516
375,3368.9799999999996,0.004249277416771442
376,3376.74,0.004157235200184506
377,3384.5199999999995,0.004229363490771314
378,3392.33,0.004303269542118739
379,3400.15,0.004378999847053038
380,3407.9900000000002,0.00419198065916108
381,3415.84,0.004227215724855996
382,3423.7200000000003,0.0042936825513115295
383,3431.61,0.004298867631353936
384,3439.52,0.0042657132185700865
385,3447.4500000000003,0.004135255312959982
386,3455.4,0.004095937914523623
387,3463.3599999999997,0.004021357769674136
388,3471.3500000000004,0.0040910373855852665
389,3479.35,0.00401626125508327
390,3487.3700000000003,0.004049785631755017
391,3495.41,0.004069017515600511
392,3503.46,0.004030204653032877
393,3511.5400000000004,0.00398486955122586
394,3519.64,0.003989415956592589
395,3527.75,0.003972638615546189
396,3535.88,0.004027274781673535
397,3544.03,0.004061111454974627
398,3552.2,0.004051182635449462
399,3560.39,0.004034194323098043
400,3568.6,0.003952811517920369
401,3576.83,0.0038188222199164396
402,3585.07,0.003782467175499383
403,3593.33,0.003786623638256071
404,3601.62,0.0038795168617733774
405,3609.9199999999996,0.003835545338877556
406,3618.24,0.003853404323155479
407,3626.59,0.003934520068194019
408,3634.94,0.0038759008132325606
409,3643.3199999999997,0.003908202319031719
410,3651.72,0.003835969332004623
411,3660.14,0.003909842852151271
412,3668.5800000000004,0.0038652758794716644
413,3677.03,0.0038556181603789305
414,3685.51,0.003777569202046814
415,3694.0099999999998,0.0037884897508884425
416,3702.5200000000004,0.003854553553316943
417,3711.06,0.003722434116506062
418,3719.6099999999997,0.004043068933282053
419,3728.19,0.0036773235108186614
420,3736.78,0.0034415793419421423
421,3745.3999999999996,0.004537497933826241
422,3754.0299999999997,0.003172394779297212
423,3762.68,0.004575343131941929
424,3771.36,0.003624445245347261
425,3780.0499999999997,0.004302495612339467
426,3786.88,0.0054640078121733875
427,3789.6200000000003,0.004889984294976454
428,3792.36,0.00347192377777952
429,3795.1000000000004,0.004156542260582586
430,3797.84,0.005166265743385652
431,3800.58,0.005678389226188719
432,3801.8939600000003,0.005260741996693704
433,3803.32,0.004807624658421058
434,3806.06,0.004423932861790313
435,3808.8,0.0041631950651595685
436,3811.54,0.004572010268528824
437,3814.2799999999997,0.0036263484718980794
438,3817.02,0.004836170675267335
439,3819.7599999999998,0.00394475287863659
440,3822.51,0.0035438664221641276
441,3825.25,0.004419539625533383
442,3827.99,0.0038503348289026383
443,3830.73,0.0046732110322718935
444,3833.47,0.004393308235641149
445,3836.21,0.005269886439010405
446,3838.95,0.00364075364237966
447,3841.6899999999996,0.004649506845748916
448,3844.43,0.004179749049118171
449,3847.1699999999996,0.005477262252487426
450,3849.9100000000003,0.004625264455856682
451,3852.65,0.005040950659225937
452,3855.3900000000003,0.0046735328625951925
453,3858.13,0.004923232065964448
454,3860.8700000000003,0.005347054269333703
455,3863.61,0.007865425472702959
456,3866.35,0.013314971676072214
457,3869.09,0.01300596287944147
458,3871.83,0.011615314082810725
459,3874.57,0.007039272286179981
460,3877.32,0.004585416829707518
461,3880.0600000000004,0.004748325033076773
462,3882.8,0.004666593236446029
463,3885.54,0.005934452439815284
464,3888.28,0.0070733916431845395
465,3891.02,0.006354653846553794
466,3893.76,0.00573301304992305
467,3896.5,0.005495781253292306
468,3899.24,0.004599665456661561
469,3901.98,0.0042204946600308164
470,3904.72,0.004912101863400071
471,3907.46,0.004428602066769327
472,3910.2,0.004345061270138582
473,3912.9399999999996,0.005296679473507838
474,3915.6800000000003,0.004689140676877093
475,3918.42,0.004812089880246349
476,3921.1600000000003,0.0045860680836156045
477,3923.9,0.00387799628698486
478,3926.6400000000003,0.004870478490354116
479,3929.38,0.0046086566937233705
480,3932.1299999999997,0.004168349237250908
481,3934.87,0.004775514440620163
482,3937.61,0.004539548643989419
483,3940.3500000000004,0.004898458847358674
484,3943.09,0.00515629505072793
485,3945.8300000000004,0.0046671892540971855
486,3948.57,0.004216417457466441
487,3951.31,0.004187301660835696
488,3954.05,0.004217673864204951
489,3956.79,0.004615278067574207
490,3959.53,0.005326414270943463
491,3962.27,0.005259869474312717
492,3965.0099999999998,0.006396099677681974
493,3967.75,0.008434770881051228
494,3970.49,0.0076305070844204835
495,3973.23,0.005867025287789739
496,3975.97,0.004833308491158995
497,3978.7099999999996,0.005178477694528251
498,3981.4500000000003,0.005009230897897505
499,3984.19,0.004870542101266761
500,3986.94,0.004383222644794299
501,3989.68,0.003824866848163554
502,3992.42,0.004300943051532809
503,3995.16,0.004781902254902064
504,3997.8999999999996,0.00432787545827132
505,4000.64,0.004209618661640576
506,4003.38,0.004781526865009831
507,4006.1200000000003,0.004640126068379086
508,4008.86,0.004732698271748341
509,4011.6000000000004,0.003706214475117597
510,4014.34,0.004453331678486852
511,4017.08,0.003805832881856108
512,4019.82,0.004431986085225363
513,4022.56,0.0051259452885946185
514,4025.3,0.005579964491963874
515,4028.04,0.00576204069533313
516,4030.7799999999997,0.004427447898702385
517,4033.52,0.004980734102071641
518,4036.2599999999998,0.004782376305440896
519,4039.0,0.004272476508810151
520,4041.75,0.004715806052337688
521,4044.4900000000002,0.0041560032557069445
522,4047.23,0.004313125459076199
523,4049.97,0.003903035662445455
524,4052.71,0.00426736986581471
525,4055.45,0.004656838069183966
526,4058.19,0.004498983272553221
527,4060.93,0.0040458594759224765
528,4063.6699999999996,0.005092765679291732
529,4066.41,0.004740897882660987
530,4069.15,0.004525183086030243
531,4071.8900000000003,0.004328453289399499
532,4074.63,0.003512254492768754
533,4077.3700000000003,0.005094912696138008
534,4080.11,0.004460794899507264
535,4082.85,0.00372740910287652
536,4085.59,0.004481216306245775
537,4088.33,0.005378592509615031
538,4091.07,0.004161889712984286
539,4093.81,0.004424969916353542
540,4096.56,0.006858871459881078
541,4099.3,0.008498301663250335
542,4102.04,0.008058739866619589
543,4104.78,0.007226273069988845
544,4107.52,0.004548783273358101
545,4110.26,0.003875429476727356
546,4113.0,0.0039929536800966114
547,4115.74,0.004269954883465867
548,4118.48,0.004007410086835123
549,4121.22,0.0041325272902043774
550,4123.96,0.004801533493573633
551,4126.7,0.003694948696942889
552,4129.44,0.004494501900312144
553,4132.179999999999,0.0038931111036813993
554,4134.92,0.0047693303070506544
555,4137.66,0.0038439195104199102
556,4140.400000000001,0.004538783713789165
557,4143.14,0.00418781791715842
558,4145.88,0.0042979301205276765
559,4148.63,0.005576616664055214
560,4151.37,0.0040252338674244695
561,4154.11,0.003870634070793725
