# Arp 256 N      
# 
# An Atlas of Galaxy Spectral Energy Distributions from the Ultraviolet to the Mid-Infrared
# Brown et al. (2014)
# http://dx.doi.org/10.5072/03/529D3551F0117
# http://dx.doi.org/10.17909/t9-5bxk-dh29
# 
# The Spectral Energy Distributions of Active Galactic Nuclei
# Brown et al. (2019)
# http://dx.doi.org/10.17909/t9-3dbt-8734
# 
# Column 1: Observed wavelength (um)
# Column 2: L_nu (W/Hz)
# Column 3: f_lam (erg/s/cm2/A)
# Column 4: Source (0 = model, 1 = Optical Spectrun, 2 = Akari, 3 = Spitzer IRS)
# 
  1.0007e-02 7.754151e+10 1.931181e-08 0 
  1.0193e-02 1.045955e+11 2.510761e-08 0 
  1.0407e-02 1.292923e+11 2.977268e-08 0 
  1.0600e-02 1.642564e+11 3.645920e-08 0 
  1.0797e-02 2.121112e+11 4.537889e-08 0 
  1.0998e-02 3.361627e+11 6.931360e-08 0 
  1.1411e-02 5.123255e+11 9.812846e-08 0 
  1.1812e-02 7.320660e+11 1.308578e-07 0 
  1.2087e-02 2.402023e+12 4.100497e-07 0 
  1.2512e-02 3.392761e+12 5.405007e-07 0 
  1.2686e-02 3.940580e+12 6.106708e-07 0 
  1.2803e-02 4.300544e+12 6.543292e-07 0 
  1.3101e-02 5.303594e+12 7.706512e-07 0 
  1.3192e-02 6.202219e+12 8.888373e-07 0 
  1.3406e-02 7.104595e+12 9.859102e-07 0 
  1.3687e-02 9.451725e+12 1.258320e-06 0 
  1.4006e-02 1.149610e+13 1.461567e-06 0 
  1.4299e-02 2.363309e+13 2.882741e-06 0 
  1.4700e-02 4.803515e+13 5.543971e-06 0 
  1.5112e-02 5.991658e+13 6.543342e-06 0 
  1.5499e-02 7.473720e+13 7.759359e-06 0 
  1.5897e-02 9.301772e+13 9.179769e-06 0 
  1.6192e-02 1.087766e+14 1.034739e-05 0 
  1.6608e-02 1.344474e+14 1.215666e-05 0 
  1.6995e-02 1.623726e+14 1.402061e-05 0 
  1.7311e-02 1.877404e+14 1.562464e-05 0 
  1.7714e-02 2.251874e+14 1.789811e-05 0 
  1.8002e-02 2.561849e+14 1.971553e-05 0 
  1.8210e-02 2.802605e+14 2.107843e-05 0 
  1.8591e-02 3.308045e+14 2.387054e-05 0 
  1.9112e-02 4.060389e+14 2.772374e-05 0 
  1.9378e-02 4.566234e+14 3.032751e-05 0 
  1.9784e-02 5.315641e+14 3.387068e-05 0 
  2.0198e-02 6.187765e+14 3.782802e-05 0 
  2.0479e-02 6.879527e+14 4.091076e-05 0 
  2.1004e-02 7.934553e+14 4.485542e-05 0 
  2.1593e-02 1.003563e+15 5.368030e-05 0 
  2.1994e-02 1.144278e+15 5.899557e-05 0 
  2.2300e-02 1.248987e+15 6.263897e-05 0 
  2.2715e-02 1.424173e+15 6.883886e-05 0 
  2.2978e-02 2.262308e+15 1.068621e-04 0 
  2.3405e-02 4.050816e+15 1.844258e-04 0 
  2.4006e-02 5.553109e+15 2.403217e-04 0 
  2.4621e-02 5.950435e+15 2.448126e-04 0 
  2.5195e-02 6.895074e+15 2.708986e-04 0 
  2.5722e-02 6.346722e+15 2.392415e-04 0 
  2.6020e-02 7.683292e+15 2.830279e-04 0 
  2.6382e-02 8.502347e+15 3.046631e-04 0 
  2.6873e-02 9.173624e+15 3.168145e-04 0 
  2.7372e-02 9.852405e+15 3.279636e-04 0 
  2.7881e-02 1.058158e+16 3.394926e-04 0 
  2.8400e-02 1.136398e+16 3.513907e-04 0 
  2.8994e-02 1.179059e+16 3.497968e-04 0 
  2.9601e-02 1.298831e+16 3.696887e-04 0 
  3.0082e-02 1.350678e+16 3.722501e-04 0 
  3.0783e-02 1.491251e+16 3.924870e-04 0 
  3.1792e-02 1.708231e+16 4.215095e-04 0 
  3.2833e-02 1.903464e+16 4.403724e-04 0 
  3.3831e-02 2.091966e+16 4.558495e-04 0 
  3.4779e-02 2.277875e+16 4.696692e-04 0 
  3.5671e-02 2.463483e+16 4.828536e-04 0 
  3.6586e-02 2.670223e+16 4.975241e-04 0 
  3.7524e-02 2.867806e+16 5.079582e-04 0 
  3.8487e-02 2.989171e+16 5.032909e-04 0 
  3.9474e-02 3.292624e+16 5.270069e-04 0 
  4.0487e-02 3.536263e+16 5.380341e-04 0 
  4.1430e-02 3.745849e+16 5.442731e-04 0 
  4.2200e-02 3.904297e+16 5.467822e-04 0 
  4.2984e-02 4.069520e+16 5.493207e-04 0 
  4.4087e-02 4.350554e+16 5.582386e-04 0 
  4.5114e-02 4.576641e+16 5.608163e-04 0 
  4.5953e-02 4.759244e+16 5.620910e-04 0 
  4.7023e-02 5.018222e+16 5.660120e-04 0 
  4.8008e-02 5.278762e+16 5.712172e-04 0 
  4.9013e-02 5.502216e+16 5.712307e-04 0 
    0.050039 5.828283e+16 5.805235e-04 0 
    0.050619 6.738323e+16 6.558751e-04 0 
    0.051205 1.220521e+17 1.160959e-03 0 
    0.052037 1.301773e+17 1.198967e-03 0 
    0.053004 1.407789e+17 1.249732e-03 0 
    0.053990 1.427415e+17 1.221293e-03 0 
    0.054993 1.903446e+17 1.569720e-03 0 
    0.056016 2.283273e+17 1.814806e-03 0 
    0.057057 2.645772e+17 2.026894e-03 0 
    0.057984 2.651748e+17 1.967036e-03 0 
    0.059062 3.307868e+17 2.364985e-03 0 
    0.060022 3.560730e+17 2.464987e-03 0 
    0.060997 4.261331e+17 2.856438e-03 0 
    0.061988 5.041309e+17 3.272084e-03 0 
    0.062996 5.643361e+17 3.546568e-03 0 
    0.064019 5.977867e+17 3.637684e-03 0 
    0.065060 7.007072e+17 4.128620e-03 0 
    0.065813 7.665474e+17 4.413794e-03 0 
    0.066575 8.366437e+17 4.707763e-03 0 
    0.067501 8.842037e+17 4.839811e-03 0 
    0.068440 9.152511e+17 4.873227e-03 0 
    0.069552 1.190002e+18 6.135147e-03 0 
    0.070520 1.189995e+18 5.967837e-03 0 
    0.071666 1.470769e+18 7.141913e-03 0 
    0.072663 1.586893e+18 7.495790e-03 0 
    0.073504 1.696450e+18 7.830970e-03 0 
    0.074527 1.970359e+18 8.847379e-03 0 
    0.075563 2.165424e+18 9.458471e-03 0 
    0.076438 2.368910e+18 1.011175e-02 0 
    0.077502 2.657928e+18 1.103605e-02 0 
    0.078580 2.961746e+18 1.196245e-02 0 
    0.079490 3.180843e+18 1.255491e-02 0 
    0.080410 3.416211e+18 1.317714e-02 0 
    0.081529 3.660546e+18 1.373466e-02 0 
    0.082473 4.116615e+18 1.509431e-02 0 
    0.083428 3.652115e+18 1.308631e-02 0 
    0.084588 4.629528e+18 1.613674e-02 0 
    0.085568 4.937699e+18 1.681893e-02 0 
    0.086559 5.439170e+18 1.810525e-02 0 
    0.087561 5.991447e+18 1.948977e-02 0 
    0.088575 6.660922e+18 2.117427e-02 0 
    0.089601 7.203583e+18 2.237790e-02 0 
    0.090430 7.456903e+18 2.274207e-02 0 
    0.091477 1.187247e+19 3.538455e-02 0 
    0.092536 8.502153e+19 2.476304e-01 0 
    0.093608 1.983990e+20 5.646899e-01 0 
    0.094474 4.060174e+20 1.134531e+00 0 
    0.095568 5.868948e+20 1.602624e+00 0 
    0.096452 7.104803e+20 1.904697e+00 0 
    0.097569 1.322985e+20 3.465993e-01 0 
    0.098472 7.007214e+20 1.802255e+00 0 
    0.099612 7.236755e+20 1.818934e+00 0 
    0.100534 9.966618e+20 2.459339e+00 0 
    0.101464 9.517986e+20 2.305778e+00 0 
    0.102403 3.922290e+20 9.328477e-01 0 
    0.103588 7.286856e+20 1.693627e+00 0 
    0.104547 1.341333e+21 3.060625e+00 0 
    0.105514 1.338273e+21 2.997927e+00 0 
    0.106491 1.123424e+21 2.470668e+00 0 
    0.107476 1.335172e+21 2.882774e+00 0 
    0.108470 1.115679e+21 2.364921e+00 0 
    0.109474 1.440609e+21 2.997924e+00 0 
    0.110487 1.382077e+21 2.823620e+00 0 
    0.111509 1.366248e+21 2.740351e+00 0 
    0.112541 1.251827e+21 2.465013e+00 0 
    0.113582 1.561522e+21 3.018739e+00 0 
    0.114370 1.447233e+21 2.759375e+00 0 
    0.115428 1.547202e+21 2.896151e+00 0 
    0.116496 1.623828e+21 2.984107e+00 0 
    0.117574 1.189993e+21 2.146932e+00 0 
    0.118389 1.646433e+21 2.929665e+00 0 
    0.119484 1.269239e+21 2.217279e+00 0 
    0.120590 9.518247e+20 1.632416e+00 0 
    0.121426 5.604574e+20 9.480160e-01 0 
    0.122549 1.237480e+21 2.055015e+00 0 
    0.123399 1.780461e+21 2.916122e+00 0 
    0.124541 1.938835e+21 3.117545e+00 0 
    0.125404 1.890352e+21 2.997894e+00 0 
    0.126564 1.732008e+21 2.696658e+00 0 
    0.127442 2.082283e+21 3.197503e+00 0 
    0.128621 2.165463e+21 3.264551e+00 0 
    0.129512 1.801103e+21 2.678028e+00 0 
    0.130410 1.851565e+21 2.715274e+00 0 
    0.131617 2.226124e+21 3.204954e+00 0 
    0.132529 2.145523e+21 3.046546e+00 0 
    0.133448 1.979470e+21 2.772179e+00 0 
    0.134373 2.267420e+21 3.131875e+00 0 
    0.135616 2.257035e+21 3.060644e+00 0 
    0.136556 2.096670e+21 2.804174e+00 0 
    0.137503 2.175400e+21 2.869533e+00 0 
    0.138456 2.226112e+21 2.896141e+00 0 
    0.139416 1.938818e+21 2.487758e+00 0 
    0.140382 2.058508e+21 2.605111e+00 0 
    0.141355 2.170413e+21 2.709046e+00 0 
    0.142663 2.226077e+21 2.727809e+00 0 
    0.143652 2.272677e+21 2.746698e+00 0 
    0.144315 2.374295e+21 2.843206e+00 0 
    0.144648 2.385262e+21 2.843202e+00 0 
    0.145650 2.363443e+21 2.778565e+00 0 
    0.146660 2.246733e+21 2.605101e+00 0 
    0.147337 2.267509e+21 2.605085e+00 0 
    0.148358 2.299049e+21 2.605090e+00 0 
    0.149386 2.341782e+21 2.617117e+00 0 
    0.150422 2.241498e+21 2.470655e+00 0 
    0.151116 2.044240e+21 2.232582e+00 0 
    0.151814 2.170419e+21 2.348640e+00 0 
    0.152514 2.185491e+21 2.343290e+00 0 
    0.153572 1.961266e+21 2.074001e+00 0 
    0.154636 2.082286e+21 2.171779e+00 0 
    0.155350 2.011625e+21 2.078840e+00 0 
    0.156427 2.111297e+21 2.151901e+00 0 
    0.157511 2.257114e+21 2.268967e+00 0 
    0.158603 2.341785e+21 2.321778e+00 0 
    0.159335 2.396293e+21 2.354041e+00 0 
    0.160439 2.390764e+21 2.316398e+00 0 
    0.161552 2.424039e+21 2.316388e+00 0 
    0.162671 2.368808e+21 2.232575e+00 0 
    0.163422 2.509271e+21 2.343273e+00 0 
    0.164555 2.550025e+21 2.348652e+00 0 
    0.165315 2.446405e+21 2.232545e+00 0 
    0.166461 2.639617e+21 2.375814e+00 0 
    0.167229 2.497684e+21 2.227464e+00 0 
    0.167614 2.682540e+21 2.381343e+00 0 
    0.168388 2.751414e+21 2.420082e+00 0 
    0.169555 2.657936e+21 2.305790e+00 0 
    0.170338 2.585488e+21 2.222368e+00 0 
    0.171519 2.497695e+21 2.117442e+00 0 
    0.172310 2.503400e+21 2.102837e+00 0 
    0.173505 2.664038e+21 2.207054e+00 0 
    0.174306 2.615467e+21 2.146945e+00 0 
    0.175514 2.770372e+21 2.242906e+00 0 
    0.176324 2.627565e+21 2.107788e+00 0 
    0.177546 2.676329e+21 2.117455e+00 0 
    0.178366 2.738705e+21 2.146928e+00 0 
    0.179602 2.887569e+21 2.232577e+00 0 
    0.180431 2.914267e+21 2.232562e+00 0 
    0.181682 2.726174e+21 2.059805e+00 0 
    0.182520 2.828365e+21 2.117439e+00 0 
    0.183363 2.757715e+21 2.045608e+00 0 
    0.184634 2.591427e+21 1.895885e+00 0 
    0.185486 2.591427e+21 1.878509e+00 0 
    0.186342 2.682604e+21 1.926777e+00 0 
    0.187634 2.900929e+21 2.054994e+00 0 
    0.188500 2.682609e+21 1.882916e+00 0 
    0.189370 2.567672e+21 1.785722e+00 0 
    0.190683 2.789508e+21 1.913375e+00 0 
    0.191563 2.682468e+21 1.823088e+00 0 
    0.192447 2.639715e+21 1.777588e+00 0 
    0.193335 2.776769e+21 1.852743e+00 0 
    0.194675 2.900857e+21 1.908985e+00 0 
    0.195574 2.719843e+21 1.773447e+00 0 
    0.196477 2.961634e+21 1.913394e+00 0 
    0.197384 3.079908e+21 1.971561e+00 0 
    0.198295 2.934511e+21 1.861267e+00 0 
    0.199669 2.901060e+21 1.814813e+00 0 
    0.200591 3.009766e+21 1.865547e+00 0 
    0.201517 2.968467e+21 1.823078e+00 0 
    0.202447 3.122827e+21 1.900298e+00 0 
    0.203381 2.954842e+21 1.781599e+00 0 
    0.204320 3.051637e+21 1.823088e+00 0 
    0.205736 2.975458e+21 1.753192e+00 0 
    0.206686 3.044774e+21 1.777581e+00 0 
    0.207163 3.217799e+21 1.869955e+00 0 
    0.207640 3.037671e+21 1.757175e+00 0 
    0.208599 3.180772e+21 1.823075e+00 0 
    0.209561 3.044629e+21 1.729059e+00 0 
    0.210529 3.137250e+21 1.765313e+00 0 
    0.211500 3.180860e+21 1.773456e+00 0 
    0.212477 3.247483e+21 1.793988e+00 0 
    0.213457 3.144551e+21 1.721212e+00 0 
    0.214443 3.144407e+21 1.705342e+00 0 
    0.215432 3.277389e+21 1.761181e+00 0 
    0.216427 3.239885e+21 1.725056e+00 0 
    0.217426 3.240064e+21 1.709335e+00 0 
    0.218429 3.210172e+21 1.678047e+00 0 
    0.219438 3.338377e+21 1.729052e+00 0 
    0.220451 3.292683e+21 1.689749e+00 0 
    0.221468 3.225016e+21 1.639858e+00 0 
    0.222490 3.159073e+21 1.591605e+00 0 
    0.223517 3.307892e+21 1.651303e+00 0 
    0.224549 3.263523e+21 1.614213e+00 0 
    0.225586 3.190454e+21 1.563596e+00 0 
    0.226627 3.273930e+21 1.589800e+00 0 
    0.227673 3.336328e+21 1.605248e+00 0 
    0.228724 3.407960e+21 1.624679e+00 0 
    0.229251 3.270297e+21 1.551891e+00 0 
    0.230309 3.317269e+21 1.559751e+00 0 
    0.231372 3.235801e+21 1.507498e+00 0 
    0.232440 2.723968e+21 1.257410e+00 0 
    0.233513 3.136189e+21 1.434421e+00 0 
    0.234591 3.108944e+21 1.408921e+00 0 
    0.235674 3.257142e+21 1.462547e+00 0 
    0.236762 3.140691e+21 1.397325e+00 0 
    0.237307 3.192554e+21 1.413883e+00 0 
    0.238403 3.085726e+21 1.354037e+00 0 
    0.239503 3.225280e+21 1.402303e+00 0 
    0.240609 3.153429e+21 1.358488e+00 0 
    0.241719 3.213650e+21 1.371745e+00 0 
    0.242276 3.312088e+21 1.407271e+00 0 
    0.243395 3.230901e+21 1.360181e+00 0 
    0.244518 3.369369e+21 1.405476e+00 0 
    0.245647 3.363173e+21 1.390026e+00 0 
    0.246781 3.357197e+21 1.374833e+00 0 
    0.247350 3.289142e+21 1.340773e+00 0 
    0.248491 3.375254e+21 1.363269e+00 0 
    0.249638 3.217548e+21 1.287657e+00 0 
    0.250214 3.464482e+21 1.380103e+00 0 
    0.251369 3.264834e+21 1.288648e+00 0 
    0.251948 3.372643e+21 1.325089e+00 0 
    0.252529 3.274034e+21 1.280434e+00 0 
    0.253694 3.306025e+21 1.281098e+00 0 
    0.254279 3.269033e+21 1.260941e+00 0 
    0.255453 3.432765e+21 1.311954e+00 0 
    0.256632 3.403063e+21 1.288679e+00 0 
    0.257224 3.523569e+21 1.328178e+00 0 
    0.258411 3.533552e+21 1.319733e+00 0 
    0.259604 3.535428e+21 1.308325e+00 0 
    0.260202 3.455861e+21 1.273009e+00 0 
    0.261403 3.457673e+21 1.261999e+00 0 
    0.262610 3.540118e+21 1.280241e+00 0 
    0.263215 3.606864e+21 1.298389e+00 0 
    0.264430 3.796323e+21 1.354061e+00 0 
    0.265651 3.860090e+21 1.364178e+00 0 
    0.266263 3.670419e+21 1.291191e+00 0 
    0.267492 3.783951e+21 1.318926e+00 0 
    0.268727 3.812275e+21 1.316613e+00 0 
    0.269346 3.700841e+21 1.272260e+00 0 
    0.270590 3.771712e+21 1.284729e+00 0 
    0.271213 3.678401e+21 1.247196e+00 0 
    0.272465 3.680426e+21 1.236440e+00 0 
    0.273723 3.811858e+21 1.268851e+00 0 
    0.274354 3.542044e+21 1.173621e+00 0 
    0.275620 3.609929e+21 1.185151e+00 0 
    0.276256 3.695030e+21 1.207511e+00 0 
    0.277531 3.818214e+21 1.236328e+00 0 
    0.278812 3.742027e+21 1.200550e+00 0 
    0.279455 3.359131e+21 1.072753e+00 0 
    0.280744 3.527548e+21 1.116216e+00 0 
    0.281392 3.860048e+21 1.215810e+00 0 
    0.282690 3.943116e+21 1.230595e+00 0 
    0.283342 3.827920e+21 1.189152e+00 0 
    0.284650 3.812530e+21 1.173512e+00 0 
    0.285306 3.752638e+21 1.149771e+00 0 
    0.286623 3.968118e+21 1.204645e+00 0 
    0.287284 3.969285e+21 1.199460e+00 0 
    0.288610 3.989891e+21 1.194633e+00 0 
    0.289275 4.000272e+21 1.192241e+00 0 
    0.291280 4.192461e+21 1.232379e+00 0 
    0.293299 4.138549e+21 1.199840e+00 0 
    0.295333 4.113703e+21 1.176266e+00 0 
    0.296696 4.163776e+21 1.179670e+00 0 
    0.298752 4.196398e+21 1.172604e+00 0 
    0.300823 4.239035e+21 1.168265e+00 0 
    0.302908 4.292017e+21 1.166639e+00 0 
    0.305008 4.315727e+21 1.156986e+00 0 
    0.307122 4.359655e+21 1.152728e+00 0 
    0.309251 4.383799e+21 1.143207e+00 0 
    0.310678 4.406717e+21 1.138651e+00 0 
    0.312832 4.400657e+21 1.121480e+00 0 
    0.315000 4.435339e+21 1.114813e+00 0 
    0.317184 4.480577e+21 1.110728e+00 0 
    0.318648 4.361219e+21 1.071228e+00 0 
    0.320857 4.487680e+21 1.087164e+00 0 
    0.323081 4.420083e+21 1.056097e+00 0 
    0.325320 4.600995e+21 1.084243e+00 0 
    0.326822 4.711189e+21 1.100030e+00 0 
    0.329087 4.726671e+21 1.088505e+00 0 
    0.331369 4.753082e+21 1.079563e+00 0 
    0.332132 4.787590e+21 1.082410e+00 0 
    0.332898 4.923318e+21 1.107980e+00 0 
    0.333665 4.936337e+21 1.105809e+00 0 
    0.334435 4.770287e+21 1.063696e+00 0 
    0.335205 4.816035e+21 1.068969e+00 0 
    0.335978 4.817614e+21 1.064405e+00 0 
    0.336753 4.841464e+21 1.064756e+00 0 
    0.337529 4.530221e+21 9.917304e-01 0 
    0.338307 4.658683e+21 1.015167e+00 0 
    0.339087 4.925026e+21 1.068274e+00 0 
    0.339869 4.995204e+21 1.078516e+00 0 
    0.340652 4.793993e+21 1.030320e+00 0 
    0.341438 4.907322e+21 1.049826e+00 0 
    0.342225 5.093178e+21 1.084581e+00 0 
    0.343013 5.024992e+21 1.065150e+00 0 
    0.343804 5.061508e+21 1.067959e+00 0 
    0.344597 4.747056e+21 9.970062e-01 0 
    0.345391 5.123569e+21 1.071142e+00 0 
    0.346187 4.794228e+21 9.976853e-01 0 
    0.346985 4.885050e+21 1.011915e+00 0 
    0.347785 4.764447e+21 9.823975e-01 0 
    0.348587 4.922249e+21 1.010270e+00 0 
    0.349391 4.912590e+21 1.003653e+00 0 
    0.350196 4.971186e+21 1.010960e+00 0 
    0.351003 4.950017e+21 1.002032e+00 0 
    0.351812 4.883773e+21 9.840804e-01 0 
    0.352623 4.908029e+21 9.844243e-01 0 
    0.353436 5.070590e+21 1.012356e+00 0 
    0.354251 5.274786e+21 1.048284e+00 0 
    0.355068 5.276625e+21 1.043830e+00 0 
    0.355886 5.170194e+21 1.018079e+00 0 
    0.356707 5.304610e+21 1.039745e+00 0 
    0.357529 4.873104e+21 9.507790e-01 0 
    0.358353 4.796858e+21 9.316037e-01 0 
    0.359179 4.689351e+21 9.065408e-01 0 
    0.360007 5.179199e+21 9.966374e-01 0 
    0.360837 5.028210e+21 9.631363e-01 0 
    0.361669 5.088212e+21 9.701504e-01 0 
    0.362503 5.244724e+21 9.953959e-01 0 
    0.363338 5.319495e+21 1.004952e+00 0 
    0.364176 5.420388e+21 1.019305e+00 0 
    0.365015 5.262363e+21 9.850444e-01 0 
    0.365023 4.325212e+21 8.095868e-01 1 
    0.365291 4.410858e+21 8.244068e-01 1 
    0.365559 5.756669e+21 1.074367e+00 1 
    0.365826 5.327422e+21 9.928060e-01 1 
    0.366094 4.176586e+21 7.771997e-01 1 
    0.366362 4.975590e+21 9.245283e-01 1 
    0.366629 3.819277e+21 7.086373e-01 1 
    0.366897 3.017215e+21 5.590033e-01 1 
    0.367165 3.496568e+21 6.468683e-01 1 
    0.367432 3.928350e+21 7.256925e-01 1 
    0.367700 5.501802e+21 1.014879e+00 1 
    0.367968 5.162355e+21 9.508768e-01 1 
    0.368236 3.630632e+21 6.677689e-01 1 
    0.368503 5.504166e+21 1.010895e+00 1 
    0.368771 5.374739e+21 9.856900e-01 1 
    0.369039 5.374489e+21 9.842131e-01 1 
    0.369306 6.120426e+21 1.119194e+00 1 
    0.369574 5.334674e+21 9.740954e-01 1 
    0.369842 5.369324e+21 9.790021e-01 1 
    0.370109 4.755471e+21 8.658261e-01 1 
    0.370377 5.882585e+21 1.069490e+00 1 
    0.370645 6.205426e+21 1.126553e+00 1 
    0.370913 5.103012e+21 9.250793e-01 1 
    0.371180 4.560552e+21 8.255526e-01 1 
    0.371448 4.986106e+21 9.012845e-01 1 
    0.371716 6.392191e+21 1.153782e+00 1 
    0.371983 7.933958e+21 1.430014e+00 1 
    0.372251 1.294304e+22 2.329490e+00 1 
    0.372519 2.027560e+22 3.643958e+00 1 
    0.372786 2.273165e+22 4.079511e+00 1 
    0.373054 2.198649e+22 3.940116e+00 1 
    0.373322 1.209075e+22 2.163627e+00 1 
    0.373589 7.854483e+21 1.403544e+00 1 
    0.373857 5.825131e+21 1.039420e+00 1 
    0.374125 4.115158e+21 7.332457e-01 1 
    0.374393 5.519244e+21 9.820207e-01 1 
    0.374660 5.188731e+21 9.218981e-01 1 
    0.374928 5.871758e+21 1.041763e+00 1 
    0.375196 4.569486e+21 8.095570e-01 1 
    0.375463 4.164217e+21 7.367083e-01 1 
    0.375731 6.864752e+21 1.212739e+00 1 
    0.375999 5.568812e+21 9.823939e-01 1 
    0.376266 6.010337e+21 1.058779e+00 1 
    0.376534 5.716826e+21 1.005641e+00 1 
    0.376802 6.819246e+21 1.197861e+00 1 
    0.377070 3.473656e+21 6.093113e-01 1 
    0.377337 5.260782e+21 9.214843e-01 1 
    0.377605 6.112607e+21 1.069172e+00 1 
    0.377873 7.090287e+21 1.238422e+00 1 
    0.378140 6.843512e+21 1.193632e+00 1 
    0.378408 5.655368e+21 9.850011e-01 1 
    0.378676 8.849837e+21 1.539204e+00 1 
    0.378943 6.468629e+21 1.123469e+00 1 
    0.379211 6.770713e+21 1.174273e+00 1 
    0.379479 6.981285e+21 1.209084e+00 1 
    0.379747 6.558258e+21 1.134217e+00 1 
    0.380014 5.558184e+21 9.599094e-01 1 
    0.380282 7.939668e+21 1.369264e+00 1 
    0.380550 6.941162e+21 1.195378e+00 1 
    0.380817 8.021847e+21 1.379552e+00 1 
    0.381085 6.937104e+21 1.191327e+00 1 
    0.381353 5.910710e+21 1.013635e+00 1 
    0.381620 5.576527e+21 9.549882e-01 1 
    0.381888 8.391928e+21 1.435113e+00 1 
    0.382156 7.745386e+21 1.322690e+00 1 
    0.382423 6.697615e+21 1.142164e+00 1 
    0.382691 5.756996e+21 9.803833e-01 1 
    0.382959 6.246717e+21 1.062291e+00 1 
    0.383227 5.438621e+21 9.235768e-01 1 
    0.383494 6.898347e+21 1.169834e+00 1 
    0.383762 3.725224e+21 6.308483e-01 1 
    0.384030 8.164276e+21 1.380651e+00 1 
    0.384297 6.362468e+21 1.074455e+00 1 
    0.384565 7.154722e+21 1.206562e+00 1 
    0.384833 5.725331e+21 9.641673e-01 1 
    0.385100 6.952563e+21 1.169215e+00 1 
    0.385368 6.460861e+21 1.085014e+00 1 
    0.385636 8.077084e+21 1.354553e+00 1 
