# CGCG 453-062   
# 
# An Atlas of Galaxy Spectral Energy Distributions from the Ultraviolet to the Mid-Infrared
# Brown et al. (2014)
# http://dx.doi.org/10.5072/03/529D3551F0117
# http://dx.doi.org/10.17909/t9-5bxk-dh29
# 
# The Spectral Energy Distributions of Active Galactic Nuclei
# Brown et al. (2019)
# http://dx.doi.org/10.17909/t9-3dbt-8734
# 
# Column 1: Observed wavelength (um)
# Column 2: L_nu (W/Hz)
# Column 3: f_lam (erg/s/cm2/A)
# Column 4: Source (0 = model, 1 = Optical Spectrun, 2 = Akari, 3 = Spitzer IRS)
# 
  1.0005e-02 6.147573e+09 1.531673e-09 0 
  1.0191e-02 8.925955e+09 2.143471e-09 0 
  1.0405e-02 1.187602e+10 2.735793e-09 0 
  1.0598e-02 1.616767e+10 3.590014e-09 0 
  1.0795e-02 2.226613e+10 4.765363e-09 0 
  1.0996e-02 3.644741e+10 7.517851e-09 0 
  1.1409e-02 6.232273e+10 1.194119e-08 0 
  1.1810e-02 9.969481e+10 1.782663e-08 0 
  1.2113e-02 3.595012e+11 6.110733e-08 0 
  1.2509e-02 5.490900e+11 8.751749e-08 0 
  1.2713e-02 6.647909e+11 1.025854e-07 0 
  1.2801e-02 7.373371e+11 1.122212e-07 0 
  1.3099e-02 9.587411e+11 1.393547e-07 0 
  1.3190e-02 1.152610e+12 1.652302e-07 0 
  1.3404e-02 1.363421e+12 1.892595e-07 0 
  1.3685e-02 1.921559e+12 2.558942e-07 0 
  1.4003e-02 2.447230e+12 3.112642e-07 0 
  1.4297e-02 5.843030e+12 7.129265e-07 0 
  1.4697e-02 1.376155e+13 1.588936e-06 0 
  1.5109e-02 1.797456e+13 1.963737e-06 0 
  1.5497e-02 2.347678e+13 2.438034e-06 0 
  1.5894e-02 3.045572e+13 3.006761e-06 0 
  1.6190e-02 3.670028e+13 3.491983e-06 0 
  1.6605e-02 4.728035e+13 4.276608e-06 0 
  1.6992e-02 5.938262e+13 5.129403e-06 0 
  1.7308e-02 7.057805e+13 5.875872e-06 0 
  1.7711e-02 8.743015e+13 6.951388e-06 0 
  1.7998e-02 1.022490e+14 7.872401e-06 0 
  1.8207e-02 1.136776e+14 8.552530e-06 0 
  1.8588e-02 1.382563e+14 9.979669e-06 0 
  1.9109e-02 1.760615e+14 1.202499e-05 0 
  1.9419e-02 2.040173e+14 1.349304e-05 0 
  1.9780e-02 2.430325e+14 1.549202e-05 0 
  2.0195e-02 2.908345e+14 1.778503e-05 0 
  2.0523e-02 3.316473e+14 1.963773e-05 0 
  2.1001e-02 3.914373e+14 2.213496e-05 0 
  2.1589e-02 5.148236e+14 2.754799e-05 0 
  2.1990e-02 6.020703e+14 3.105226e-05 0 
  2.2296e-02 6.678199e+14 3.350440e-05 0 
  2.2711e-02 7.774493e+14 3.759205e-05 0 
  2.2974e-02 1.263716e+15 5.971350e-05 0 
  2.3401e-02 2.294322e+15 1.044918e-04 0 
  2.4001e-02 3.240862e+15 1.403131e-04 0 
  2.4617e-02 3.569890e+15 1.469200e-04 0 
  2.5190e-02 4.282262e+15 1.683113e-04 0 
  2.5718e-02 4.042397e+15 1.524267e-04 0 
  2.6016e-02 4.950682e+15 1.824233e-04 0 
  2.6378e-02 5.593377e+15 2.004873e-04 0 
  2.6930e-02 6.203891e+15 2.133477e-04 0 
  2.7431e-02 6.802448e+15 2.254646e-04 0 
  2.7876e-02 7.407601e+15 2.377459e-04 0 
  2.8395e-02 8.140819e+15 2.518145e-04 0 
  2.8989e-02 8.623272e+15 2.559187e-04 0 
  2.9596e-02 9.719965e+15 2.767548e-04 0 
  3.0077e-02 1.031980e+16 2.845109e-04 0 
  3.0778e-02 1.165901e+16 3.069569e-04 0 
  3.1786e-02 1.379326e+16 3.404800e-04 0 
  3.2827e-02 1.587307e+16 3.673627e-04 0 
  3.3825e-02 1.797516e+16 3.918263e-04 0 
  3.4772e-02 2.012139e+16 4.150449e-04 0 
  3.5664e-02 2.236963e+16 4.386267e-04 0 
  3.6579e-02 2.492647e+16 4.646154e-04 0 
  3.7518e-02 2.733139e+16 4.842602e-04 0 
  3.8480e-02 2.915252e+16 4.910237e-04 0 
  3.9467e-02 3.293594e+16 5.273491e-04 0 
  4.0479e-02 3.627890e+16 5.521931e-04 0 
  4.1422e-02 3.914379e+16 5.689802e-04 0 
  4.2192e-02 4.136712e+16 5.795508e-04 0 
  4.2977e-02 4.371771e+16 5.903121e-04 0 
  4.4079e-02 4.782728e+16 6.139156e-04 0 
  4.5106e-02 5.112817e+16 6.267409e-04 0 
  4.6051e-02 5.403326e+16 6.354472e-04 0 
  4.7015e-02 5.750042e+16 6.487757e-04 0 
  4.7999e-02 6.147012e+16 6.654204e-04 0 
  4.9004e-02 6.436618e+16 6.684842e-04 0 
    0.050031 6.897093e+16 6.872016e-04 0 
    0.050610 7.106652e+16 6.919724e-04 0 
    0.051196 7.864528e+16 7.483367e-04 0 
    0.052028 8.215886e+16 7.569663e-04 0 
    0.052995 8.583529e+16 7.622414e-04 0 
    0.053980 8.803717e+16 7.535234e-04 0 
    0.054984 9.411713e+16 7.764123e-04 0 
    0.056006 1.024877e+17 8.148905e-04 0 
    0.057047 1.098162e+17 8.415833e-04 0 
    0.057974 1.126318e+17 8.357782e-04 0 
    0.059052 1.215247e+17 8.691440e-04 0 
    0.060012 1.246432e+17 8.631551e-04 0 
    0.060987 1.237834e+17 8.300116e-04 0 
    0.061978 1.441008e+17 9.355943e-04 0 
    0.062985 1.505424e+17 9.464139e-04 0 
    0.064008 1.583688e+17 9.640455e-04 0 
    0.065048 1.685264e+17 9.933365e-04 0 
    0.065801 1.740480e+17 1.002537e-03 0 
    0.066563 1.835136e+17 1.032997e-03 0 
    0.067489 1.908381e+17 1.044950e-03 0 
    0.068428 1.930511e+17 1.028255e-03 0 
    0.069540 2.186068e+17 1.127433e-03 0 
    0.070507 2.181058e+17 1.094206e-03 0 
    0.071653 2.464171e+17 1.197012e-03 0 
    0.072650 2.580197e+17 1.219209e-03 0 
    0.073491 2.689437e+17 1.241908e-03 0 
    0.074513 2.901734e+17 1.303437e-03 0 
    0.075550 3.073778e+17 1.343074e-03 0 
    0.076425 3.138203e+17 1.340005e-03 0 
    0.077488 3.480838e+17 1.445810e-03 0 
    0.078566 3.704015e+17 1.496580e-03 0 
    0.079476 3.914337e+17 1.545548e-03 0 
    0.080581 4.136885e+17 1.588929e-03 0 
    0.081515 4.331655e+17 1.625830e-03 0 
    0.082458 4.695269e+17 1.722231e-03 0 
    0.083413 4.282228e+17 1.534966e-03 0 
    0.084574 5.124777e+17 1.786889e-03 0 
    0.085553 5.366134e+17 1.828468e-03 0 
    0.086544 5.776631e+17 1.923522e-03 0 
    0.087546 6.203968e+17 2.018800e-03 0 
    0.088559 6.724577e+17 2.138435e-03 0 
    0.089585 7.155881e+17 2.223766e-03 0 
    0.090414 7.356304e+17 2.244320e-03 0 
    0.091461 1.090610e+18 3.251576e-03 0 
    0.092520 6.319084e+18 1.841108e-02 0 
    0.093591 1.408201e+19 4.009525e-02 0 
    0.094457 2.777583e+19 7.764171e-02 0 
    0.095551 4.014801e+19 1.096705e-01 0 
    0.096435 4.804680e+19 1.288521e-01 0 
    0.097552 9.134031e+18 2.393793e-02 0 
    0.098454 4.673924e+19 1.202573e-01 0 
    0.099594 4.939201e+19 1.241900e-01 0 
    0.100516 6.976901e+19 1.722220e-01 0 
    0.101446 6.708986e+19 1.625861e-01 0 
    0.102385 2.848808e+19 6.777773e-02 0 
    0.103570 5.112930e+19 1.188772e-01 0 
    0.104529 9.697401e+19 2.213493e-01 0 
    0.105496 9.809637e+19 2.198252e-01 0 
    0.106472 8.178605e+19 1.799305e-01 0 
    0.107457 9.832370e+19 2.123661e-01 0 
    0.108451 8.159770e+19 1.730243e-01 0 
    0.109455 1.073170e+20 2.234053e-01 0 
    0.110468 1.058454e+20 2.163194e-01 0 
    0.111490 1.051125e+20 2.109012e-01 0 
    0.112521 9.764911e+19 1.923524e-01 0 
    0.113563 1.229356e+20 2.377390e-01 0 
    0.114613 1.147293e+20 2.178226e-01 0 
    0.115408 1.235002e+20 2.312556e-01 0 
    0.116476 1.308196e+20 2.404896e-01 0 
    0.117553 9.630821e+19 1.738170e-01 0 
    0.118368 1.314238e+20 2.339386e-01 0 
    0.119463 9.499050e+19 1.660006e-01 0 
    0.120569 7.172588e+19 1.230555e-01 0 
    0.121405 4.361766e+19 7.380498e-02 0 
    0.122528 9.498599e+19 1.577921e-01 0 
    0.123377 1.447646e+20 2.371867e-01 0 
    0.124519 1.635530e+20 2.630775e-01 0 
    0.125382 1.605743e+20 2.547430e-01 0 
    0.126542 1.424536e+20 2.218710e-01 0 
    0.127419 1.835126e+20 2.818993e-01 0 
    0.128598 1.957335e+20 2.951843e-01 0 
    0.129490 1.624307e+20 2.415973e-01 0 
    0.130387 1.631794e+20 2.393830e-01 0 
    0.131594 2.030788e+20 2.924752e-01 0 
    0.132506 1.984560e+20 2.818965e-01 0 
    0.133424 1.814124e+20 2.541531e-01 0 
    0.134349 2.146218e+20 2.965524e-01 0 
    0.135592 2.126486e+20 2.884635e-01 0 
    0.136532 1.961843e+20 2.624773e-01 0 
    0.137479 2.082905e+20 2.748484e-01 0 
    0.138432 2.141280e+20 2.786743e-01 0 
    0.139391 1.921583e+20 2.466528e-01 0 
    0.140357 2.030777e+20 2.570931e-01 0 
    0.141656 2.111843e+20 2.624750e-01 0 
    0.142638 2.191129e+20 2.685925e-01 0 
    0.143627 2.211340e+20 2.673498e-01 0 
    0.144290 2.347825e+20 2.812482e-01 0 
    0.144622 2.391439e+20 2.851590e-01 0 
    0.145625 2.374990e+20 2.793099e-01 0 
    0.146634 2.247305e+20 2.606688e-01 0 
    0.147651 2.273306e+20 2.600648e-01 0 
    0.148332 2.326331e+20 2.636928e-01 0 
    0.149360 2.397032e+20 2.679795e-01 0 
    0.150396 2.320929e+20 2.559091e-01 0 
    0.151090 2.116756e+20 2.312574e-01 0 
    0.151787 2.273342e+20 2.460890e-01 0 
    0.152488 2.237018e+20 2.399355e-01 0 
    0.153545 2.016766e+20 2.133441e-01 0 
    0.154609 2.231887e+20 2.328623e-01 0 
    0.155323 2.136280e+20 2.208427e-01 0 
    0.156399 2.201212e+20 2.244349e-01 0 
    0.157483 2.380473e+20 2.393825e-01 0 
    0.158575 2.515732e+20 2.495120e-01 0 
    0.159674 2.616158e+20 2.559128e-01 0 
    0.160411 2.580290e+20 2.500902e-01 0 
    0.161523 2.622244e+20 2.506691e-01 0 
    0.162643 2.533121e+20 2.388260e-01 0 
    0.163394 2.708087e+20 2.529804e-01 0 
    0.164526 2.790357e+20 2.570911e-01 0 
    0.165667 2.616211e+20 2.377372e-01 0 
    0.166431 2.895089e+20 2.606693e-01 0 
    0.167200 2.628209e+20 2.344681e-01 0 
    0.167585 3.010633e+20 2.673524e-01 0 
    0.168358 3.152555e+20 2.773905e-01 0 
    0.169526 3.003743e+20 2.606673e-01 0 
    0.170308 2.935409e+20 2.524033e-01 0 
    0.171488 2.895072e+20 2.455208e-01 0 
    0.172677 2.935362e+20 2.455212e-01 0 
    0.173474 3.167108e+20 2.624766e-01 0 
    0.174677 3.130863e+20 2.559111e-01 0 
    0.175483 3.393660e+20 2.748493e-01 0 
    0.176699 3.123659e+20 2.495123e-01 0 
    0.177515 3.293538e+20 2.606688e-01 0 
    0.178334 3.370239e+20 2.642949e-01 0 
    0.179571 3.695414e+20 2.858164e-01 0 
    0.180399 3.661521e+20 2.806013e-01 0 
    0.181650 3.512976e+20 2.655222e-01 0 
    0.182488 3.586454e+20 2.685920e-01 0 
    0.183331 3.480748e+20 2.582838e-01 0 
    0.184601 3.240844e+20 2.371846e-01 0 
    0.185454 3.354868e+20 2.432761e-01 0 
    0.186309 3.537241e+20 2.541520e-01 0 
    0.187601 3.790229e+20 2.685911e-01 0 
    0.188467 3.603005e+20 2.529826e-01 0 
    0.189337 3.569993e+20 2.483664e-01 0 
    0.190649 3.764188e+20 2.582847e-01 0 
    0.191529 3.729547e+20 2.535616e-01 0 
    0.192413 3.661511e+20 2.466539e-01 0 
    0.193301 3.611385e+20 2.410472e-01 0 
    0.194641 4.080048e+20 2.685920e-01 0 
    0.195540 3.923388e+20 2.559095e-01 0 
    0.196895 4.351855e+20 2.799636e-01 0 
    0.197804 4.453038e+20 2.838459e-01 0 
    0.198260 4.311904e+20 2.735869e-01 0 
    0.199634 4.272276e+20 2.673540e-01 0 
    0.200556 4.341678e+20 2.692047e-01 0 
    0.201481 4.282108e+20 2.630788e-01 0 
    0.202411 4.391931e+20 2.673522e-01 0 
    0.203346 4.412222e+20 2.661231e-01 0 
    0.204284 4.663059e+20 2.786754e-01 0 
    0.205700 4.535840e+20 2.673533e-01 0 
    0.206650 4.556772e+20 2.661233e-01 0 
    0.207604 4.984994e+20 2.884627e-01 0 
    0.208562 5.268132e+20 3.020527e-01 0 
    0.209525 5.042749e+20 2.864786e-01 0 
    0.210492 5.019541e+20 2.825461e-01 0 
    0.211463 5.172049e+20 2.884632e-01 0 
    0.212439 5.256035e+20 2.904599e-01 0 
    0.213420 4.871446e+20 2.667375e-01 0 
    0.214405 5.244065e+20 2.845081e-01 0 
    0.215395 5.428354e+20 2.918055e-01 0 
    0.216389 5.232066e+20 2.786759e-01 0 
    0.217388 5.256098e+20 2.773887e-01 0 
    0.218391 5.415796e+20 2.831974e-01 0 
    0.219399 5.736622e+20 2.972237e-01 0 
    0.220412 5.606209e+20 2.878029e-01 0 
    0.221429 5.243928e+20 2.667375e-01 0 
    0.222451 5.232019e+20 2.636921e-01 0 
    0.223478 5.870374e+20 2.931518e-01 0 
    0.224510 5.633304e+20 2.787329e-01 0 
    0.225546 5.303253e+20 2.599971e-01 0 
    0.226587 5.424018e+20 2.634799e-01 0 
    0.227633 5.729082e+20 2.757471e-01 0 
    0.228684 6.135639e+20 2.926070e-01 0 
    0.229739 5.762874e+20 2.723116e-01 0 
    0.230269 6.012142e+20 2.827839e-01 0 
    0.231332 5.765243e+20 2.686845e-01 0 
    0.232399 4.619397e+20 2.133110e-01 0 
    0.233472 5.240730e+20 2.397831e-01 0 
    0.234550 4.832364e+20 2.190712e-01 0 
    0.235632 5.820485e+20 2.614490e-01 0 
    0.236720 5.008965e+20 2.229331e-01 0 
    0.237266 5.459559e+20 2.418706e-01 0 
    0.238361 4.720092e+20 2.071937e-01 0 
    0.239461 5.232875e+20 2.275973e-01 0 
    0.240566 5.123204e+20 2.207850e-01 0 
    0.241677 5.399277e+20 2.305480e-01 0 
    0.242234 6.262575e+20 2.661823e-01 0 
    0.243352 6.145616e+20 2.588165e-01 0 
    0.244475 6.704428e+20 2.797623e-01 0 
    0.245604 6.763619e+20 2.796435e-01 0 
    0.246737 6.698515e+20 2.744141e-01 0 
    0.247306 6.359096e+20 2.593119e-01 0 
    0.248448 6.283503e+20 2.538793e-01 0 
    0.249595 6.137867e+20 2.457209e-01 0 
    0.250747 7.359413e+20 2.919229e-01 0 
    0.251325 5.905651e+20 2.331808e-01 0 
    0.251904 5.776699e+20 2.270419e-01 0 
    0.252485 5.676593e+20 2.220818e-01 0 
    0.253650 6.108049e+20 2.367714e-01 0 
    0.254235 6.184572e+20 2.386357e-01 0 
    0.255408 7.263415e+20 2.776952e-01 0 
    0.256587 6.854700e+20 2.596663e-01 0 
    0.257772 7.600118e+20 2.852629e-01 0 
    0.258366 7.451264e+20 2.783913e-01 0 
    0.259558 7.312546e+20 2.707050e-01 0 
    0.260756 6.996870e+20 2.566443e-01 0 
    0.261358 6.781442e+20 2.475979e-01 0 
    0.262564 7.694430e+20 2.783573e-01 0 
    0.263776 8.770275e+20 3.143685e-01 0 
    0.264384 1.033793e+21 3.688583e-01 0 
    0.265604 1.146258e+21 4.052376e-01 0 
    0.266217 9.543648e+20 3.358453e-01 0 
    0.267445 1.041278e+21 3.630733e-01 0 
    0.268680 1.089981e+21 3.765690e-01 0 
    0.269299 9.746378e+20 3.351739e-01 0 
    0.270542 1.065883e+21 3.631921e-01 0 
    0.271791 9.540411e+20 3.221020e-01 0 
    0.272418 9.353953e+20 3.143548e-01 0 
    0.273675 1.032413e+21 3.437794e-01 0 
    0.274306 7.985110e+20 2.646712e-01 0 
    0.275572 8.834125e+20 2.901281e-01 0 
    0.276207 9.763027e+20 3.191623e-01 0 
    0.277482 1.055507e+21 3.418913e-01 0 
    0.278763 8.960431e+20 2.875776e-01 0 
    0.279406 6.134504e+20 1.959767e-01 0 
    0.280695 6.864924e+20 2.173016e-01 0 
    0.281342 1.061883e+21 3.345829e-01 0 
    0.282641 1.247267e+21 3.893908e-01 0 
    0.283293 1.214498e+21 3.774172e-01 0 
    0.284600 1.135742e+21 3.497086e-01 0 
    0.285256 9.947845e+20 3.048989e-01 0 
    0.286573 1.290068e+21 3.917766e-01 0 
    0.287234 1.383748e+21 4.182940e-01 0 
    0.288559 1.361269e+21 4.077286e-01 0 
    0.289224 1.417057e+21 4.224887e-01 0 
    0.291229 1.701099e+21 5.002150e-01 0 
    0.293248 1.614644e+21 4.682774e-01 0 
    0.295281 1.593756e+21 4.558765e-01 0 
    0.297327 1.685694e+21 4.755613e-01 0 
    0.298700 1.728538e+21 4.831755e-01 0 
    0.300770 1.794947e+21 4.948562e-01 0 
    0.302855 1.855306e+21 5.044782e-01 0 
    0.304954 1.931043e+21 5.178687e-01 0 
    0.307068 2.028483e+21 5.365359e-01 0 
    0.309197 2.082366e+21 5.432291e-01 0 
    0.311340 2.202657e+21 5.667264e-01 0 
    0.312777 2.157083e+21 5.499125e-01 0 
    0.314945 2.219580e+21 5.580817e-01 0 
    0.317128 2.342447e+21 5.808941e-01 0 
    0.319327 2.193190e+21 5.364155e-01 0 
    0.320800 2.371489e+21 5.747100e-01 0 
    0.323024 2.205145e+21 5.270649e-01 0 
    0.325263 2.629399e+21 6.198457e-01 0 
    0.326765 2.902755e+21 6.780095e-01 0 
    0.329030 2.925746e+21 6.740034e-01 0 
    0.331310 2.935476e+21 6.669694e-01 0 
    0.332074 2.858606e+21 6.465186e-01 0 
    0.332840 3.045353e+21 6.855879e-01 0 
    0.333607 3.177741e+21 7.121059e-01 0 
    0.334376 2.948507e+21 6.577009e-01 0 
    0.335147 2.972218e+21 6.599429e-01 0 
    0.335919 3.210418e+21 7.095596e-01 0 
    0.336694 3.076416e+21 6.768162e-01 0 
    0.337470 2.591391e+21 5.674911e-01 0 
    0.338248 2.831506e+21 6.172249e-01 0 
    0.339028 3.224772e+21 6.997200e-01 0 
    0.339809 3.191438e+21 6.893076e-01 0 
    0.340592 3.195020e+21 6.869121e-01 0 
    0.341378 3.205963e+21 6.860945e-01 0 
    0.342165 3.423298e+21 7.292392e-01 0 
    0.342953 3.341420e+21 7.085302e-01 0 
    0.343744 3.407368e+21 7.191927e-01 0 
    0.344536 2.722130e+21 5.719210e-01 0 
    0.345331 3.609107e+21 7.547881e-01 0 
    0.346127 3.146950e+21 6.551116e-01 0 
    0.346925 3.321819e+21 6.883371e-01 0 
    0.347724 3.089350e+21 6.372270e-01 0 
    0.348526 3.375682e+21 6.930868e-01 0 
    0.349329 3.220014e+21 6.580895e-01 0 
    0.350135 3.391186e+21 6.898855e-01 0 
    0.350942 3.563212e+21 7.215516e-01 0 
    0.351751 3.283509e+21 6.618568e-01 0 
    0.352562 3.410588e+21 6.843129e-01 0 
    0.353374 3.795996e+21 7.581462e-01 0 
    0.354189 4.007013e+21 7.966125e-01 0 
    0.355006 4.067394e+21 8.048988e-01 0 
    0.355824 3.853120e+21 7.589943e-01 0 
    0.356644 4.011577e+21 7.865779e-01 0 
    0.357466 3.317502e+21 6.474977e-01 0 
    0.357964 3.661870e+21 7.127228e-01 1 
    0.358232 3.867002e+21 7.515226e-01 1 
    0.358501 3.648395e+21 7.079745e-01 1 
    0.358769 3.562330e+21 6.902410e-01 1 
    0.359037 2.998630e+21 5.801509e-01 1 
    0.359306 3.706783e+21 7.160852e-01 1 
    0.359574 4.500228e+21 8.680693e-01 1 
    0.359842 4.436080e+21 8.544214e-01 1 
    0.360110 4.732537e+21 9.101648e-01 1 
    0.360379 4.330098e+21 8.315249e-01 1 
    0.360647 4.720910e+21 9.052271e-01 1 
    0.360915 3.582506e+21 6.859201e-01 1 
    0.361183 3.817088e+21 7.297497e-01 1 
    0.361452 4.186511e+21 7.991852e-01 1 
    0.361720 4.157048e+21 7.923854e-01 1 
    0.361988 3.925620e+21 7.471648e-01 1 
    0.362256 3.675598e+21 6.985433e-01 1 
    0.362525 3.704999e+21 7.030863e-01 1 
    0.362793 2.759481e+21 5.228848e-01 1 
    0.363061 3.231719e+21 6.114638e-01 1 
    0.363330 3.313929e+21 6.260905e-01 1 
    0.363598 3.400315e+21 6.414645e-01 1 
    0.363866 3.654742e+21 6.884466e-01 1 
    0.364134 3.816628e+21 7.178831e-01 1 
    0.364403 3.778436e+21 7.096506e-01 1 
    0.364671 4.202990e+21 7.882290e-01 1 
    0.364939 4.247386e+21 7.953854e-01 1 
    0.365207 3.871674e+21 7.239641e-01 1 
    0.365476 3.972156e+21 7.416603e-01 1 
    0.365744 4.224406e+21 7.876035e-01 1 
    0.366012 5.086493e+21 9.469439e-01 1 
    0.366280 3.626296e+21 6.741140e-01 1 
    0.366549 3.394096e+21 6.300231e-01 1 
    0.366817 4.764769e+21 8.831600e-01 1 
    0.367085 5.604457e+21 1.037282e+00 1 
    0.367354 5.906027e+21 1.091496e+00 1 
    0.367622 5.255133e+21 9.697889e-01 1 
    0.367890 4.466096e+21 8.229787e-01 1 
    0.368158 5.683922e+21 1.045866e+00 1 
    0.368427 5.144053e+21 9.451461e-01 1 
    0.368695 3.971520e+21 7.286496e-01 1 
    0.368963 5.001467e+21 9.162802e-01 1 
    0.369231 3.510115e+21 6.421279e-01 1 
    0.369500 3.207740e+21 5.859582e-01 1 
    0.369768 3.768308e+21 6.873599e-01 1 
    0.370036 3.342044e+21 6.087243e-01 1 
    0.370304 3.484130e+21 6.336858e-01 1 
    0.370573 4.466325e+21 8.111464e-01 1 
    0.370841 3.763517e+21 6.825192e-01 1 
    0.371109 3.635497e+21 6.583506e-01 1 
    0.371378 4.390349e+21 7.938951e-01 1 
    0.371646 5.235779e+21 9.454070e-01 1 
    0.371914 5.567947e+21 1.003937e+00 1 
    0.372182 8.140971e+21 1.465757e+00 1 
    0.372451 1.065356e+22 1.915371e+00 1 
    0.372719 1.150548e+22 2.065562e+00 1 
    0.372987 9.084466e+21 1.628578e+00 1 
    0.373255 7.245448e+21 1.297031e+00 1 
    0.373524 6.490847e+21 1.160275e+00 1 
    0.373792 5.275719e+21 9.417121e-01 1 
    0.374060 4.892067e+21 8.719795e-01 1 
    0.374328 4.867244e+21 8.663133e-01 1 
    0.374597 4.926174e+21 8.755432e-01 1 
    0.374865 4.231298e+21 7.509660e-01 1 
    0.375133 4.577333e+21 8.112195e-01 1 
    0.375402 4.565601e+21 8.079812e-01 1 
    0.375670 5.931854e+21 1.048272e+00 1 
    0.375938 5.210418e+21 9.194679e-01 1 
    0.376206 4.474037e+21 7.883964e-01 1 
    0.376475 5.357421e+21 9.427140e-01 1 
    0.376743 4.495947e+21 7.900002e-01 1 
    0.377011 4.339371e+21 7.614040e-01 1 
    0.377279 5.071109e+21 8.885342e-01 1 
    0.377548 4.876346e+21 8.531917e-01 1 
    0.377816 5.677335e+21 9.919284e-01 1 
    0.378084 5.911436e+21 1.031366e+00 1 
    0.378352 6.659620e+21 1.160256e+00 1 
    0.378621 5.473513e+21 9.522550e-01 1 
    0.378889 5.160552e+21 8.965378e-01 1 
    0.379157 4.245241e+21 7.364795e-01 1 
    0.379426 4.306321e+21 7.460168e-01 1 
    0.379694 5.050498e+21 8.737017e-01 1 
    0.379962 4.855596e+21 8.388005e-01 1 
    0.380230 5.273677e+21 9.097399e-01 1 
    0.380499 5.211413e+21 8.977284e-01 1 
    0.380767 6.029324e+21 1.037162e+00 1 
    0.381035 5.799791e+21 9.962745e-01 1 
    0.381303 6.789514e+21 1.164648e+00 1 
