# IC 4553        
# 
# An Atlas of Galaxy Spectral Energy Distributions from the Ultraviolet to the Mid-Infrared
# Brown et al. (2014)
# http://dx.doi.org/10.5072/03/529D3551F0117
# http://dx.doi.org/10.17909/t9-5bxk-dh29
# 
# The Spectral Energy Distributions of Active Galactic Nuclei
# Brown et al. (2019)
# http://dx.doi.org/10.17909/t9-3dbt-8734
# 
# Column 1: Observed wavelength (um)
# Column 2: L_nu (W/Hz)
# Column 3: f_lam (erg/s/cm2/A)
# Column 4: Source (0 = model, 1 = Optical Spectrun, 2 = Akari, 3 = Spitzer IRS)
# 
  1.0005e-02 4.563156e+07 1.136914e-11 0 
  1.0191e-02 6.764292e+07 1.624371e-11 0 
  1.0404e-02 9.189541e+07 2.117335e-11 0 
  1.0597e-02 1.282971e+08 2.849360e-11 0 
  1.0794e-02 1.808205e+08 3.870609e-11 0 
  1.0995e-02 3.207928e+08 6.618059e-11 0 
  1.1408e-02 5.810572e+08 1.113515e-10 0 
  1.1809e-02 9.756241e+08 1.744829e-10 0 
  1.2112e-02 3.461404e+09 5.884601e-10 0 
  1.2508e-02 5.731204e+09 9.136220e-10 0 
  1.2712e-02 7.265574e+09 1.121343e-09 0 
  1.2800e-02 8.208820e+09 1.249560e-09 0 
  1.3098e-02 1.140907e+10 1.658581e-09 0 
  1.3189e-02 1.368591e+10 1.962215e-09 0 
  1.3403e-02 1.691493e+10 2.348349e-09 0 
  1.3715e-02 2.490461e+10 3.302058e-09 0 
  1.4002e-02 3.367083e+10 4.283217e-09 0 
  1.4295e-02 6.811806e+10 8.313625e-09 0 
  1.4696e-02 1.416551e+11 1.635801e-08 0 
  1.5108e-02 2.024314e+11 2.211874e-08 0 
  1.5495e-02 2.872449e+11 2.983772e-08 0 
  1.5893e-02 4.038905e+11 3.987938e-08 0 
  1.6188e-02 5.155541e+11 4.906641e-08 0 
  1.6603e-02 7.132338e+11 6.452904e-08 0 
  1.6990e-02 9.621208e+11 8.312647e-08 0 
  1.7306e-02 1.205754e+12 1.004065e-07 0 
  1.7709e-02 1.600505e+12 1.272815e-07 0 
  1.7997e-02 1.964479e+12 1.512668e-07 0 
  1.8205e-02 2.255490e+12 1.697289e-07 0 
  1.8587e-02 2.925711e+12 2.112074e-07 0 
  1.9107e-02 4.020393e+12 2.746502e-07 0 
  1.9418e-02 4.855925e+12 3.211881e-07 0 
  1.9779e-02 6.126923e+12 3.905982e-07 0 
  2.0193e-02 7.731457e+12 4.728856e-07 0 
  2.0521e-02 9.188815e+12 5.442004e-07 0 
  2.0999e-02 1.164850e+13 6.588237e-07 0 
  2.1587e-02 1.637799e+13 8.765417e-07 0 
  2.1989e-02 2.005656e+13 1.034527e-06 0 
  2.2295e-02 2.308202e+13 1.158125e-06 0 
  2.2709e-02 2.813697e+13 1.360748e-06 0 
  2.3025e-02 4.669245e+13 2.196564e-06 0 
  2.3399e-02 8.856220e+13 4.034133e-06 0 
  2.3999e-02 1.322031e+14 5.724689e-06 0 
  2.4615e-02 1.556867e+14 6.408380e-06 0 
  2.5188e-02 1.955599e+14 7.687567e-06 0 
  2.5716e-02 1.928677e+14 7.273594e-06 0 
  2.6013e-02 2.422486e+14 8.928464e-06 0 
  2.6375e-02 2.813494e+14 1.008689e-05 0 
  2.6928e-02 3.252777e+14 1.118774e-05 0 
  2.7428e-02 3.717413e+14 1.232392e-05 0 
  2.7874e-02 4.209647e+14 1.351275e-05 0 
  2.8392e-02 4.778060e+14 1.478278e-05 0 
  2.8987e-02 5.299827e+14 1.573083e-05 0 
  2.9594e-02 6.240986e+14 1.777225e-05 0 
  3.0075e-02 6.827691e+14 1.882604e-05 0 
  3.0775e-02 8.077218e+14 2.126974e-05 0 
  3.1783e-02 1.014484e+15 2.504679e-05 0 
  3.2825e-02 1.236641e+15 2.862403e-05 0 
  3.3822e-02 1.479989e+15 3.226684e-05 0 
  3.4770e-02 1.750892e+15 3.611989e-05 0 
  3.5661e-02 2.028882e+15 3.978929e-05 0 
  3.6576e-02 2.345567e+15 4.372722e-05 0 
  3.7514e-02 2.680693e+15 4.750691e-05 0 
  3.8477e-02 3.000880e+15 5.055252e-05 0 
  3.9464e-02 3.517655e+15 5.633100e-05 0 
  4.0476e-02 4.011073e+15 6.106070e-05 0 
  4.1419e-02 4.479843e+15 6.512684e-05 0 
  4.2189e-02 4.889468e+15 6.851088e-05 0 
  4.2973e-02 5.324169e+15 7.190464e-05 0 
  4.4076e-02 6.029051e+15 7.740002e-05 0 
  4.5102e-02 6.656821e+15 8.161534e-05 0 
  4.6047e-02 7.281888e+15 8.565205e-05 0 
  4.7011e-02 7.966218e+15 8.989793e-05 0 
  4.7995e-02 8.755006e+15 9.478965e-05 0 
  4.9000e-02 9.489799e+15 9.857376e-05 0 
    0.050026 1.038157e+16 1.034589e-04 0 
    0.050606 1.099668e+16 1.070913e-04 0 
    0.051192 1.274216e+16 1.212649e-04 0 
    0.052023 1.359082e+16 1.252423e-04 0 
    0.052991 1.463052e+16 1.299427e-04 0 
    0.053976 1.546172e+16 1.323588e-04 0 
    0.054979 1.722869e+16 1.421527e-04 0 
    0.056001 1.924210e+16 1.530232e-04 0 
    0.057042 2.109811e+16 1.617151e-04 0 
    0.057969 2.214341e+16 1.643423e-04 0 
    0.059047 2.461734e+16 1.760929e-04 0 
    0.060007 2.589765e+16 1.793713e-04 0 
    0.060982 2.724341e+16 1.827067e-04 0 
    0.061972 3.186154e+16 2.069056e-04 0 
    0.062979 3.429692e+16 2.156553e-04 0 
    0.064003 3.666525e+16 2.232289e-04 0 
    0.065043 4.011064e+16 2.364585e-04 0 
    0.065796 4.219333e+16 2.430755e-04 0 
    0.066558 4.521214e+16 2.545370e-04 0 
    0.067484 4.822287e+16 2.640875e-04 0 
    0.068422 4.968859e+16 2.647047e-04 0 
    0.069534 5.811169e+16 2.997544e-04 0 
    0.070502 5.864810e+16 2.942710e-04 0 
    0.071647 6.859034e+16 3.332448e-04 0 
    0.072644 7.332583e+16 3.465404e-04 0 
    0.073485 7.767074e+16 3.587208e-04 0 
    0.074507 8.575467e+16 3.852655e-04 0 
    0.075544 9.252485e+16 4.043476e-04 0 
    0.076419 9.755650e+16 4.166294e-04 0 
    0.077482 1.089577e+17 4.526397e-04 0 
    0.078559 1.191929e+17 4.816758e-04 0 
    0.079469 1.274271e+17 5.032255e-04 0 
    0.080575 1.368521e+17 5.257113e-04 0 
    0.081508 1.452957e+17 5.454423e-04 0 
    0.082451 1.600498e+17 5.871644e-04 0 
    0.083406 1.486802e+17 5.330342e-04 0 
    0.084567 1.804069e+17 6.291407e-04 0 
    0.085546 1.919772e+17 6.542543e-04 0 
    0.086536 2.095352e+17 6.978464e-04 0 
    0.087538 2.281669e+17 7.426014e-04 0 
    0.088552 2.501916e+17 7.957423e-04 0 
    0.089577 2.699402e+17 8.390174e-04 0 
    0.090406 2.820123e+17 8.605380e-04 0 
    0.091453 4.219468e+17 1.258225e-03 0 
    0.092512 2.456160e+18 7.157428e-03 0 
    0.093583 5.460764e+18 1.555091e-02 0 
    0.094449 1.082056e+19 3.025183e-02 0 
    0.095543 1.549735e+19 4.234052e-02 0 
    0.096427 1.919794e+19 5.149365e-02 0 
    0.097544 4.142508e+18 1.085822e-02 0 
    0.098446 2.047656e+19 5.269352e-02 0 
    0.099586 2.119593e+19 5.330308e-02 0 
    0.100507 2.852679e+19 7.042984e-02 0 
    0.101437 2.699305e+19 6.542679e-02 0 
    0.102612 1.151472e+19 2.727430e-02 0 
    0.103562 2.184011e+19 5.078675e-02 0 
    0.104520 3.983251e+19 9.093591e-02 0 
    0.105487 4.085535e+19 9.156879e-02 0 
    0.106463 3.542191e+19 7.794190e-02 0 
    0.107448 4.219375e+19 9.114815e-02 0 
    0.108442 3.649565e+19 7.740026e-02 0 
    0.109446 4.637143e+19 9.654887e-02 0 
    0.110458 4.605266e+19 9.413624e-02 0 
    0.111480 4.669462e+19 9.370642e-02 0 
    0.112512 4.407930e+19 8.684273e-02 0 
    0.113553 5.398289e+19 1.044132e-01 0 
    0.114604 5.107951e+19 9.699372e-02 0 
    0.115398 5.473538e+19 1.025104e-01 0 
    0.116466 5.824523e+19 1.070924e-01 0 
    0.117543 4.490029e+19 8.104981e-02 0 
    0.118631 5.905484e+19 1.046539e-01 0 
    0.119453 4.469690e+19 7.812314e-02 0 
    0.120559 3.501532e+19 6.008351e-02 0 
    0.121394 1.969073e+19 3.332451e-02 0 
    0.122518 4.337628e+19 7.206907e-02 0 
    0.123367 6.490209e+19 1.063548e-01 0 
    0.124508 7.366229e+19 1.185079e-01 0 
    0.125371 7.383376e+19 1.171540e-01 0 
    0.126531 6.702828e+19 1.044145e-01 0 
    0.127409 8.418692e+19 1.293424e-01 0 
    0.128587 9.000215e+19 1.357548e-01 0 
    0.129479 7.820983e+19 1.163480e-01 0 
    0.130376 7.874816e+19 1.155424e-01 0 
    0.131583 9.555577e+19 1.376429e-01 0 
    0.132495 9.446365e+19 1.342030e-01 0 
    0.133413 8.856552e+19 1.240980e-01 0 
    0.134648 1.026239e+20 1.411708e-01 0 
    0.135581 1.023873e+20 1.389136e-01 0 
    0.136521 9.643972e+19 1.290487e-01 0 
    0.137467 1.019214e+20 1.345132e-01 0 
    0.138420 1.055011e+20 1.373270e-01 0 
    0.139379 9.644208e+19 1.238136e-01 0 
    0.140345 1.019190e+20 1.290499e-01 0 
    0.141644 1.067207e+20 1.326627e-01 0 
    0.142626 1.102175e+20 1.351293e-01 0 
    0.143615 1.120128e+20 1.354455e-01 0 
    0.144277 1.186453e+20 1.421520e-01 0 
    0.144610 1.208514e+20 1.441290e-01 0 
    0.145612 1.205757e+20 1.418280e-01 0 
    0.146622 1.159475e+20 1.345115e-01 0 
    0.147638 1.175608e+20 1.345126e-01 0 
    0.148662 1.208501e+20 1.363777e-01 0 
    0.149348 1.242368e+20 1.389146e-01 0 
    0.150383 1.219734e+20 1.345130e-01 0 
    0.151077 1.130468e+20 1.235259e-01 0 
    0.151774 1.205703e+20 1.305396e-01 0 
    0.152475 1.194705e+20 1.281622e-01 0 
    0.153532 1.097105e+20 1.160772e-01 0 
    0.154596 1.205741e+20 1.258213e-01 0 
    0.155668 1.164829e+20 1.198836e-01 0 
    0.156386 1.197455e+20 1.221124e-01 0 
    0.157470 1.292002e+20 1.299463e-01 0 
    0.158562 1.362236e+20 1.351296e-01 0 
    0.159661 1.423180e+20 1.392383e-01 0 
    0.160398 1.403663e+20 1.360697e-01 0 
    0.161510 1.429723e+20 1.366940e-01 0 
    0.162629 1.390804e+20 1.311494e-01 0 
    0.163380 1.483400e+20 1.385980e-01 0 
    0.164512 1.531962e+20 1.411722e-01 0 
    0.165653 1.449617e+20 1.317502e-01 0 
    0.166417 1.600494e+20 1.441303e-01 0 
    0.167185 1.469829e+20 1.311501e-01 0 
    0.167571 1.656724e+20 1.471461e-01 0 
    0.168344 1.730805e+20 1.523174e-01 0 
    0.169511 1.664372e+20 1.444612e-01 0 
    0.170686 1.645328e+20 1.408488e-01 0 
    0.171474 1.630209e+20 1.382749e-01 0 
    0.172663 1.652885e+20 1.382740e-01 0 
    0.173460 1.771136e+20 1.468080e-01 0 
    0.174662 1.763004e+20 1.441295e-01 0 
    0.175468 1.893489e+20 1.533781e-01 0 
    0.176685 1.767051e+20 1.411712e-01 0 
    0.177500 1.863149e+20 1.474848e-01 0 
    0.178319 1.911011e+20 1.498871e-01 0 
    0.179555 2.071336e+20 1.602330e-01 0 
    0.180384 2.071363e+20 1.587657e-01 0 
    0.181635 2.010294e+20 1.519697e-01 0 
    0.182473 2.047668e+20 1.533765e-01 0 
    0.183315 2.010253e+20 1.491939e-01 0 
    0.184586 1.884743e+20 1.379593e-01 0 
    0.185438 1.951040e+20 1.415029e-01 0 
    0.186294 2.052350e+20 1.474858e-01 0 
    0.187585 2.189070e+20 1.551529e-01 0 
    0.188451 2.095328e+20 1.471470e-01 0 
    0.189321 2.080983e+20 1.447996e-01 0 
    0.190633 2.189095e+20 1.502329e-01 0 
    0.191513 2.183990e+20 1.485082e-01 0 
    0.192397 2.163991e+20 1.457993e-01 0 
    0.193285 2.149091e+20 1.434679e-01 0 
    0.194625 2.394759e+20 1.576743e-01 0 
    0.195523 2.318745e+20 1.512703e-01 0 
    0.196879 2.548296e+20 1.639636e-01 0 
    0.197787 2.607632e+20 1.662445e-01 0 
    0.198243 2.536686e+20 1.609784e-01 0 
    0.199617 2.519195e+20 1.576751e-01 0 
    0.200539 2.566041e+20 1.591338e-01 0 
    0.201464 2.554138e+20 1.569445e-01 0 
    0.202394 2.613743e+20 1.591344e-01 0 
    0.203329 2.637924e+20 1.591329e-01 0 
    0.204267 2.775016e+20 1.658691e-01 0 
    0.205683 2.718002e+20 1.602321e-01 0 
    0.206632 2.743162e+20 1.602333e-01 0 
    0.207586 2.980207e+20 1.724832e-01 0 
    0.208544 3.127962e+20 1.793753e-01 0 
    0.209507 3.014805e+20 1.713005e-01 0 
    0.210474 3.021728e+20 1.701198e-01 0 
    0.211445 3.120774e+20 1.740860e-01 0 
    0.212422 3.156875e+20 1.744837e-01 0 
    0.213402 2.966509e+20 1.624595e-01 0 
    0.214387 3.178674e+20 1.724827e-01 0 
    0.215377 3.282838e+20 1.765011e-01 0 
    0.216371 3.178737e+20 1.693374e-01 0 
    0.217369 3.208126e+20 1.693373e-01 0 
    0.218373 3.313217e+20 1.732800e-01 0 
    0.219381 3.509549e+20 1.818653e-01 0 
    0.220393 3.437531e+20 1.765012e-01 0 
    0.221411 3.245265e+20 1.651004e-01 0 
    0.222433 3.260201e+20 1.643397e-01 0 
    0.223459 3.632987e+20 1.814531e-01 0 
    0.224491 3.501469e+20 1.732802e-01 0 
    0.225527 3.320865e+20 1.628361e-01 0 
    0.226568 3.389078e+20 1.646573e-01 0 
    0.227614 3.575945e+20 1.721430e-01 0 
    0.228664 3.825488e+20 1.824685e-01 0 
    0.229720 3.622389e+20 1.711961e-01 0 
    0.230249 3.781302e+20 1.778862e-01 0 
    0.231312 3.672452e+20 1.711812e-01 0 
    0.232380 3.049834e+20 1.408559e-01 0 
    0.233452 3.416460e+20 1.563427e-01 0 
    0.234530 3.168765e+20 1.436778e-01 0 
    0.235613 3.777601e+20 1.697126e-01 0 
    0.236700 3.307818e+20 1.472453e-01 0 
    0.237246 3.590880e+20 1.591108e-01 0 
    0.238341 3.151406e+20 1.383577e-01 0 
    0.239441 3.466152e+20 1.507812e-01 0 
    0.240546 3.421053e+20 1.474552e-01 0 
    0.241657 3.585047e+20 1.531061e-01 0 
    0.242772 4.157363e+20 1.759208e-01 0 
    0.243332 4.059725e+20 1.709994e-01 0 
    0.244455 4.424189e+20 1.846427e-01 0 
    0.245583 4.468408e+20 1.847790e-01 0 
    0.246717 4.461632e+20 1.828067e-01 0 
    0.247285 4.247911e+20 1.732512e-01 0 
    0.248427 4.183123e+20 1.690439e-01 0 
    0.249573 4.119580e+20 1.649507e-01 0 
    0.250726 4.900062e+20 1.944013e-01 0 
    0.251303 4.016665e+20 1.586232e-01 0 
    0.251883 3.913242e+20 1.538280e-01 0 
    0.252463 3.865561e+20 1.512563e-01 0 
    0.253629 4.154985e+20 1.610898e-01 0 
    0.254213 4.228945e+20 1.632049e-01 0 
    0.255387 4.927122e+20 1.884049e-01 0 
    0.256566 4.687506e+20 1.775988e-01 0 
    0.257750 5.179684e+20 1.944475e-01 0 
    0.258344 5.104924e+20 1.907607e-01 0 
    0.259536 5.038955e+20 1.865699e-01 0 
    0.260734 4.849712e+20 1.779168e-01 0 
    0.261336 4.714015e+20 1.721428e-01 0 
    0.262542 5.318135e+20 1.924236e-01 0 
    0.263754 6.041269e+20 2.165840e-01 0 
    0.264362 7.076267e+20 2.525239e-01 0 
    0.265582 7.855492e+20 2.777618e-01 0 
    0.266194 6.666059e+20 2.346222e-01 0 
    0.267423 7.214951e+20 2.516126e-01 0 
    0.268657 7.614037e+20 2.630965e-01 0 
    0.269276 6.812349e+20 2.343139e-01 0 
    0.270519 7.441755e+20 2.536158e-01 0 
    0.271768 6.699682e+20 2.262320e-01 0 
    0.272395 6.557564e+20 2.204148e-01 0 
    0.273652 7.246575e+20 2.413415e-01 0 
    0.274283 5.725633e+20 1.898113e-01 0 
    0.275549 6.341697e+20 2.083072e-01 0 
    0.276184 7.029184e+20 2.298287e-01 0 
    0.277459 7.555981e+20 2.447877e-01 0 
    0.278740 6.481700e+20 2.080592e-01 0 
    0.279382 4.491244e+20 1.435047e-01 0 
    0.280672 5.020761e+20 1.589527e-01 0 
    0.281319 7.717301e+20 2.432001e-01 0 
    0.282617 8.950987e+20 2.794929e-01 0 
    0.283269 8.740987e+20 2.716807e-01 0 
    0.284576 8.165070e+20 2.514547e-01 0 
    0.285232 7.073862e+20 2.168485e-01 0 
    0.286549 9.248345e+20 2.809071e-01 0 
    0.287209 9.971690e+20 3.014874e-01 0 
    0.288535 9.843937e+20 2.948956e-01 0 
    0.289200 1.030093e+21 3.071684e-01 0 
    0.291205 1.233065e+21 3.626477e-01 0 
    0.293223 1.180617e+21 3.424597e-01 0 
    0.295256 1.170113e+21 3.347547e-01 0 
    0.297302 1.236948e+21 3.490214e-01 0 
    0.298675 1.269905e+21 3.550340e-01 0 
    0.300745 1.320994e+21 3.642507e-01 0 
    0.302830 1.374183e+21 3.737173e-01 0 
    0.304929 1.439419e+21 3.860879e-01 0 
    0.307042 1.514710e+21 4.007103e-01 0 
    0.309171 1.557673e+21 4.064201e-01 0 
    0.311314 1.654376e+21 4.257291e-01 0 
    0.312751 1.629577e+21 4.155027e-01 0 
    0.314919 1.671993e+21 4.204683e-01 0 
    0.317102 1.784018e+21 4.424842e-01 0 
    0.319300 1.684873e+21 4.121600e-01 0 
    0.320773 1.823965e+21 4.420968e-01 0 
    0.322997 1.710780e+21 4.089720e-01 0 
    0.325236 2.048201e+21 4.829162e-01 0 
    0.326737 2.263772e+21 5.288499e-01 0 
    0.329002 2.290954e+21 5.278564e-01 0 
    0.331283 2.302548e+21 5.232471e-01 0 
    0.332046 2.233245e+21 5.051686e-01 0 
    0.332812 2.385981e+21 5.372364e-01 0 
    0.333579 2.531621e+21 5.674110e-01 0 
    0.334348 2.323468e+21 5.183649e-01 0 
    0.335119 2.327385e+21 5.168525e-01 0 
    0.335891 2.538618e+21 5.611734e-01 0 
    0.336665 2.271635e+21 4.998494e-01 0 
    0.337441 2.051492e+21 4.493354e-01 0 
    0.338219 2.242884e+21 4.889982e-01 0 
    0.338999 2.550007e+21 5.534024e-01 0 
    0.339781 2.367434e+21 5.114181e-01 0 
    0.340564 2.630361e+21 5.656065e-01 0 
    0.341349 2.551234e+21 5.460714e-01 0 
    0.342136 2.719465e+21 5.794051e-01 0 
    0.342924 2.686708e+21 5.697984e-01 0 
    0.343715 2.722459e+21 5.747260e-01 0 
    0.344507 2.191304e+21 4.604718e-01 0 
    0.345302 2.900285e+21 6.066510e-01 0 
    0.346097 2.655710e+21 5.529444e-01 0 
    0.346895 2.703436e+21 5.602947e-01 0 
    0.347695 2.634245e+21 5.434452e-01 0 
    0.348497 2.801550e+21 5.753032e-01 0 
    0.349300 2.717299e+21 5.554394e-01 0 
    0.350105 2.766197e+21 5.628374e-01 0 
    0.350912 2.908188e+21 5.890098e-01 0 
    0.351721 2.662982e+21 5.368686e-01 0 
    0.352532 2.786834e+21 5.592557e-01 0 
    0.353345 3.110655e+21 6.213701e-01 0 
    0.353545 1.787044e+21 3.565679e-01 1 
    0.353815 4.365471e+21 8.697113e-01 1 
    0.354085 4.568087e+21 9.086900e-01 1 
    0.354355 2.726699e+21 5.415723e-01 1 
    0.354625 3.042676e+21 6.034112e-01 1 
    0.354895 2.119248e+21 4.196416e-01 1 
    0.355165 2.780097e+21 5.496625e-01 1 
    0.355435 1.326012e+21 2.617721e-01 1 
    0.355705 3.294531e+21 6.493967e-01 1 
    0.355976 2.756897e+21 5.425946e-01 1 
    0.356246 3.216399e+21 6.320718e-01 1 
    0.356516 3.453290e+21 6.775969e-01 1 
    0.356786 1.502910e+21 2.944514e-01 1 
    0.357056 3.339943e+21 6.533755e-01 1 
    0.357326 1.326750e+21 2.591531e-01 1 
    0.357596 3.001895e+21 5.854727e-01 1 
    0.357866 3.678460e+21 7.163440e-01 1 
    0.358136 2.481693e+21 4.825569e-01 1 
    0.358407 1.871180e+21 3.632947e-01 1 
    0.358677 2.812361e+21 5.452059e-01 1 
    0.358947 4.841339e+21 9.371331e-01 1 
    0.359217 3.347710e+21 6.470391e-01 1 
    0.359487 3.670560e+21 7.083737e-01 1 
    0.359757 3.069172e+21 5.914242e-01 1 
    0.360027 3.286765e+21 6.324045e-01 1 
    0.360297 3.590933e+21 6.898941e-01 1 
    0.360567 3.148166e+21 6.039239e-01 1 
    0.360837 2.994058e+21 5.735015e-01 1 
    0.361108 4.151888e+21 7.940866e-01 1 
    0.361378 3.478692e+21 6.643378e-01 1 
    0.361648 2.964192e+21 5.652372e-01 1 
    0.361918 3.864974e+21 7.359066e-01 1 
    0.362188 3.321824e+21 6.315461e-01 1 
    0.362458 3.585181e+21 6.806003e-01 1 
    0.362728 2.540021e+21 4.814726e-01 1 
    0.362998 2.516970e+21 4.763937e-01 1 
    0.363268 2.195066e+21 4.148488e-01 1 
    0.363539 2.636435e+21 4.975211e-01 1 
    0.363809 2.702851e+21 5.092976e-01 1 
    0.364079 3.574960e+21 6.726302e-01 1 
    0.364349 3.113493e+21 5.849371e-01 1 
    0.364619 2.782413e+21 5.219628e-01 1 
    0.364889 3.165997e+21 5.930420e-01 1 
    0.365159 3.876780e+21 7.251095e-01 1 
    0.365429 3.371150e+21 6.296055e-01 1 
    0.365699 3.379888e+21 6.303057e-01 1 
    0.365969 2.641101e+21 4.918048e-01 1 
    0.366240 3.830269e+21 7.121873e-01 1 
    0.366510 3.833246e+21 7.116910e-01 1 
    0.366780 3.748872e+21 6.950015e-01 1 
    0.367050 3.484651e+21 6.450676e-01 1 
    0.367320 3.593100e+21 6.641659e-01 1 
    0.367590 3.543919e+21 6.541132e-01 1 
    0.367860 3.434769e+21 6.330366e-01 1 
    0.368130 3.512800e+21 6.464686e-01 1 
    0.368400 3.472996e+21 6.382068e-01 1 
    0.368670 3.520288e+21 6.459503e-01 1 
    0.368941 3.639619e+21 6.668659e-01 1 
    0.369211 3.576471e+21 6.543375e-01 1 
    0.369481 3.828632e+21 6.994487e-01 1 
    0.369751 4.088327e+21 7.458018e-01 1 
    0.370021 4.353189e+21 7.929599e-01 1 
    0.370291 4.184139e+21 7.610554e-01 1 
    0.370561 3.626132e+21 6.585984e-01 1 
    0.370831 3.575408e+21 6.484403e-01 1 
    0.371101 3.828138e+21 6.932658e-01 1 
    0.371372 3.839580e+21 6.943235e-01 1 
    0.371642 3.967183e+21 7.163563e-01 1 
    0.371912 4.602698e+21 8.299052e-01 1 
    0.372182 5.333664e+21 9.603097e-01 1 
    0.372452 6.376458e+21 1.146398e+00 1 
    0.372722 7.734107e+21 1.388470e+00 1 
    0.372992 7.858235e+21 1.408713e+00 1 
    0.373262 5.756033e+21 1.030368e+00 1 
    0.373532 4.619324e+21 8.256942e-01 1 
    0.373802 3.973105e+21 7.091583e-01 1 
    0.374073 3.368995e+21 6.004599e-01 1 
    0.374343 3.561670e+21 6.338853e-01 1 
    0.374613 3.597212e+21 6.392883e-01 1 
    0.374883 3.673043e+21 6.518249e-01 1 
    0.375153 3.444408e+21 6.103714e-01 1 
    0.375423 4.448055e+21 7.870909e-01 1 
    0.375693 4.873501e+21 8.611352e-01 1 
    0.375963 4.381116e+21 7.730205e-01 1 
    0.376233 4.672704e+21 8.232864e-01 1 
    0.376504 3.805890e+21 6.695971e-01 1 
    0.376774 3.985375e+21 7.001705e-01 1 
    0.377044 3.661121e+21 6.422830e-01 1 
    0.377314 3.860562e+21 6.763028e-01 1 
    0.377584 4.033550e+21 7.055970e-01 1 
    0.377854 5.162769e+21 9.018433e-01 1 
    0.378124 4.798299e+21 8.369803e-01 1 
    0.378394 4.822868e+21 8.400659e-01 1 
