# IC 5298        
# 
# An Atlas of Galaxy Spectral Energy Distributions from the Ultraviolet to the Mid-Infrared
# Brown et al. (2014)
# http://dx.doi.org/10.5072/03/529D3551F0117
# http://dx.doi.org/10.17909/t9-5bxk-dh29
# 
# The Spectral Energy Distributions of Active Galactic Nuclei
# Brown et al. (2019)
# http://dx.doi.org/10.17909/t9-3dbt-8734
# 
# Column 1: Observed wavelength (um)
# Column 2: L_nu (W/Hz)
# Column 3: f_lam (erg/s/cm2/A)
# Column 4: Source (0 = model, 1 = Optical Spectrun, 2 = Akari, 3 = Spitzer IRS)
# 
  1.0006e-02 3.142647e+02 7.828366e-17 0 
  1.0192e-02 6.039709e+02 1.450086e-16 0 
  1.0405e-02 1.051466e+03 2.422187e-16 0 
  1.0599e-02 1.842751e+03 4.091037e-16 0 
  1.0796e-02 3.260117e+03 6.975959e-16 0 
  1.0996e-02 6.621331e+03 1.365753e-15 0 
  1.1409e-02 1.771618e+04 3.394465e-15 0 
  1.1810e-02 4.303571e+04 7.695302e-15 0 
  1.2113e-02 2.308792e+05 3.924442e-14 0 
  1.2510e-02 5.045013e+05 8.039780e-14 0 
  1.2713e-02 7.187731e+05 1.109155e-13 0 
  1.2801e-02 8.658232e+05 1.317765e-13 0 
  1.3099e-02 1.425762e+06 2.072369e-13 0 
  1.3190e-02 1.883281e+06 2.699741e-13 0 
  1.3405e-02 2.579965e+06 3.580771e-13 0 
  1.3685e-02 4.625912e+06 6.160332e-13 0 
  1.4004e-02 7.224054e+06 9.186991e-13 0 
  1.4297e-02 2.468028e+07 3.011318e-12 0 
  1.4698e-02 8.646307e+07 9.981841e-12 0 
  1.5110e-02 1.429696e+08 1.561749e-11 0 
  1.5497e-02 2.337254e+08 2.427208e-11 0 
  1.5895e-02 3.785923e+08 3.737207e-11 0 
  1.6190e-02 5.342381e+08 5.083206e-11 0 
  1.6605e-02 8.436615e+08 7.631096e-11 0 
  1.6992e-02 1.281172e+09 1.106662e-10 0 
  1.7308e-02 1.754606e+09 1.460771e-10 0 
  1.7711e-02 2.597836e+09 2.065484e-10 0 
  1.7999e-02 3.453305e+09 2.658487e-10 0 
  1.8208e-02 4.167967e+09 3.135424e-10 0 
  1.8589e-02 5.989759e+09 4.323085e-10 0 
  1.9110e-02 9.282690e+09 6.339411e-10 0 
  1.9420e-02 1.202921e+10 7.954905e-10 0 
  1.9781e-02 1.658564e+10 1.057139e-09 0 
  2.0195e-02 2.286280e+10 1.398100e-09 0 
  2.0523e-02 2.888523e+10 1.710372e-09 0 
  2.1002e-02 4.008414e+10 2.266458e-09 0 
  2.1590e-02 6.399743e+10 3.424157e-09 0 
  2.1991e-02 8.464139e+10 4.365050e-09 0 
  2.2297e-02 1.023735e+11 5.135602e-09 0 
  2.2712e-02 1.341523e+11 6.486101e-09 0 
  2.2975e-02 2.400050e+11 1.133981e-08 0 
  2.3402e-02 4.749243e+11 2.162793e-08 0 
  2.4002e-02 7.993780e+11 3.460619e-08 0 
  2.4618e-02 1.015990e+12 4.181001e-08 0 
  2.5191e-02 1.422548e+12 5.590781e-08 0 
  2.5719e-02 1.500777e+12 5.658540e-08 0 
  2.6017e-02 1.985607e+12 7.316028e-08 0 
  2.6379e-02 2.468232e+12 8.846383e-08 0 
  2.6931e-02 3.051977e+12 1.049477e-07 0 
  2.7369e-02 3.698029e+12 1.231258e-07 0 
  2.7877e-02 4.489846e+12 1.440907e-07 0 
  2.8396e-02 5.438542e+12 1.682150e-07 0 
  2.8990e-02 6.481174e+12 1.923330e-07 0 
  2.9597e-02 8.124086e+12 2.313000e-07 0 
  3.0078e-02 9.421012e+12 2.597144e-07 0 
  3.0779e-02 1.205265e+13 3.172999e-07 0 
  3.1787e-02 1.688996e+13 4.168944e-07 0 
  3.2829e-02 2.275814e+13 5.266449e-07 0 
  3.3826e-02 2.983291e+13 6.502655e-07 0 
  3.4774e-02 3.848612e+13 7.937638e-07 0 
  3.5666e-02 4.830835e+13 9.471305e-07 0 
  3.6581e-02 6.091009e+13 1.135206e-06 0 
  3.7519e-02 7.452722e+13 1.320410e-06 0 
  3.8481e-02 8.931393e+13 1.504260e-06 0 
  3.9469e-02 1.138872e+14 1.823305e-06 0 
  4.0481e-02 1.405981e+14 2.139802e-06 0 
  4.1424e-02 1.661811e+14 2.415317e-06 0 
  4.2194e-02 1.898659e+14 2.659757e-06 0 
  4.2978e-02 2.169197e+14 2.928890e-06 0 
  4.4081e-02 2.640419e+14 3.388960e-06 0 
  4.5108e-02 3.091291e+14 3.789041e-06 0 
  4.6052e-02 3.521490e+14 4.141197e-06 0 
  4.7017e-02 4.076623e+14 4.599252e-06 0 
  4.8001e-02 4.751370e+14 5.142978e-06 0 
  4.9006e-02 5.361886e+14 5.568209e-06 0 
    0.050032 6.248430e+14 6.225463e-06 0 
    0.050612 6.997011e+14 6.812429e-06 0 
    0.051198 1.064212e+15 1.012555e-05 0 
    0.052030 1.198852e+15 1.104471e-05 0 
    0.052997 1.375010e+15 1.220955e-05 0 
    0.053982 1.495621e+15 1.280030e-05 0 
    0.054986 2.015122e+15 1.662239e-05 0 
    0.056008 2.545245e+15 2.023606e-05 0 
    0.057049 3.105609e+15 2.379837e-05 0 
    0.057976 3.332081e+15 2.472382e-05 0 
    0.059054 4.306094e+15 3.079508e-05 0 
    0.060014 4.859636e+15 3.365077e-05 0 
    0.060989 5.971620e+15 4.003922e-05 0 
    0.061980 7.543679e+15 4.897524e-05 0 
    0.062987 8.851352e+15 5.564219e-05 0 
    0.064010 9.827285e+15 5.981834e-05 0 
    0.065051 1.204490e+16 7.098910e-05 0 
    0.065804 1.366578e+16 7.870936e-05 0 
    0.066566 1.536187e+16 8.646406e-05 0 
    0.067492 1.690439e+16 9.255320e-05 0 
    0.068431 1.813521e+16 9.658577e-05 0 
    0.069543 2.493328e+16 1.285787e-04 0 
    0.070510 2.571910e+16 1.290181e-04 0 
    0.071656 3.345286e+16 1.624892e-04 0 
    0.072653 3.757171e+16 1.775212e-04 0 
    0.073494 4.164181e+16 1.922748e-04 0 
    0.074516 5.033780e+16 2.260954e-04 0 
    0.075553 5.770798e+16 2.521325e-04 0 
    0.076428 6.514138e+16 2.781303e-04 0 
    0.077491 7.623213e+16 3.166154e-04 0 
    0.078569 8.798482e+16 3.554690e-04 0 
    0.079479 9.793500e+16 3.866603e-04 0 
    0.080584 1.091813e+17 4.193215e-04 0 
    0.081518 1.201278e+17 4.508507e-04 0 
    0.082461 1.403174e+17 5.146485e-04 0 
    0.083416 1.237529e+17 4.435607e-04 0 
    0.084577 1.673620e+17 5.835107e-04 0 
    0.085556 1.828342e+17 6.229498e-04 0 
    0.086547 2.086569e+17 6.947446e-04 0 
    0.087549 2.370201e+17 7.712218e-04 0 
    0.088563 2.723346e+17 8.659536e-04 0 
    0.089588 3.036762e+17 9.436426e-04 0 
    0.090417 3.206562e+17 9.782186e-04 0 
    0.091464 5.312466e+17 1.583770e-03 0 
    0.092523 3.995085e+18 1.163920e-02 0 
    0.093595 9.413370e+18 2.680009e-02 0 
    0.094461 1.919936e+19 5.366340e-02 0 
    0.095555 2.867153e+19 7.831419e-02 0 
    0.096439 3.435264e+19 9.211942e-02 0 
    0.097555 5.808895e+18 1.522267e-02 0 
    0.098458 3.292667e+19 8.471146e-02 0 
    0.099598 3.627488e+19 9.120133e-02 0 
    0.100520 5.470652e+19 1.350301e-01 0 
    0.101450 5.450687e+19 1.320820e-01 0 
    0.102389 2.375992e+19 5.652425e-02 0 
    0.103574 4.176435e+19 9.709585e-02 0 
    0.104532 8.378323e+19 1.912296e-01 0 
    0.105500 8.580312e+19 1.922625e-01 0 
    0.106476 7.092696e+19 1.560286e-01 0 
    0.107461 8.792205e+19 1.898858e-01 0 
    0.108455 7.267086e+19 1.540840e-01 0 
    0.109459 9.990909e+19 2.079690e-01 0 
    0.110472 9.973306e+19 2.038127e-01 0 
    0.111494 9.978152e+19 2.001906e-01 0 
    0.112526 9.337230e+19 1.839114e-01 0 
    0.113567 1.225688e+20 2.370128e-01 0 
    0.114618 1.154854e+20 2.192389e-01 0 
    0.115412 1.268011e+20 2.374201e-01 0 
    0.116480 1.362105e+20 2.503827e-01 0 
    0.117558 9.846166e+19 1.776885e-01 0 
    0.118373 1.408704e+20 2.507327e-01 0 
    0.119468 1.004316e+20 1.754946e-01 0 
    0.120573 7.462246e+19 1.280165e-01 0 
    0.121409 4.901818e+19 8.293768e-02 0 
    0.122532 1.074779e+20 1.785322e-01 0 
    0.123382 1.693478e+20 2.774421e-01 0 
    0.124523 1.935030e+20 3.112326e-01 0 
    0.125387 1.905974e+20 3.023489e-01 0 
    0.126547 1.690426e+20 2.632625e-01 0 
    0.127424 2.245826e+20 3.449611e-01 0 
    0.128603 2.433387e+20 3.669487e-01 0 
    0.129494 1.983995e+20 2.950786e-01 0 
    0.130392 2.017815e+20 2.959893e-01 0 
    0.131599 2.592033e+20 3.732774e-01 0 
    0.132511 2.552368e+20 3.625232e-01 0 
    0.133429 2.329227e+20 3.262930e-01 0 
    0.134354 2.834512e+20 3.916279e-01 0 
    0.135597 2.832288e+20 3.841791e-01 0 
    0.136537 2.602276e+20 3.481362e-01 0 
    0.137484 2.802679e+20 3.697988e-01 0 
    0.138437 2.909042e+20 3.785664e-01 0 
    0.139396 2.611742e+20 3.352171e-01 0 
    0.140362 2.786620e+20 3.527566e-01 0 
    0.141661 2.921346e+20 3.630603e-01 0 
    0.142643 3.073917e+20 3.767798e-01 0 
    0.143632 3.124551e+20 3.777302e-01 0 
    0.144295 3.353451e+20 4.016852e-01 0 
    0.144628 3.442364e+20 4.104389e-01 0 
    0.145630 3.419018e+20 4.020649e-01 0 
    0.146640 3.235429e+20 3.752524e-01 0 
    0.147656 3.303286e+20 3.778682e-01 0 
    0.148338 3.424528e+20 3.881435e-01 0 
    0.149366 3.561016e+20 3.980767e-01 0 
    0.150401 3.455647e+20 3.809994e-01 0 
    0.151095 3.127291e+20 3.416368e-01 0 
    0.151793 3.386697e+20 3.665804e-01 0 
    0.152493 3.344889e+20 3.587387e-01 0 
    0.153550 2.987257e+20 3.159872e-01 0 
    0.154615 3.366232e+20 3.511861e-01 0 
    0.155329 3.233805e+20 3.342760e-01 0 
    0.156405 3.361497e+20 3.427109e-01 0 
    0.157489 3.658885e+20 3.679127e-01 0 
    0.158581 3.909621e+20 3.877295e-01 0 
    0.159680 4.082089e+20 3.992802e-01 0 
    0.160417 4.068044e+20 3.942587e-01 0 
    0.161529 4.169725e+20 3.985684e-01 0 
    0.162649 4.025376e+20 3.794898e-01 0 
    0.163400 4.347510e+20 4.060999e-01 0 
    0.164532 4.507129e+20 4.152366e-01 0 
    0.165673 4.241710e+20 3.854198e-01 0 
    0.166438 4.719945e+20 4.249408e-01 0 
    0.167206 4.278869e+20 3.816996e-01 0 
    0.167591 4.825275e+20 4.284668e-01 0 
    0.168365 5.103911e+20 4.490513e-01 0 
    0.169532 4.891427e+20 4.244521e-01 0 
    0.170314 4.772896e+20 4.103720e-01 0 
    0.171495 4.616165e+20 3.914487e-01 0 
    0.172684 4.674679e+20 3.909706e-01 0 
    0.173481 5.058658e+20 4.192064e-01 0 
    0.174683 5.028736e+20 4.110115e-01 0 
    0.175490 5.441571e+20 4.406725e-01 0 
    0.176299 5.057936e+20 4.058542e-01 0 
    0.177522 5.288424e+20 4.185220e-01 0 
    0.178341 5.451803e+20 4.274981e-01 0 
    0.179577 5.899841e+20 4.562841e-01 0 
    0.180406 5.943260e+20 4.554274e-01 0 
    0.181657 5.588151e+20 4.223381e-01 0 
    0.182495 5.786426e+20 4.333162e-01 0 
    0.183337 5.643418e+20 4.187342e-01 0 
    0.184608 5.281075e+20 3.864717e-01 0 
    0.185460 5.367908e+20 3.892252e-01 0 
    0.186316 5.609144e+20 4.029885e-01 0 
    0.187608 6.151573e+20 4.358930e-01 0 
    0.188474 5.754700e+20 4.040325e-01 0 
    0.189344 5.585419e+20 3.885520e-01 0 
    0.190656 6.012450e+20 4.125219e-01 0 
    0.191536 5.875587e+20 3.994357e-01 0 
    0.192420 5.834637e+20 3.930157e-01 0 
    0.193309 6.066969e+20 4.049152e-01 0 
    0.194649 6.439835e+20 4.239033e-01 0 
    0.195547 6.106389e+20 3.982709e-01 0 
    0.196902 6.770517e+20 4.355299e-01 0 
    0.197811 7.038548e+20 4.486200e-01 0 
    0.198267 6.705097e+20 4.254031e-01 0 
    0.199642 6.624720e+20 4.145340e-01 0 
    0.200563 6.886104e+20 4.269415e-01 0 
    0.201489 6.741742e+20 4.141578e-01 0 
    0.202419 7.121213e+20 4.334589e-01 0 
    0.203353 6.843928e+20 4.127630e-01 0 
    0.204292 7.178696e+20 4.289822e-01 0 
    0.205708 6.976274e+20 4.111663e-01 0 
    0.206657 7.084612e+20 4.137255e-01 0 
    0.207611 7.620492e+20 4.409392e-01 0 
    0.208570 7.614196e+20 4.365328e-01 0 
    0.209532 7.282131e+20 4.136701e-01 0 
    0.210500 7.428047e+20 4.180872e-01 0 
    0.211471 7.576251e+20 4.225218e-01 0 
    0.212447 7.762780e+20 4.289558e-01 0 
    0.213428 7.320985e+20 4.008327e-01 0 
    0.214413 7.552409e+20 4.097130e-01 0 
    0.215403 7.917529e+20 4.255814e-01 0 
    0.216397 7.745837e+20 4.125364e-01 0 
    0.217396 7.753890e+20 4.091787e-01 0 
    0.218399 7.708221e+20 4.030411e-01 0 
    0.219407 8.135070e+20 4.214604e-01 0 
    0.220420 7.993449e+20 4.103257e-01 0 
    0.221438 7.710845e+20 3.921879e-01 0 
    0.222460 7.523831e+20 3.791679e-01 0 
    0.223486 8.104850e+20 4.047070e-01 0 
    0.224518 7.835011e+20 3.876446e-01 0 
    0.225554 7.621898e+20 3.736444e-01 0 
    0.226595 7.900031e+20 3.837290e-01 0 
    0.227641 8.245137e+20 3.968199e-01 0 
    0.228692 8.565971e+20 4.084803e-01 0 
    0.229748 8.248061e+20 3.897130e-01 0 
    0.230277 8.349159e+20 3.926794e-01 0 
    0.231340 8.132315e+20 3.789738e-01 0 
    0.232408 6.634433e+20 3.063360e-01 0 
    0.233481 7.877552e+20 3.603998e-01 0 
    0.234558 7.744099e+20 3.510483e-01 0 
    0.235641 8.463670e+20 3.801487e-01 0 
    0.236729 7.964378e+20 3.544422e-01 0 
    0.237275 8.268866e+20 3.663013e-01 0 
    0.238370 7.835266e+20 3.439117e-01 0 
    0.239470 8.465386e+20 3.681637e-01 0 
    0.240575 8.264895e+20 3.561499e-01 0 
    0.241686 8.567375e+20 3.657979e-01 0 
    0.242243 9.102182e+20 3.868473e-01 0 
    0.243361 8.886869e+20 3.742340e-01 0 
    0.244484 9.514070e+20 3.969738e-01 0 
    0.245613 9.505327e+20 3.929713e-01 0 
    0.246747 9.606950e+20 3.935303e-01 0 
    0.247315 9.351848e+20 3.813230e-01 0 
    0.248457 9.761345e+20 3.943698e-01 0 
    0.249604 9.378277e+20 3.754191e-01 0 
    0.250756 1.048933e+21 4.160460e-01 0 
    0.251334 9.573236e+20 3.779660e-01 0 
    0.251913 9.871121e+20 3.879375e-01 0 
    0.252494 9.543136e+20 3.733236e-01 0 
    0.253659 9.779332e+20 3.790575e-01 0 
    0.254244 9.719011e+20 3.749878e-01 0 
    0.255418 1.050182e+21 4.014744e-01 0 
    0.256597 1.044464e+21 3.956278e-01 0 
    0.257781 1.115648e+21 4.187182e-01 0 
    0.258375 1.116459e+21 4.170983e-01 0 
    0.259568 1.120705e+21 4.148445e-01 0 
    0.260766 1.099313e+21 4.031956e-01 0 
    0.261367 1.095074e+21 3.997959e-01 0 
    0.262574 1.156357e+21 4.182974e-01 0 
    0.263786 1.201547e+21 4.306591e-01 0 
    0.264394 1.300386e+21 4.639439e-01 0 
    0.265614 1.338806e+21 4.732736e-01 0 
    0.266226 1.244634e+21 4.379626e-01 0 
    0.267455 1.314305e+21 4.582382e-01 0 
    0.268690 1.331574e+21 4.600008e-01 0 
    0.269309 1.287327e+21 4.426737e-01 0 
    0.270552 1.334618e+21 4.547284e-01 0 
    0.271801 1.297216e+21 4.379319e-01 0 
    0.272428 1.307243e+21 4.392878e-01 0 
    0.273685 1.383642e+21 4.607001e-01 0 
    0.274316 1.236944e+21 4.099625e-01 0 
    0.275582 1.276539e+21 4.192072e-01 0 
    0.276218 1.331590e+21 4.352745e-01 0 
    0.277492 1.406175e+21 4.554438e-01 0 
    0.278773 1.363712e+21 4.376407e-01 0 
    0.279416 1.135176e+21 3.626246e-01 0 
    0.280706 1.229540e+21 3.891666e-01 0 
    0.281353 1.462481e+21 4.607692e-01 0 
    0.282651 1.537339e+21 4.799157e-01 0 
    0.283303 1.496645e+21 4.650642e-01 0 
    0.284611 1.485279e+21 4.572998e-01 0 
    0.285267 1.452617e+21 4.451892e-01 0 
    0.286584 1.588009e+21 4.822203e-01 0 
    0.287244 1.596591e+21 4.826009e-01 0 
    0.288570 1.617665e+21 4.844877e-01 0 
    0.289235 1.622745e+21 4.837768e-01 0 
    0.291240 1.771362e+21 5.208368e-01 0 
    0.293259 1.751298e+21 5.078716e-01 0 
    0.295292 1.763725e+21 5.044567e-01 0 
    0.297338 1.830201e+21 5.162909e-01 0 
    0.298711 1.858743e+21 5.195332e-01 0 
    0.300782 1.920018e+21 5.292952e-01 0 
    0.302866 1.960614e+21 5.330741e-01 0 
    0.304966 2.002127e+21 5.368899e-01 0 
    0.307080 2.049228e+21 5.419804e-01 0 
    0.309208 2.102331e+21 5.483982e-01 0 
    0.311352 2.141971e+21 5.510700e-01 0 
    0.312789 2.150592e+21 5.482157e-01 0 
    0.314957 2.206380e+21 5.547204e-01 0 
    0.317140 2.258448e+21 5.600213e-01 0 
    0.319338 2.207744e+21 5.399381e-01 0 
    0.320812 2.305225e+21 5.586098e-01 0 
    0.323036 2.274381e+21 5.435728e-01 0 
    0.325275 2.426700e+21 5.720199e-01 0 
    0.326777 2.528078e+21 5.904512e-01 0 
    0.329042 2.570104e+21 5.920310e-01 0 
    0.331323 2.618902e+21 5.949940e-01 0 
    0.332086 2.651649e+21 5.996686e-01 0 
    0.332852 2.709603e+21 6.099579e-01 0 
    0.333619 2.768866e+21 6.204359e-01 0 
    0.334388 2.646653e+21 5.903264e-01 0 
    0.335159 2.723307e+21 6.046322e-01 0 
    0.335932 2.732020e+21 6.037784e-01 0 
    0.336706 2.721989e+21 5.987991e-01 0 
    0.337482 2.572090e+21 5.632243e-01 0 
    0.338260 2.652608e+21 5.781869e-01 0 
    0.339040 2.838429e+21 6.158466e-01 0 
    0.339822 2.867330e+21 6.192572e-01 0 
    0.340605 2.798211e+21 6.015544e-01 0 
    0.341390 2.833221e+21 6.062830e-01 0 
    0.342177 2.955800e+21 6.296075e-01 0 
    0.342966 2.931462e+21 6.215536e-01 0 
    0.343757 2.981829e+21 6.293266e-01 0 
    0.344549 2.747161e+21 5.771365e-01 0 
    0.345343 3.071074e+21 6.422224e-01 0 
    0.346140 2.862203e+21 5.957901e-01 0 
    0.346937 2.937241e+21 6.086039e-01 0 
    0.347737 2.857233e+21 5.893051e-01 0 
    0.348539 2.964550e+21 6.086288e-01 0 
    0.349342 2.957849e+21 6.044646e-01 0 
    0.350148 3.005939e+21 6.114673e-01 0 
    0.350955 3.006081e+21 6.086872e-01 0 
    0.351764 2.944462e+21 5.934713e-01 0 
    0.352575 3.040999e+21 6.101123e-01 0 
    0.353387 3.177091e+21 6.344902e-01 0 
    0.354202 3.266186e+21 6.492849e-01 0 
    0.355019 3.304162e+21 6.538146e-01 0 
    0.355837 3.243943e+21 6.389507e-01 0 
    0.356657 3.334867e+21 6.538429e-01 0 
    0.357041 2.868135e+21 5.611254e-01 1 
    0.357309 2.753170e+21 5.378257e-01 1 
    0.357577 2.371857e+21 4.626428e-01 1 
    0.357844 2.509826e+21 4.888241e-01 1 
    0.358112 3.474674e+21 6.757293e-01 1 
    0.358380 3.092554e+21 6.005182e-01 1 
    0.358647 2.926885e+21 5.675023e-01 1 
    0.358915 2.792566e+21 5.406505e-01 1 
    0.359183 2.701241e+21 5.221897e-01 1 
    0.359450 2.710775e+21 5.232544e-01 1 
    0.359718 3.419928e+21 6.591573e-01 1 
    0.359985 3.129416e+21 6.022695e-01 1 
    0.360253 3.176571e+21 6.104355e-01 1 
    0.360521 3.549492e+21 6.810853e-01 1 
    0.360788 2.845592e+21 5.452115e-01 1 
    0.361056 2.738999e+21 5.240095e-01 1 
    0.361324 3.488088e+21 6.663313e-01 1 
    0.361591 3.616574e+21 6.898562e-01 1 
    0.361859 3.001498e+21 5.716835e-01 1 
    0.362127 2.607613e+21 4.959271e-01 1 
    0.362394 3.149714e+21 5.981438e-01 1 
    0.362662 3.134825e+21 5.944367e-01 1 
    0.362930 3.103411e+21 5.876110e-01 1 
    0.363197 3.229001e+21 6.104923e-01 1 
    0.363465 3.386732e+21 6.393697e-01 1 
    0.363733 3.549664e+21 6.691420e-01 1 
    0.364000 3.488322e+21 6.566141e-01 1 
    0.364268 2.971653e+21 5.585377e-01 1 
    0.364536 3.520571e+21 6.607370e-01 1 
    0.364803 3.611635e+21 6.768360e-01 1 
    0.365071 3.509919e+21 6.568086e-01 1 
    0.365339 3.603681e+21 6.733653e-01 1 
    0.365606 3.344156e+21 6.239594e-01 1 
    0.365874 3.288854e+21 6.127425e-01 1 
    0.366142 3.836336e+21 7.136973e-01 1 
    0.366409 3.803026e+21 7.064696e-01 1 
    0.366677 3.926875e+21 7.284104e-01 1 
    0.366945 4.211515e+21 7.800687e-01 1 
    0.367212 4.184543e+21 7.739461e-01 1 
    0.367480 3.251835e+21 6.005616e-01 1 
    0.367748 3.098841e+21 5.714723e-01 1 
    0.368015 3.427253e+21 6.311195e-01 1 
    0.368283 4.141596e+21 7.615541e-01 1 
    0.368551 3.772660e+21 6.927059e-01 1 
    0.368818 3.341542e+21 6.126596e-01 1 
    0.369086 3.424002e+21 6.268668e-01 1 
    0.369354 3.333349e+21 6.093848e-01 1 
    0.369621 3.714249e+21 6.780383e-01 1 
    0.369889 3.878362e+21 7.069715e-01 1 
    0.370157 4.019350e+21 7.316112e-01 1 
    0.370424 4.353857e+21 7.913569e-01 1 
    0.370692 4.129920e+21 7.495690e-01 1 
    0.370960 3.910337e+21 7.086902e-01 1 
    0.371227 3.275914e+21 5.928568e-01 1 
    0.371495 3.167733e+21 5.724519e-01 1 
    0.371763 3.785463e+21 6.830982e-01 1 
    0.372030 4.978419e+21 8.970816e-01 1 
    0.372298 4.978590e+21 8.958213e-01 1 
    0.372566 6.456018e+21 1.159991e+00 1 
    0.372833 7.716625e+21 1.384507e+00 1 
    0.373101 8.236561e+21 1.475671e+00 1 
    0.373368 7.362808e+21 1.317243e+00 1 
    0.373636 5.938007e+21 1.060815e+00 1 
    0.373904 4.129598e+21 7.366887e-01 1 
    0.374171 4.291268e+21 7.644372e-01 1 
    0.374439 4.577367e+21 8.142356e-01 1 
    0.374707 3.861878e+21 6.859799e-01 1 
    0.374974 3.824586e+21 6.783886e-01 1 
    0.375242 3.550546e+21 6.288813e-01 1 
    0.375510 3.224080e+21 5.702421e-01 1 
    0.375777 3.919055e+21 6.921775e-01 1 
    0.376045 4.169341e+21 7.353334e-01 1 
    0.376313 4.836259e+21 8.517411e-01 1 
    0.376580 4.081423e+21 7.177836e-01 1 
    0.376848 4.325886e+21 7.596947e-01 1 
    0.377116 4.278923e+21 7.503795e-01 1 
    0.377383 4.190446e+21 7.338241e-01 1 
    0.377651 4.723730e+21 8.260384e-01 1 
    0.377919 5.670555e+21 9.902038e-01 1 
    0.378186 5.271900e+21 9.192904e-01 1 
    0.378454 5.538535e+21 9.644176e-01 1 
    0.378722 5.532055e+21 9.619265e-01 1 
    0.378989 5.225046e+21 9.072634e-01 1 
    0.379257 4.892069e+21 8.482459e-01 1 
    0.379525 4.575421e+21 7.922216e-01 1 
    0.379792 3.843425e+21 6.645433e-01 1 
    0.380060 4.092237e+21 7.065662e-01 1 
    0.380328 3.761477e+21 6.485423e-01 1 
    0.380595 4.151127e+21 7.147206e-01 1 
