# III Zw 035     
# 
# An Atlas of Galaxy Spectral Energy Distributions from the Ultraviolet to the Mid-Infrared
# Brown et al. (2014)
# http://dx.doi.org/10.5072/03/529D3551F0117
# http://dx.doi.org/10.17909/t9-5bxk-dh29
# 
# The Spectral Energy Distributions of Active Galactic Nuclei
# Brown et al. (2019)
# http://dx.doi.org/10.17909/t9-3dbt-8734
# 
# Column 1: Observed wavelength (um)
# Column 2: L_nu (W/Hz)
# Column 3: f_lam (erg/s/cm2/A)
# Column 4: Source (0 = model, 1 = Optical Spectrun, 2 = Akari, 3 = Spitzer IRS)
# 
  1.0006e-02 1.519791e+09 3.785815e-10 0 
  1.0192e-02 2.310394e+09 5.547070e-10 0 
  1.0405e-02 3.211073e+09 7.397116e-10 0 
  1.0599e-02 4.534227e+09 1.006630e-09 0 
  1.0796e-02 6.493269e+09 1.389422e-09 0 
  1.0996e-02 1.067441e+10 2.201765e-09 0 
  1.1409e-02 1.937113e+10 3.711558e-09 0 
  1.1810e-02 3.265733e+10 5.839522e-09 0 
  1.2113e-02 1.336019e+11 2.270941e-08 0 
  1.2510e-02 2.087655e+11 3.326906e-08 0 
  1.2713e-02 2.538492e+11 3.917204e-08 0 
  1.2801e-02 2.828052e+11 4.304236e-08 0 
  1.3099e-02 3.701671e+11 5.380442e-08 0 
  1.3190e-02 4.553371e+11 6.527395e-08 0 
  1.3404e-02 5.397914e+11 7.492964e-08 0 
  1.3685e-02 7.835557e+11 1.043462e-07 0 
  1.4004e-02 9.975958e+11 1.268665e-07 0 
  1.4297e-02 2.889374e+12 3.525416e-07 0 
  1.4698e-02 7.991771e+12 9.226204e-07 0 
  1.5109e-02 1.031455e+13 1.126874e-06 0 
  1.5497e-02 1.334380e+13 1.385737e-06 0 
  1.5894e-02 1.718322e+13 1.696425e-06 0 
  1.6190e-02 2.055614e+13 1.955890e-06 0 
  1.6605e-02 2.634837e+13 2.383266e-06 0 
  1.6992e-02 3.277597e+13 2.831151e-06 0 
  1.7308e-02 3.876513e+13 3.227334e-06 0 
  1.7711e-02 4.766918e+13 3.790076e-06 0 
  1.7999e-02 5.547711e+13 4.270842e-06 0 
  1.8207e-02 6.137856e+13 4.617812e-06 0 
  1.8589e-02 7.427649e+13 5.360876e-06 0 
  1.9109e-02 9.388748e+13 6.412513e-06 0 
  1.9420e-02 1.082594e+14 7.159183e-06 0 
  1.9781e-02 1.280250e+14 8.160086e-06 0 
  2.0195e-02 1.524327e+14 9.321525e-06 0 
  2.0523e-02 1.729501e+14 1.024084e-05 0 
  2.1001e-02 2.016956e+14 1.140547e-05 0 
  2.1590e-02 2.645043e+14 1.415220e-05 0 
  2.1991e-02 3.077795e+14 1.587253e-05 0 
  2.2297e-02 3.389290e+14 1.700248e-05 0 
  2.2711e-02 3.943839e+14 1.906967e-05 0 
  2.2974e-02 6.409278e+14 3.028533e-05 0 
  2.3402e-02 1.192907e+15 5.432469e-05 0 
  2.4002e-02 1.687747e+15 7.306492e-05 0 
  2.4618e-02 1.836677e+15 7.558295e-05 0 
  2.5191e-02 2.201705e+15 8.652963e-05 0 
  2.5718e-02 2.058347e+15 7.761411e-05 0 
  2.6016e-02 2.519871e+15 9.285251e-05 0 
  2.6378e-02 2.845872e+15 1.020065e-04 0 
  2.6931e-02 3.140092e+15 1.079777e-04 0 
  2.7431e-02 3.433412e+15 1.137992e-04 0 
  2.7877e-02 3.728361e+15 1.196527e-04 0 
  2.8395e-02 4.066889e+15 1.257984e-04 0 
  2.8990e-02 4.285390e+15 1.271717e-04 0 
  2.9597e-02 4.805242e+15 1.368095e-04 0 
  3.0078e-02 5.110834e+15 1.408933e-04 0 
  3.0778e-02 5.743111e+15 1.512038e-04 0 
  3.1787e-02 6.755862e+15 1.667547e-04 0 
  3.2828e-02 7.730446e+15 1.789008e-04 0 
  3.3826e-02 8.704660e+15 1.897348e-04 0 
  3.4773e-02 9.689095e+15 1.998459e-04 0 
  3.5665e-02 1.071205e+16 2.100316e-04 0 
  3.6580e-02 1.184282e+16 2.207314e-04 0 
  3.7518e-02 1.294208e+16 2.293091e-04 0 
  3.8481e-02 1.372629e+16 2.311835e-04 0 
  3.9468e-02 1.542053e+16 2.468911e-04 0 
  4.0480e-02 1.688958e+16 2.570599e-04 0 
  4.1423e-02 1.816241e+16 2.639896e-04 0 
  4.2193e-02 1.913367e+16 2.680489e-04 0 
  4.2978e-02 2.015761e+16 2.721717e-04 0 
  4.4080e-02 2.192465e+16 2.814142e-04 0 
  4.5107e-02 2.330495e+16 2.856648e-04 0 
  4.6052e-02 2.460335e+16 2.893302e-04 0 
  4.7016e-02 2.603388e+16 2.937270e-04 0 
  4.8000e-02 2.773703e+16 3.002437e-04 0 
  4.9006e-02 2.894683e+16 3.006069e-04 0 
    0.050032 3.083924e+16 3.072588e-04 0 
    0.050611 3.168392e+16 3.084932e-04 0 
    0.051197 3.455862e+16 3.288242e-04 0 
    0.052029 3.598766e+16 3.315578e-04 0 
    0.052996 3.747133e+16 3.327434e-04 0 
    0.053982 3.839285e+16 3.285859e-04 0 
    0.054985 4.080974e+16 3.366448e-04 0 
    0.056007 4.398179e+16 3.496912e-04 0 
    0.057049 4.696640e+16 3.599048e-04 0 
    0.057976 4.812170e+16 3.570598e-04 0 
    0.059053 5.150356e+16 3.683407e-04 0 
    0.060013 5.276741e+16 3.654025e-04 0 
    0.060988 5.151117e+16 3.453895e-04 0 
    0.061979 6.031717e+16 3.916051e-04 0 
    0.062986 6.279816e+16 3.947802e-04 0 
    0.064010 6.568588e+16 3.998277e-04 0 
    0.065050 6.949621e+16 4.096028e-04 0 
    0.065803 7.171542e+16 4.130642e-04 0 
    0.066565 7.537748e+16 4.242738e-04 0 
    0.067491 7.794914e+16 4.267918e-04 0 
    0.068430 7.858599e+16 4.185511e-04 0 
    0.069542 8.867985e+16 4.573272e-04 0 
    0.070509 8.817802e+16 4.423516e-04 0 
    0.071655 9.903979e+16 4.810754e-04 0 
    0.072652 1.033558e+17 4.883555e-04 0 
    0.073493 1.073786e+17 4.958179e-04 0 
    0.074515 1.157276e+17 5.198116e-04 0 
    0.075552 1.221631e+17 5.337580e-04 0 
    0.076427 1.234571e+17 5.271314e-04 0 
    0.077490 1.377224e+17 5.720181e-04 0 
    0.078568 1.457115e+17 5.887067e-04 0 
    0.079478 1.534776e+17 6.059649e-04 0 
    0.080583 1.623712e+17 6.236178e-04 0 
    0.081516 1.694588e+17 6.360261e-04 0 
    0.082460 1.834873e+17 6.730010e-04 0 
    0.083415 1.652512e+17 5.923148e-04 0 
    0.084576 1.993355e+17 6.950034e-04 0 
    0.085555 2.080202e+17 7.087797e-04 0 
    0.086546 2.236819e+17 7.447889e-04 0 
    0.087548 2.405180e+17 7.826211e-04 0 
    0.088562 2.610061e+17 8.299507e-04 0 
    0.089587 2.780678e+17 8.640864e-04 0 
    0.090416 2.849392e+17 8.692770e-04 0 
    0.091463 4.209576e+17 1.255001e-03 0 
    0.092522 2.481568e+18 7.229907e-03 0 
    0.093593 5.549063e+18 1.579899e-02 0 
    0.094459 1.085885e+19 3.035243e-02 0 
    0.095553 1.585811e+19 4.331709e-02 0 
    0.096437 1.852758e+19 4.968530e-02 0 
    0.097554 3.223140e+18 8.446669e-03 0 
    0.098457 1.705453e+19 4.387761e-02 0 
    0.099597 1.850422e+19 4.652376e-02 0 
    0.100518 2.734149e+19 6.748868e-02 0 
    0.101448 2.656885e+19 6.438462e-02 0 
    0.102387 1.142648e+19 2.718438e-02 0 
    0.103573 1.960335e+19 4.557573e-02 0 
    0.104531 3.880287e+19 8.856661e-02 0 
    0.105498 3.929976e+19 8.806390e-02 0 
    0.106474 3.205615e+19 7.052135e-02 0 
    0.107460 3.903209e+19 8.429942e-02 0 
    0.108454 3.169095e+19 6.719555e-02 0 
    0.109457 4.279991e+19 8.909478e-02 0 
    0.110470 4.455983e+19 9.106497e-02 0 
    0.111492 4.533545e+19 9.095926e-02 0 
    0.112524 4.304552e+19 8.478793e-02 0 
    0.113565 5.450260e+19 1.053961e-01 0 
    0.114616 5.045484e+19 9.578748e-02 0 
    0.115410 5.527202e+19 1.034939e-01 0 
    0.116478 5.874584e+19 1.079905e-01 0 
    0.117556 4.319579e+19 7.795577e-02 0 
    0.118371 5.649950e+19 1.005658e-01 0 
    0.119466 3.677056e+19 6.425517e-02 0 
    0.120572 2.734945e+19 4.691937e-02 0 
    0.121407 1.768208e+19 2.991868e-02 0 
    0.122531 3.784237e+19 6.286121e-02 0 
    0.123380 6.188100e+19 1.013828e-01 0 
    0.124522 7.533348e+19 1.211692e-01 0 
    0.125385 7.648200e+19 1.213290e-01 0 
    0.126545 6.367758e+19 9.917291e-02 0 
    0.127422 9.584269e+19 1.472199e-01 0 
    0.128601 1.083787e+20 1.634375e-01 0 
    0.129493 9.130884e+19 1.358053e-01 0 
    0.130390 8.434726e+19 1.237311e-01 0 
    0.131597 1.141426e+20 1.643812e-01 0 
    0.132509 1.158750e+20 1.645869e-01 0 
    0.133427 1.036401e+20 1.451900e-01 0 
    0.134352 1.297458e+20 1.792674e-01 0 
    0.135596 1.277800e+20 1.733268e-01 0 
    0.136535 1.156101e+20 1.546694e-01 0 
    0.137482 1.280950e+20 1.690196e-01 0 
    0.138435 1.321433e+20 1.719688e-01 0 
    0.139394 1.257622e+20 1.614204e-01 0 
    0.140361 1.303407e+20 1.649999e-01 0 
    0.141659 1.310412e+20 1.628606e-01 0 
    0.142641 1.399380e+20 1.715313e-01 0 
    0.143630 1.372209e+20 1.658923e-01 0 
    0.144293 1.496570e+20 1.792681e-01 0 
    0.144626 1.577351e+20 1.880754e-01 0 
    0.145628 1.557530e+20 1.831652e-01 0 
    0.146638 1.451803e+20 1.683880e-01 0 
    0.147654 1.450047e+20 1.658777e-01 0 
    0.148336 1.531240e+20 1.735588e-01 0 
    0.149364 1.620051e+20 1.811061e-01 0 
    0.150399 1.599520e+20 1.763584e-01 0 
    0.151093 1.444300e+20 1.577847e-01 0 
    0.151791 1.582367e+20 1.712820e-01 0 
    0.152491 1.475493e+20 1.582505e-01 0 
    0.153548 1.313409e+20 1.389339e-01 0 
    0.154613 1.577197e+20 1.645471e-01 0 
    0.155326 1.470617e+20 1.520224e-01 0 
    0.156403 1.468734e+20 1.497440e-01 0 
    0.157487 1.608411e+20 1.617350e-01 0 
    0.158579 1.745194e+20 1.730808e-01 0 
    0.159678 1.846324e+20 1.805986e-01 0 
    0.160415 1.790220e+20 1.735053e-01 0 
    0.161527 1.821164e+20 1.740825e-01 0 
    0.162647 1.721053e+20 1.622552e-01 0 
    0.163397 1.855197e+20 1.732999e-01 0 
    0.164530 1.935662e+20 1.783346e-01 0 
    0.165670 1.758923e+20 1.598290e-01 0 
    0.166435 1.999200e+20 1.799962e-01 0 
    0.167203 1.669055e+20 1.488946e-01 0 
    0.167589 2.019588e+20 1.793363e-01 0 
    0.168362 2.187035e+20 1.924261e-01 0 
    0.169529 2.071377e+20 1.797495e-01 0 
    0.170312 2.003743e+20 1.722852e-01 0 
    0.171493 1.964482e+20 1.665910e-01 0 
    0.172681 1.979828e+20 1.655903e-01 0 
    0.173478 2.143996e+20 1.776772e-01 0 
    0.174681 2.140912e+20 1.749862e-01 0 
    0.175487 2.345215e+20 1.899281e-01 0 
    0.176297 2.112335e+20 1.694999e-01 0 
    0.177519 2.281103e+20 1.805310e-01 0 
    0.178339 2.326681e+20 1.824487e-01 0 
    0.179575 2.553133e+20 1.974596e-01 0 
    0.180404 2.527328e+20 1.936715e-01 0 
    0.181654 2.449044e+20 1.850985e-01 0 
    0.182493 2.469310e+20 1.849182e-01 0 
    0.183335 2.410635e+20 1.788698e-01 0 
    0.184606 2.261961e+20 1.655351e-01 0 
    0.185458 2.355154e+20 1.707751e-01 0 
    0.186314 2.441117e+20 1.753857e-01 0 
    0.187605 2.629772e+20 1.863484e-01 0 
    0.188471 2.526295e+20 1.773746e-01 0 
    0.189341 2.512009e+20 1.747545e-01 0 
    0.190654 2.596130e+20 1.781275e-01 0 
    0.191534 2.611497e+20 1.775392e-01 0 
    0.192418 2.620784e+20 1.765372e-01 0 
    0.193306 2.660463e+20 1.775673e-01 0 
    0.194646 2.839591e+20 1.869224e-01 0 
    0.195544 2.752911e+20 1.795559e-01 0 
    0.196900 3.006615e+20 1.934118e-01 0 
    0.197809 3.073185e+20 1.958813e-01 0 
    0.198265 2.974049e+20 1.886916e-01 0 
    0.199639 2.928384e+20 1.832457e-01 0 
    0.200560 3.000182e+20 1.860182e-01 0 
    0.201486 2.935486e+20 1.803378e-01 0 
    0.202416 3.056195e+20 1.860321e-01 0 
    0.203350 3.031703e+20 1.828499e-01 0 
    0.204289 3.178203e+20 1.899276e-01 0 
    0.205705 3.016188e+20 1.777727e-01 0 
    0.206655 3.068747e+20 1.792114e-01 0 
    0.207609 3.345377e+20 1.935749e-01 0 
    0.208567 3.419416e+20 1.960457e-01 0 
    0.209529 3.306876e+20 1.878564e-01 0 
    0.210497 3.318229e+20 1.867717e-01 0 
    0.211468 3.383855e+20 1.887204e-01 0 
    0.212444 3.466561e+20 1.915607e-01 0 
    0.213425 3.208998e+20 1.757014e-01 0 
    0.214410 3.426579e+20 1.858947e-01 0 
    0.215400 3.550650e+20 1.908591e-01 0 
    0.216394 3.441847e+20 1.833148e-01 0 
    0.217393 3.461468e+20 1.826694e-01 0 
    0.218396 3.489299e+20 1.824506e-01 0 
    0.219404 3.699806e+20 1.916842e-01 0 
    0.220417 3.619639e+20 1.858111e-01 0 
    0.221435 3.452209e+20 1.755905e-01 0 
    0.222457 3.424259e+20 1.725722e-01 0 
    0.223483 3.732606e+20 1.863887e-01 0 
    0.224515 3.568060e+20 1.765379e-01 0 
    0.225551 3.468125e+20 1.700206e-01 0 
    0.226592 3.578460e+20 1.738215e-01 0 
    0.227638 3.743562e+20 1.801739e-01 0 
    0.228689 3.916271e+20 1.867578e-01 0 
    0.229745 3.762345e+20 1.777719e-01 0 
    0.230274 3.791082e+20 1.783076e-01 0 
    0.231337 3.692802e+20 1.720926e-01 0 
    0.232405 3.111352e+20 1.436662e-01 0 
    0.233478 3.561141e+20 1.629272e-01 0 
    0.234555 3.437045e+20 1.558089e-01 0 
    0.235638 3.835056e+20 1.722573e-01 0 
    0.236726 3.535137e+20 1.573297e-01 0 
    0.237271 3.704139e+20 1.640946e-01 0 
    0.238366 3.422418e+20 1.502246e-01 0 
    0.239467 3.732006e+20 1.623108e-01 0 
    0.240572 3.652226e+20 1.573852e-01 0 
    0.241683 3.794624e+20 1.620216e-01 0 
    0.242240 4.087821e+20 1.737387e-01 0 
    0.243358 4.009675e+20 1.688551e-01 0 
    0.244481 4.292708e+20 1.791173e-01 0 
    0.245610 4.278988e+20 1.769072e-01 0 
    0.246743 4.305192e+20 1.763597e-01 0 
    0.247312 4.190807e+20 1.708849e-01 0 
    0.248454 4.304632e+20 1.739164e-01 0 
    0.249600 4.107302e+20 1.644235e-01 0 
    0.250752 4.701138e+20 1.864707e-01 0 
    0.251330 4.183217e+20 1.651650e-01 0 
    0.251910 4.293625e+20 1.687445e-01 0 
    0.252491 4.179844e+20 1.635177e-01 0 
    0.253656 4.313005e+20 1.671807e-01 0 
    0.254241 4.316209e+20 1.665359e-01 0 
    0.255414 4.728648e+20 1.807774e-01 0 
    0.256593 4.649252e+20 1.761124e-01 0 
    0.257778 4.977752e+20 1.868263e-01 0 
    0.258372 4.958884e+20 1.852634e-01 0 
    0.259565 4.920627e+20 1.821481e-01 0 
    0.260763 4.838235e+20 1.774563e-01 0 
    0.261364 4.797417e+20 1.751509e-01 0 
    0.262570 5.124742e+20 1.853866e-01 0 
    0.263782 5.424003e+20 1.944133e-01 0 
    0.264390 5.979304e+20 2.133325e-01 0 
    0.265611 6.270589e+20 2.216729e-01 0 
    0.266223 5.670667e+20 1.995444e-01 0 
    0.267452 5.988318e+20 2.087899e-01 0 
    0.268686 6.137078e+20 2.120157e-01 0 
    0.269305 5.825083e+20 2.003133e-01 0 
    0.270549 6.137068e+20 2.091055e-01 0 
    0.271797 5.829746e+20 1.968144e-01 0 
    0.272424 5.794204e+20 1.947150e-01 0 
    0.273681 6.175377e+20 2.056225e-01 0 
    0.274312 5.432320e+20 1.800496e-01 0 
    0.275578 5.670994e+20 1.862373e-01 0 
    0.276214 5.970395e+20 1.951678e-01 0 
    0.277489 6.290794e+20 2.037560e-01 0 
    0.278769 5.948022e+20 1.908886e-01 0 
    0.279412 4.794460e+20 1.531602e-01 0 
    0.280702 5.205068e+20 1.647524e-01 0 
    0.281349 6.482706e+20 2.042500e-01 0 
    0.282648 6.973349e+20 2.176938e-01 0 
    0.283299 6.804244e+20 2.114396e-01 0 
    0.284607 6.598943e+20 2.031794e-01 0 
    0.285263 6.292781e+20 1.928627e-01 0 
    0.286580 7.137098e+20 2.167336e-01 0 
    0.287240 7.360219e+20 2.224833e-01 0 
    0.288566 7.371971e+20 2.207953e-01 0 
    0.289231 7.515086e+20 2.240478e-01 0 
    0.291236 8.452475e+20 2.485365e-01 0 
    0.293255 8.223296e+20 2.384797e-01 0 
    0.295288 8.243654e+20 2.357896e-01 0 
    0.297334 8.534382e+20 2.407572e-01 0 
    0.298707 8.667826e+20 2.422790e-01 0 
    0.300777 8.932762e+20 2.462595e-01 0 
    0.302862 9.142296e+20 2.485777e-01 0 
    0.304962 9.378962e+20 2.515126e-01 0 
    0.307076 9.666091e+20 2.556558e-01 0 
    0.309204 9.870449e+20 2.574798e-01 0 
    0.311347 1.026697e+21 2.641492e-01 0 
    0.312784 1.019026e+21 2.597721e-01 0 
    0.314953 1.040625e+21 2.616371e-01 0 
    0.317136 1.077508e+21 2.671935e-01 0 
    0.319334 1.038811e+21 2.540638e-01 0 
    0.320808 1.092190e+21 2.646696e-01 0 
    0.323032 1.055373e+21 2.522385e-01 0 
    0.325271 1.176388e+21 2.773042e-01 0 
    0.326772 1.248305e+21 2.915597e-01 0 
    0.329037 1.263168e+21 2.909833e-01 0 
    0.331318 1.266487e+21 2.877446e-01 0 
    0.332082 1.256017e+21 2.840542e-01 0 
    0.332847 1.295329e+21 2.915998e-01 0 
    0.333615 1.320537e+21 2.959074e-01 0 
    0.334384 1.265186e+21 2.822019e-01 0 
    0.335155 1.295804e+21 2.877030e-01 0 
    0.335927 1.324072e+21 2.926295e-01 0 
    0.336702 1.304111e+21 2.868928e-01 0 
    0.337478 1.176753e+21 2.576860e-01 0 
    0.338256 1.244744e+21 2.713223e-01 0 
    0.339036 1.366072e+21 2.964001e-01 0 
    0.339817 1.361007e+21 2.939453e-01 0 
    0.340600 1.343551e+21 2.888427e-01 0 
    0.341386 1.350973e+21 2.891024e-01 0 
    0.342173 1.415942e+21 3.016133e-01 0 
    0.342961 1.401001e+21 2.970608e-01 0 
    0.343752 1.421765e+21 3.000778e-01 0 
    0.344544 1.239411e+21 2.603889e-01 0 
    0.345339 1.464243e+21 3.062094e-01 0 
    0.346135 1.339654e+21 2.788675e-01 0 
    0.346933 1.397018e+21 2.894725e-01 0 
    0.347732 1.334027e+21 2.751515e-01 0 
    0.348534 1.399986e+21 2.874285e-01 0 
    0.349338 1.374297e+21 2.808570e-01 0 
    0.350143 1.425687e+21 2.900212e-01 0 
    0.350950 1.452057e+21 2.940286e-01 0 
    0.351759 1.377012e+21 2.775516e-01 0 
    0.352570 1.418719e+21 2.846440e-01 0 
    0.353383 1.527072e+21 3.049752e-01 0 
    0.354197 1.580565e+21 3.142093e-01 0 
    0.355014 1.591328e+21 3.148946e-01 0 
    0.355832 1.544278e+21 3.041808e-01 0 
    0.356652 1.591003e+21 3.119450e-01 0 
    0.357475 1.398362e+21 2.729133e-01 0 
    0.358299 1.391825e+21 2.703896e-01 0 
    0.359125 1.347527e+21 2.605809e-01 0 
    0.359953 1.594001e+21 3.068269e-01 0 
    0.360782 1.497755e+21 2.869773e-01 0 
    0.361614 1.536027e+21 2.929576e-01 0 
    0.362448 1.571665e+21 2.983768e-01 0 
    0.363283 1.735000e+21 3.278730e-01 0 
    0.364121 1.711069e+21 3.218641e-01 0 
    0.364960 1.604004e+21 3.003387e-01 0 
    0.365130 1.582180e+21 2.959766e-01 1 
    0.365398 1.299535e+21 2.427459e-01 1 
    0.365666 1.234580e+21 2.302748e-01 1 
    0.365933 1.896237e+21 3.531716e-01 1 
    0.366201 1.702788e+21 3.166781e-01 1 
    0.366469 1.226710e+21 2.278053e-01 1 
    0.366736 1.932385e+21 3.583299e-01 1 
    0.367004 1.139756e+21 2.110410e-01 1 
    0.367272 1.129176e+21 2.087769e-01 1 
    0.367539 1.802866e+21 3.328535e-01 1 
    0.367807 1.476944e+21 2.722830e-01 1 
    0.368075 1.632765e+21 3.005713e-01 1 
    0.368342 1.544312e+21 2.838762e-01 1 
    0.368610 1.342362e+21 2.463950e-01 1 
    0.368877 1.352621e+21 2.479187e-01 1 
    0.369145 1.170785e+21 2.142790e-01 1 
    0.369413 1.251755e+21 2.287660e-01 1 
    0.369680 1.601938e+21 2.923413e-01 1 
    0.369948 1.778243e+21 3.240456e-01 1 
    0.370216 1.500425e+21 2.730237e-01 1 
    0.370483 1.742017e+21 3.165281e-01 1 
    0.370751 1.377889e+21 2.500035e-01 1 
    0.371019 1.221166e+21 2.212478e-01 1 
    0.371286 1.248939e+21 2.259542e-01 1 
    0.371554 1.760301e+21 3.180091e-01 1 
    0.371822 1.875164e+21 3.382716e-01 1 
    0.372089 1.718615e+21 3.095861e-01 1 
    0.372357 4.120209e+21 7.411339e-01 1 
    0.372625 5.187113e+21 9.317045e-01 1 
    0.372892 5.913025e+21 1.060572e+00 1 
    0.373160 4.775681e+21 8.553454e-01 1 
    0.373428 2.736570e+21 4.894284e-01 1 
    0.373695 1.890192e+21 3.375730e-01 1 
    0.373963 1.507797e+21 2.688945e-01 1 
    0.374231 2.001154e+21 3.563669e-01 1 
    0.374498 1.693956e+21 3.012310e-01 1 
    0.374766 1.236069e+21 2.194920e-01 1 
    0.375034 1.515205e+21 2.686745e-01 1 
    0.375301 1.919102e+21 3.398091e-01 1 
    0.375569 1.962498e+21 3.469973e-01 1 
    0.375837 2.055662e+21 3.629520e-01 1 
    0.376104 1.651090e+21 2.911061e-01 1 
    0.376372 1.867651e+21 3.288195e-01 1 
    0.376640 1.067811e+21 1.877319e-01 1 
    0.376907 1.529600e+21 2.685382e-01 1 
    0.377175 1.769123e+21 3.101477e-01 1 
    0.377442 1.968648e+21 3.446388e-01 1 
    0.377710 2.111367e+21 3.690993e-01 1 
    0.377978 2.224857e+21 3.883877e-01 1 
    0.378245 2.271609e+21 3.959894e-01 1 
    0.378513 2.281208e+21 3.971000e-01 1 
    0.378781 2.411029e+21 4.191046e-01 1 
    0.379048 2.429691e+21 4.217539e-01 1 
    0.379316 2.364345e+21 4.098312e-01 1 
    0.379584 2.024495e+21 3.504268e-01 1 
    0.379851 1.752095e+21 3.028500e-01 1 
    0.380119 2.014869e+21 3.477796e-01 1 
    0.380387 2.010385e+21 3.465168e-01 1 
    0.380654 1.872454e+21 3.222900e-01 1 
    0.380922 2.274499e+21 3.909399e-01 1 
    0.381190 2.377609e+21 4.080881e-01 1 
    0.381457 2.196451e+21 3.764668e-01 1 
    0.381725 2.430380e+21 4.159772e-01 1 
    0.381993 2.087436e+21 3.567786e-01 1 
    0.382260 2.079431e+21 3.549140e-01 1 
    0.382528 2.086690e+21 3.556542e-01 1 
    0.382796 1.804510e+21 3.071292e-01 1 
    0.383063 1.458333e+21 2.478636e-01 1 
    0.383331 1.547103e+21 2.625837e-01 1 
    0.383599 1.339701e+21 2.270646e-01 1 
    0.383866 1.313120e+21 2.222499e-01 1 
    0.384134 1.449450e+21 2.449821e-01 1 
    0.384402 2.092144e+21 3.531154e-01 1 
    0.384669 2.054848e+21 3.463394e-01 1 
    0.384937 2.187717e+21 3.682207e-01 1 
    0.385205 2.309522e+21 3.881813e-01 1 
    0.385472 2.405503e+21 4.037539e-01 1 
    0.385740 2.544552e+21 4.264994e-01 1 
    0.386007 2.700209e+21 4.519636e-01 1 
