# Mrk 1450       
# 
# An Atlas of Galaxy Spectral Energy Distributions from the Ultraviolet to the Mid-Infrared
# Brown et al. (2014)
# http://dx.doi.org/10.5072/03/529D3551F0117
# http://dx.doi.org/10.17909/t9-5bxk-dh29
# 
# The Spectral Energy Distributions of Active Galactic Nuclei
# Brown et al. (2019)
# http://dx.doi.org/10.17909/t9-3dbt-8734
# 
# Column 1: Observed wavelength (um)
# Column 2: L_nu (W/Hz)
# Column 3: f_lam (erg/s/cm2/A)
# Column 4: Source (0 = model, 1 = Optical Spectrun, 2 = Akari, 3 = Spitzer IRS)
# 
  1.0201e-02 8.009324e+11 1.919582e-07 0 
  1.0390e-02 8.924430e+11 2.061797e-07 0 
  1.0608e-02 1.038860e+12 2.302430e-07 0 
  1.0805e-02 1.212196e+12 2.589522e-07 0 
  1.1006e-02 1.744260e+12 3.591275e-07 0 
  1.1393e-02 2.226424e+12 4.277876e-07 0 
  1.1793e-02 2.713792e+12 4.866587e-07 0 
  1.2096e-02 7.171417e+12 1.222413e-06 0 
  1.2492e-02 8.781462e+12 1.403458e-06 0 
  1.2695e-02 9.607121e+12 1.486703e-06 0 
  1.2812e-02 1.015323e+13 1.542647e-06 0 
  1.3111e-02 1.147036e+13 1.664185e-06 0 
  1.3202e-02 1.286956e+13 1.841537e-06 0 
  1.3385e-02 1.385545e+13 1.928769e-06 0 
  1.3697e-02 1.677142e+13 2.229541e-06 0 
  1.3984e-02 1.873207e+13 2.389018e-06 0 
  1.4310e-02 3.308425e+13 4.029382e-06 0 
  1.4711e-02 5.631135e+13 6.489452e-06 0 
  1.5088e-02 6.391864e+13 7.002620e-06 0 
  1.5511e-02 7.321559e+13 7.589626e-06 0 
  1.5909e-02 8.367716e+13 8.245512e-06 0 
  1.6204e-02 9.195481e+13 8.734267e-06 0 
  1.6582e-02 1.041345e+14 9.445335e-06 0 
  1.7007e-02 1.171127e+14 1.009822e-05 0 
  1.7283e-02 1.275229e+14 1.064747e-05 0 
  1.7686e-02 1.421028e+14 1.133026e-05 0 
  1.8015e-02 1.543842e+14 1.186399e-05 0 
  1.8182e-02 1.624048e+14 1.225214e-05 0 
  1.8605e-02 1.801353e+14 1.297884e-05 0 
  1.9082e-02 2.025895e+14 1.387604e-05 0 
  1.9392e-02 2.185796e+14 1.449643e-05 0 
  1.9798e-02 2.396586e+14 1.524919e-05 0 
  2.0213e-02 2.627881e+14 1.604134e-05 0 
  2.0494e-02 2.802833e+14 1.664333e-05 0 
  2.1020e-02 3.024031e+14 1.706936e-05 0 
  2.1609e-02 3.520376e+14 1.880252e-05 0 
  2.2011e-02 3.815838e+14 1.964295e-05 0 
  2.2317e-02 4.014083e+14 2.010070e-05 0 
  2.2679e-02 4.341023e+14 2.104945e-05 0 
  2.2995e-02 6.692267e+14 3.156479e-05 0 
  2.3422e-02 1.147024e+15 5.214601e-05 0 
  2.4023e-02 1.587075e+15 6.858664e-05 0 
  2.4583e-02 1.590625e+15 6.564390e-05 0 
  2.5213e-02 1.776658e+15 6.970298e-05 0 
  2.5682e-02 1.477728e+15 5.587702e-05 0 
  2.5980e-02 1.834914e+15 6.780066e-05 0 
  2.6402e-02 2.007243e+15 7.181627e-05 0 
  2.6893e-02 2.082511e+15 7.181336e-05 0 
  2.7392e-02 2.155771e+15 7.165585e-05 0 
  2.7902e-02 2.211060e+15 7.083149e-05 0 
  2.8420e-02 2.309883e+15 7.132442e-05 0 
  2.9016e-02 2.299196e+15 6.810789e-05 0 
  2.9623e-02 2.407765e+15 6.843094e-05 0 
  3.0105e-02 2.352967e+15 6.474929e-05 0 
  3.0806e-02 2.515406e+15 6.610495e-05 0 
  3.1815e-02 2.738887e+15 6.748491e-05 0 
  3.2782e-02 2.874601e+15 6.671188e-05 0 
  3.3778e-02 2.975669e+15 6.504489e-05 0 
  3.4804e-02 3.080338e+15 6.342151e-05 0 
  3.5697e-02 3.225454e+15 6.312827e-05 0 
  3.6613e-02 3.432323e+15 6.385779e-05 0 
  3.7466e-02 3.520545e+15 6.255062e-05 0 
  3.8515e-02 3.512272e+15 5.905066e-05 0 
  3.9503e-02 3.815907e+15 6.098655e-05 0 
  4.0516e-02 4.051177e+15 6.154950e-05 0 
  4.1365e-02 4.174270e+15 6.084305e-05 0 
  4.2231e-02 4.261703e+15 5.959597e-05 0 
  4.3016e-02 4.361089e+15 5.878024e-05 0 
  4.4120e-02 4.694537e+15 6.014758e-05 0 
  4.5147e-02 4.950015e+15 6.056827e-05 0 
  4.5987e-02 5.065123e+15 5.973327e-05 0 
  4.6950e-02 5.377667e+15 6.084419e-05 0 
  4.8043e-02 5.923921e+15 6.400965e-05 0 
  4.9049e-02 6.117867e+15 6.342146e-05 0 
  4.9961e-02 6.959911e+15 6.954051e-05 0 
    0.050656 7.808818e+15 7.589619e-05 0 
    0.051243 1.391845e+16 1.321960e-04 0 
    0.051955 1.464164e+16 1.352794e-04 0 
    0.053043 1.565308e+16 1.387522e-04 0 
    0.054030 1.561699e+16 1.334209e-04 0 
    0.055034 1.925719e+16 1.585722e-04 0 
    0.056057 2.446781e+16 1.941922e-04 0 
    0.056968 2.854929e+16 2.193966e-04 0 
    0.058027 2.989414e+16 2.214227e-04 0 
    0.058970 3.536616e+16 2.536425e-04 0 
    0.060066 3.644149e+16 2.519041e-04 0 
    0.061042 4.098218e+16 2.743052e-04 0 
    0.062034 5.231131e+16 3.390256e-04 0 
    0.063042 5.683192e+16 3.566390e-04 0 
    0.064067 6.376732e+16 3.874591e-04 0 
    0.064958 7.089114e+16 4.190088e-04 0 
    0.065861 7.440241e+16 4.277862e-04 0 
    0.066471 8.386724e+16 4.733958e-04 0 
    0.067551 9.302127e+16 5.084112e-04 0 
    0.068491 9.281163e+16 4.934372e-04 0 
    0.069443 1.155021e+17 5.973506e-04 0 
    0.070572 1.113280e+17 5.574887e-04 0 
    0.071554 1.420947e+17 6.921599e-04 0 
    0.072549 1.543774e+17 7.315052e-04 0 
    0.073558 1.669535e+17 7.695418e-04 0 
    0.074582 1.822182e+17 8.169965e-04 0 
    0.075445 1.961533e+17 8.594710e-04 0 
    0.076495 2.016496e+17 8.594639e-04 0 
    0.077559 2.325942e+17 9.643417e-04 0 
    0.078457 2.446792e+17 9.913568e-04 0 
    0.079548 2.701376e+17 1.064689e-03 0 
    0.080470 2.914765e+17 1.122618e-03 0 
    0.081589 3.130335e+17 1.172800e-03 0 
    0.082534 3.424481e+17 1.253792e-03 0 
    0.083489 3.059080e+17 1.094533e-03 0 
    0.084456 3.815940e+17 1.334249e-03 0 
    0.085434 4.023455e+17 1.374783e-03 0 
    0.086423 4.391273e+17 1.466318e-03 0 
    0.087424 4.716237e+17 1.538972e-03 0 
    0.088436 5.065236e+17 1.615243e-03 0 
    0.089461 5.402530e+17 1.683550e-03 0 
    0.090496 5.618103e+17 1.710911e-03 0 
    0.091544 6.816974e+17 2.028749e-03 0 
    0.092604 2.868104e+18 8.341264e-03 0 
    0.093461 5.802178e+18 1.656634e-02 0 
    0.094543 1.060703e+19 2.959589e-02 0 
    0.095418 1.437446e+19 3.937561e-02 0 
    0.096523 1.720318e+19 4.605148e-02 0 
    0.097416 4.193734e+18 1.102140e-02 0 
    0.098544 1.681030e+19 4.317292e-02 0 
    0.099456 1.692815e+19 4.268193e-02 0 
    0.100608 2.246859e+19 5.536142e-02 0 
    0.101539 2.145858e+19 5.190769e-02 0 
    0.102478 1.001371e+19 2.378100e-02 0 
    0.103426 1.708416e+19 3.983186e-02 0 
    0.104383 2.901262e+19 6.640854e-02 0 
    0.105592 2.894668e+19 6.474902e-02 0 
    0.106569 2.469316e+19 5.422649e-02 0 
    0.107555 2.861435e+19 6.169061e-02 0 
    0.108550 2.441050e+19 5.166703e-02 0 
    0.109555 3.037985e+19 6.312735e-02 0 
    0.110569 2.928125e+19 5.973368e-02 0 
    0.111592 2.901344e+19 5.810714e-02 0 
    0.112624 2.658230e+19 5.226694e-02 0 
    0.113405 3.203355e+19 6.212081e-02 0 
    0.114454 3.003231e+19 5.717725e-02 0 
    0.115513 3.166568e+19 5.918662e-02 0 
    0.116582 3.285535e+19 6.028920e-02 0 
    0.117390 2.435555e+19 4.407904e-02 0 
    0.118476 3.270363e+19 5.810743e-02 0 
    0.119573 2.603790e+19 4.541885e-02 0 
    0.120401 2.068193e+19 3.558175e-02 0 
    0.121515 1.304959e+19 2.204112e-02 0 
    0.122640 2.509436e+19 4.161102e-02 0 
    0.123490 3.440307e+19 5.626393e-02 0 
    0.124633 3.720370e+19 5.973330e-02 0 
    0.125496 3.635893e+19 5.757684e-02 0 
    0.126366 3.354211e+19 5.238733e-02 0 
    0.127536 3.950036e+19 6.056642e-02 0 
    0.128420 4.069946e+19 6.154882e-02 0 
    0.129608 3.504113e+19 5.202486e-02 0 
    0.130506 3.561094e+19 5.214575e-02 0 
    0.131411 4.145545e+19 5.987074e-02 0 
    0.132627 4.023263e+19 5.704413e-02 0 
    0.133546 3.754860e+19 5.250837e-02 0 
    0.134472 4.193778e+19 5.784132e-02 0 
    0.135404 4.145585e+19 5.639222e-02 0 
    0.136657 3.904663e+19 5.214543e-02 0 
    0.137604 4.013979e+19 5.287001e-02 0 
    0.138558 4.088731e+19 5.311556e-02 0 
    0.139518 3.512250e+19 4.500092e-02 0 
    0.140485 3.644245e+19 4.605154e-02 0 
    0.141459 3.977237e+19 4.956976e-02 0 
    0.142440 3.995525e+19 4.911412e-02 0 
    0.143427 4.098288e+19 4.968634e-02 0 
    0.144089 4.242094e+19 5.095832e-02 0 
    0.144754 4.261719e+19 5.072477e-02 0 
    0.145422 4.203175e+19 4.956940e-02 0 
    0.146431 4.023587e+19 4.679977e-02 0 
    0.147446 4.070074e+19 4.669095e-02 0 
    0.148468 4.117073e+19 4.658213e-02 0 
    0.149497 4.164642e+19 4.647391e-02 0 
    0.150533 4.014072e+19 4.417924e-02 0 
    0.151228 3.720472e+19 4.057235e-02 0 
    0.151576 3.886735e+19 4.219107e-02 0 
    0.152627 3.904709e+19 4.180444e-02 0 
    0.153332 3.512305e+19 3.725830e-02 0 
    0.154394 3.577631e+19 3.743098e-02 0 
    0.155465 3.504218e+19 3.615949e-02 0 
    0.156542 3.711850e+19 3.777679e-02 0 
    0.157627 3.949991e+19 3.964891e-02 0 
    0.158355 4.051508e+19 4.029485e-02 0 
    0.159453 4.145618e+19 4.066496e-02 0 
    0.160558 4.098240e+19 3.964879e-02 0 
    0.161671 4.126626e+19 3.937562e-02 0 
    0.162417 4.041993e+19 3.821458e-02 0 
    0.163543 4.261818e+19 3.973996e-02 0 
    0.164676 4.301223e+19 3.955740e-02 0 
    0.165437 4.184047e+19 3.812657e-02 0 
    0.166583 4.431920e+19 3.983153e-02 0 
    0.167352 4.203312e+19 3.743055e-02 0 
    0.167738 4.514310e+19 4.001519e-02 0 
    0.168512 4.587904e+19 4.029481e-02 0 
    0.169680 4.452382e+19 3.856804e-02 0 
    0.170464 4.341074e+19 3.725875e-02 0 
    0.171645 4.203340e+19 3.558186e-02 0 
    0.172437 4.193674e+19 3.517468e-02 0 
    0.173633 4.421742e+19 3.657845e-02 0 
    0.174434 4.361094e+19 3.574618e-02 0 
    0.175643 4.545655e+19 3.674778e-02 0 
    0.176454 4.361099e+19 3.493247e-02 0 
    0.177677 4.411578e+19 3.485203e-02 0 
    0.178497 4.493605e+19 3.517463e-02 0 
    0.179321 4.651521e+19 3.607690e-02 0 
    0.180564 4.705342e+19 3.599360e-02 0 
    0.181398 4.431912e+19 3.359097e-02 0 
    0.182655 4.577123e+19 3.421574e-02 0 
    0.183498 4.493563e+19 3.328317e-02 0 
    0.184345 4.232493e+19 3.106204e-02 0 
    0.185623 4.261792e+19 3.084787e-02 0 
    0.186480 4.371139e+19 3.134920e-02 0 
    0.187340 4.619507e+19 3.282699e-02 0 
    0.188639 4.331026e+19 3.035458e-02 0 
    0.189510 4.164820e+19 2.892201e-02 0 
    0.190384 4.462621e+19 3.070617e-02 0 
    0.191704 4.321074e+19 2.932417e-02 0 
    0.192589 4.232479e+19 2.845957e-02 0 
    0.193478 4.452430e+19 2.966404e-02 0 
    0.194371 4.577128e+19 3.021528e-02 0 
    0.195718 4.321114e+19 2.813394e-02 0 
    0.196622 4.640822e+19 2.993830e-02 0 
    0.197529 4.803888e+19 3.070630e-02 0 
    0.198441 4.598264e+19 2.912242e-02 0 
    0.199357 4.524711e+19 2.839385e-02 0 
    0.200277 4.683754e+19 2.912248e-02 0 
    0.201665 4.651516e+19 2.852528e-02 0 
    0.202596 4.837202e+19 2.939199e-02 0 
    0.203531 4.608889e+19 2.774799e-02 0 
    0.204471 4.705365e+19 2.806896e-02 0 
    0.205415 4.421735e+19 2.613515e-02 0 
    0.206363 4.577156e+19 2.680579e-02 0 
    0.207315 4.915816e+19 2.852533e-02 0 
    0.207793 4.662229e+19 2.692950e-02 0 
    0.208272 4.814975e+19 2.768399e-02 0 
    0.209716 4.651522e+19 2.637719e-02 0 
    0.210684 4.781822e+19 2.686747e-02 0 
    0.211656 4.837178e+19 2.692944e-02 0 
    0.212633 4.915796e+19 2.711620e-02 0 
    0.213615 4.792860e+19 2.619556e-02 0 
    0.214601 4.770824e+19 2.583606e-02 0 
    0.215591 4.938466e+19 2.649887e-02 0 
    0.216587 4.870728e+19 2.589557e-02 0 
    0.217586 4.881950e+19 2.571745e-02 0 
    0.218591 4.815009e+19 2.513211e-02 0 
    0.219600 4.972728e+19 2.571736e-02 0 
    0.220613 4.915795e+19 2.518999e-02 0 
    0.221631 4.837223e+19 2.456018e-02 0 
    0.222655 4.759866e+19 2.394563e-02 0 
    0.223682 4.904451e+19 2.444695e-02 0 
    0.224715 4.848372e+19 2.394574e-02 0 
    0.225752 4.759870e+19 2.329316e-02 0 
    0.226272 4.837206e+19 2.356294e-02 0 
    0.227317 4.893236e+19 2.361722e-02 0 
    0.228366 4.949895e+19 2.367171e-02 0 
    0.229420 4.782190e+19 2.266004e-02 0 
    0.230479 4.840530e+19 2.272619e-02 0 
    0.231543 4.755077e+19 2.212029e-02 0 
    0.232612 4.172713e+19 1.923316e-02 0 
    0.233685 4.663223e+19 2.129712e-02 0 
    0.234764 4.644633e+19 2.101769e-02 0 
    0.235305 4.743379e+19 2.136594e-02 0 
    0.236391 4.638246e+19 2.070086e-02 0 
    0.237483 4.684093e+19 2.071366e-02 0 
    0.238579 4.569797e+19 2.002299e-02 0 
    0.239680 4.733333e+19 2.054944e-02 0 
    0.240232 4.627036e+19 1.999574e-02 0 
    0.241341 4.683561e+19 2.005444e-02 0 
    0.242455 4.784661e+19 2.029950e-02 0 
    0.243574 4.689521e+19 1.971347e-02 0 
    0.244699 4.823959e+19 2.009258e-02 0 
    0.245263 4.792247e+19 1.986880e-02 0 
    0.246395 4.784237e+19 1.965375e-02 0 
    0.247532 4.732580e+19 1.926334e-02 0 
    0.248675 4.823713e+19 1.945421e-02 0 
    0.249248 4.461932e+19 1.791249e-02 0 
    0.250398 4.861868e+19 1.933917e-02 0 
    0.251554 4.656705e+19 1.835324e-02 0 
    0.252715 4.724643e+19 1.845030e-02 0 
    0.253298 4.726139e+19 1.837128e-02 0 
    0.254467 4.685949e+19 1.804808e-02 0 
    0.255642 4.820328e+19 1.839538e-02 0 
    0.256231 4.788776e+19 1.819104e-02 0 
    0.257414 4.914887e+19 1.849889e-02 0 
    0.258602 4.918162e+19 1.834153e-02 0 
    0.259795 4.921494e+19 1.818578e-02 0 
    0.260394 4.844409e+19 1.781867e-02 0 
    0.261596 4.847714e+19 1.766734e-02 0 
    0.262199 4.882964e+19 1.771405e-02 0 
    0.263410 4.931501e+19 1.772601e-02 0 
    0.264625 5.084747e+19 1.810940e-02 0 
    0.265235 5.098188e+19 1.807385e-02 0 
    0.266460 4.962723e+19 1.743221e-02 0 
    0.267690 5.046780e+19 1.756494e-02 0 
    0.268307 5.048500e+19 1.749020e-02 0 
    0.269545 4.971246e+19 1.706472e-02 0 
    0.270789 5.020791e+19 1.707681e-02 0 
    0.271414 4.942180e+19 1.673210e-02 0 
    0.272666 4.957080e+19 1.662878e-02 0 
    0.273295 5.016228e+19 1.674983e-02 0 
    0.274556 4.838182e+19 1.600725e-02 0 
    0.275189 4.850984e+19 1.597586e-02 0 
    0.276460 4.933363e+19 1.609811e-02 0 
    0.277736 5.040138e+19 1.629576e-02 0 
    0.278376 4.984218e+19 1.604094e-02 0 
    0.279661 4.676374e+19 1.491220e-02 0 
    0.280305 4.820221e+19 1.530036e-02 0 
    0.281599 5.062700e+19 1.592269e-02 0 
    0.282248 5.064459e+19 1.585505e-02 0 
    0.283551 4.964162e+19 1.539856e-02 0 
    0.284205 4.943151e+19 1.526289e-02 0 
    0.285517 4.946785e+19 1.513407e-02 0 
    0.286175 5.052225e+19 1.538565e-02 0 
    0.287496 5.055879e+19 1.525561e-02 0 
    0.288823 5.082861e+19 1.519641e-02 0 
    0.289489 5.073051e+19 1.509738e-02 0 
    0.290825 5.171204e+19 1.524841e-02 0 
    0.292841 5.129494e+19 1.491789e-02 0 
    0.294871 5.099940e+19 1.462842e-02 0 
    0.296915 5.141026e+19 1.454394e-02 0 
    0.298973 5.135050e+19 1.432772e-02 0 
    0.301045 5.152658e+19 1.417963e-02 0 
    0.303132 5.182388e+19 1.406575e-02 0 
    0.305233 5.188439e+19 1.388897e-02 0 
    0.307349 5.206357e+19 1.374570e-02 0 
    0.308767 5.174508e+19 1.353642e-02 0 
    0.310908 5.204522e+19 1.342807e-02 0 
    0.313063 5.174737e+19 1.316804e-02 0 
    0.315233 5.204706e+19 1.306259e-02 0 
    0.316688 5.185018e+19 1.289388e-02 0 
    0.318883 5.108149e+19 1.252845e-02 0 
    0.321093 5.173541e+19 1.251477e-02 0 
    0.323319 5.144116e+19 1.227283e-02 0 
    0.324812 5.207889e+19 1.231102e-02 0 
    0.327063 5.262535e+19 1.226955e-02 0 
    0.329330 5.268897e+19 1.211584e-02 0 
    0.330850 5.249069e+19 1.195959e-02 0 
    0.332377 5.375740e+19 1.213592e-02 0 
    0.333144 5.415254e+19 1.216890e-02 0 
    0.333912 5.221435e+19 1.167945e-02 0 
    0.334681 5.394866e+19 1.201199e-02 0 
    0.335453 5.237959e+19 1.160901e-02 0 
    0.336226 5.203908e+19 1.148057e-02 0 
    0.337001 5.158468e+19 1.132804e-02 0 
    0.337778 5.148752e+19 1.125475e-02 0 
    0.338557 5.307383e+19 1.154817e-02 0 
    0.339337 5.395818e+19 1.168668e-02 0 
    0.340119 5.523800e+19 1.190893e-02 0 
    0.340903 5.265288e+19 1.129944e-02 0 
    0.341689 5.340868e+19 1.140897e-02 0 
    0.342477 5.455061e+19 1.159934e-02 0 
    0.343267 5.558788e+19 1.176556e-02 0 
    0.344058 5.447076e+19 1.147616e-02 0 
    0.344851 5.337644e+19 1.119394e-02 0 
    0.345646 5.254504e+19 1.096895e-02 0 
    0.346443 5.160772e+19 1.072377e-02 0 
    0.347241 5.344369e+19 1.105429e-02 0 
    0.348042 5.237064e+19 1.078254e-02 0 
    0.348844 5.349041e+19 1.096251e-02 0 
    0.349648 5.351245e+19 1.091664e-02 0 
    0.350454 5.268088e+19 1.069763e-02 0 
    0.351262 5.246019e+19 1.060386e-02 0 
    0.352072 5.358256e+19 1.078095e-02 0 
    0.352884 5.262789e+19 1.054019e-02 0 
    0.353697 5.412472e+19 1.079020e-02 0 
    0.354513 5.465046e+19 1.084491e-02 0 
    0.355330 5.505153e+19 1.087432e-02 0 
    0.356149 5.507642e+19 1.082926e-02 0 
    0.356970 5.372209e+19 1.051444e-02 0 
    0.357793 5.216019e+19 1.016183e-02 0 
    0.358618 5.146881e+19 9.981054e-03 0 
    0.359444 5.244897e+19 1.012444e-02 0 
    0.360273 5.406531e+19 1.038847e-02 0 
    0.361103 5.322461e+19 1.017998e-02 0 
    0.361936 5.436253e+19 1.034981e-02 0 
    0.362770 5.578173e+19 1.057123e-02 0 
    0.363475 6.570532e+19 1.240360e-02 1 
    0.363749 4.989419e+19 9.404654e-03 1 
    0.364023 6.227196e+19 1.172010e-02 1 
    0.364297 7.466115e+19 1.403072e-02 1 
    0.364571 8.122441e+19 1.524119e-02 1 
    0.364846 5.139647e+19 9.629652e-03 1 
    0.365120 6.183863e+19 1.156871e-02 1 
    0.365394 5.400988e+19 1.008897e-02 1 
    0.365668 8.082456e+19 1.507530e-02 1 
    0.365942 4.854154e+19 9.040355e-03 1 
    0.366216 5.280294e+19 9.819287e-03 1 
    0.366490 5.230319e+19 9.711814e-03 1 
    0.366764 4.923328e+19 9.128130e-03 1 
    0.367039 4.989399e+19 9.236774e-03 1 
    0.367313 4.882092e+19 9.024640e-03 1 
    0.367587 6.393993e+19 1.180180e-02 1 
    0.367861 6.877715e+19 1.267573e-02 1 
    0.368135 7.679597e+19 1.413255e-02 1 
    0.368409 1.743584e+19 3.203899e-03 1 
    0.368683 7.419252e+19 1.361289e-02 1 
    0.368958 4.857581e+19 8.899439e-03 1 
    0.369232 5.488415e+19 1.004026e-02 1 
    0.369506 4.568573e+19 8.345148e-03 1 
    0.369780 4.857411e+19 8.859607e-03 1 
    0.370054 5.191738e+19 9.455380e-03 1 
    0.370328 5.074588e+19 9.228351e-03 1 
    0.370602 6.883950e+19 1.250025e-02 1 
    0.370877 5.162223e+19 9.359947e-03 1 
    0.371151 6.041209e+19 1.093752e-02 1 
    0.371425 8.098467e+19 1.464054e-02 1 
    0.371699 8.596561e+19 1.551809e-02 1 
    0.371973 1.585173e+20 2.857264e-02 1 
    0.372247 3.019133e+20 5.433957e-02 1 
    0.372521 5.715216e+20 1.027135e-01 1 
    0.372795 6.796082e+20 1.219593e-01 1 
    0.373070 5.645562e+20 1.011633e-01 1 
    0.373344 2.911860e+20 5.210130e-02 1 
    0.373618 1.288345e+20 2.301830e-02 1 
    0.373892 7.649542e+19 1.364707e-02 1 
    0.374166 5.367867e+19 9.562458e-03 1 
    0.374440 5.153057e+19 9.166361e-03 1 
    0.374714 6.419312e+19 1.140211e-02 1 
    0.374989 6.554445e+19 1.162506e-02 1 
    0.375263 6.614945e+19 1.171524e-02 1 
    0.375537 4.002812e+19 7.078742e-03 1 
    0.375811 6.438472e+19 1.136947e-02 1 
    0.376085 6.242178e+19 1.100679e-02 1 
    0.376359 5.497963e+19 9.680407e-03 1 
    0.376633 6.876516e+19 1.209005e-02 1 
    0.376907 7.693405e+19 1.350662e-02 1 
    0.377182 7.682098e+19 1.346711e-02 1 
    0.377456 7.294520e+19 1.276911e-02 1 
    0.377730 7.131709e+19 1.246600e-02 1 
    0.378004 6.908439e+19 1.205823e-02 1 
    0.378278 6.044272e+19 1.053461e-02 1 
    0.378552 5.232394e+19 9.106381e-03 1 
    0.378826 6.990649e+19 1.214883e-02 1 
    0.379101 6.234351e+19 1.081877e-02 1 
    0.379375 5.845203e+19 1.012882e-02 1 
    0.379649 8.094197e+19 1.400573e-02 1 
    0.379923 7.680478e+19 1.327069e-02 1 
    0.380197 6.119749e+19 1.055875e-02 1 
    0.380471 6.276477e+19 1.081357e-02 1 
    0.380745 5.959350e+19 1.025243e-02 1 
    0.381019 5.636839e+19 9.683644e-03 1 
    0.381294 4.479872e+19 7.684969e-03 1 
    0.381568 4.557755e+19 7.807347e-03 1 
    0.381842 6.602770e+19 1.129419e-02 1 
    0.382116 5.364370e+19 9.162728e-03 1 
    0.382390 5.214886e+19 8.894638e-03 1 
    0.382664 5.310524e+19 9.044793e-03 1 
    0.382938 6.582521e+19 1.119520e-02 1 
    0.383213 6.997502e+19 1.188390e-02 1 
    0.383487 8.855411e+19 1.501772e-02 1 
    0.383761 7.534786e+19 1.275985e-02 1 
    0.384035 7.324173e+19 1.238550e-02 1 
    0.384309 6.603983e+19 1.115170e-02 1 
    0.384583 6.312136e+19 1.064370e-02 1 
    0.384857 7.323063e+19 1.233078e-02 1 
    0.385132 6.316740e+19 1.062112e-02 1 
    0.385406 7.412751e+19 1.244626e-02 1 
    0.385680 8.077060e+19 1.354240e-02 1 
    0.385954 7.622352e+19 1.276187e-02 1 
