# NGC 3690       
# 
# An Atlas of Galaxy Spectral Energy Distributions from the Ultraviolet to the Mid-Infrared
# Brown et al. (2014)
# http://dx.doi.org/10.5072/03/529D3551F0117
# http://dx.doi.org/10.17909/t9-5bxk-dh29
# 
# The Spectral Energy Distributions of Active Galactic Nuclei
# Brown et al. (2019)
# http://dx.doi.org/10.17909/t9-3dbt-8734
# 
# Column 1: Observed wavelength (um)
# Column 2: L_nu (W/Hz)
# Column 3: f_lam (erg/s/cm2/A)
# Column 4: Source (0 = model, 1 = Optical Spectrun, 2 = Akari, 3 = Spitzer IRS)
# 
  1.0198e-02 1.620736e+08 3.886678e-11 0 
  1.0411e-02 2.413945e+08 5.554422e-11 0 
  1.0605e-02 3.636524e+08 8.064204e-11 0 
  1.0802e-02 5.554845e+08 1.187299e-10 0 
  1.1003e-02 9.455368e+08 1.947837e-10 0 
  1.1389e-02 1.899801e+09 3.652863e-10 0 
  1.1790e-02 3.553621e+09 6.375877e-10 0 
  1.2092e-02 1.662220e+10 2.835233e-09 0 
  1.2488e-02 2.796888e+10 4.472865e-09 0 
  1.2691e-02 3.496897e+10 5.414865e-09 0 
  1.2809e-02 3.996812e+10 6.075468e-09 0 
  1.3107e-02 5.440909e+10 7.898803e-09 0 
  1.3198e-02 6.881586e+10 9.853006e-09 0 
  1.3412e-02 8.369715e+10 1.160433e-08 0 
  1.3693e-02 1.284474e+11 1.708538e-08 0 
  1.4012e-02 1.697102e+11 2.155779e-08 0 
  1.4305e-02 5.776696e+11 7.040447e-08 0 
  1.4706e-02 1.886614e+12 2.175656e-07 0 
  1.5083e-02 2.510442e+12 2.752145e-07 0 
  1.5506e-02 3.370851e+12 3.496524e-07 0 
  1.5904e-02 4.494368e+12 4.431516e-07 0 
  1.6200e-02 5.504278e+12 5.230784e-07 0 
  1.6615e-02 7.289480e+12 6.585554e-07 0 
  1.7002e-02 9.326037e+12 8.046250e-07 0 
  1.7318e-02 1.126364e+13 9.366550e-07 0 
  1.7681e-02 1.418117e+13 1.131344e-06 0 
  1.8010e-02 1.685383e+13 1.295888e-06 0 
  1.8218e-02 1.886772e+13 1.417799e-06 0 
  1.8600e-02 2.337192e+13 1.684865e-06 0 
  1.9121e-02 3.045917e+13 2.077750e-06 0 
  1.9387e-02 3.553714e+13 2.358076e-06 0 
  1.9793e-02 4.312283e+13 2.745241e-06 0 
  2.0207e-02 5.244214e+13 3.203120e-06 0 
  2.0488e-02 6.007490e+13 3.569360e-06 0 
  2.1014e-02 7.189253e+13 4.060344e-06 0 
  2.1602e-02 9.720578e+13 5.195180e-06 0 
  2.2004e-02 1.152679e+14 5.937473e-06 0 
  2.2310e-02 1.287348e+14 6.450498e-06 0 
  2.2725e-02 1.519460e+14 7.338002e-06 0 
  2.2988e-02 2.521698e+14 1.190110e-05 0 
  2.3415e-02 4.728193e+14 2.150817e-05 0 
  2.4016e-02 6.818450e+14 2.948362e-05 0 
  2.4575e-02 7.510604e+14 3.101589e-05 0 
  2.5206e-02 9.261989e+14 3.635740e-05 0 
  2.5674e-02 8.845115e+14 3.346670e-05 0 
  2.5972e-02 1.088197e+15 4.023401e-05 0 
  2.6394e-02 1.252338e+15 4.483401e-05 0 
  2.6885e-02 1.395391e+15 4.814732e-05 0 
  2.7384e-02 1.547731e+15 5.147522e-05 0 
  2.7893e-02 1.716791e+15 5.503302e-05 0 
  2.8412e-02 1.899845e+15 5.869635e-05 0 
  2.9007e-02 2.035696e+15 6.033978e-05 0 
  2.9614e-02 2.321173e+15 6.601002e-05 0 
  3.0096e-02 2.510157e+15 6.911619e-05 0 
  3.0797e-02 2.875429e+15 7.561052e-05 0 
  3.1805e-02 3.465065e+15 8.543132e-05 0 
  3.2772e-02 4.043000e+15 9.388459e-05 0 
  3.3768e-02 4.652600e+15 1.017610e-04 0 
  3.4794e-02 5.317459e+15 1.095448e-04 0 
  3.5686e-02 5.980117e+15 1.171144e-04 0 
  3.6602e-02 6.756214e+15 1.257738e-04 0 
  3.7541e-02 7.493578e+15 1.326093e-04 0 
  3.8504e-02 8.104330e+15 1.363333e-04 0 
  3.9491e-02 9.283147e+15 1.484552e-04 0 
  4.0504e-02 1.036809e+16 1.576156e-04 0 
  4.1353e-02 1.126426e+16 1.642801e-04 0 
  4.2218e-02 1.206996e+16 1.688912e-04 0 
  4.3003e-02 1.290338e+16 1.740213e-04 0 
  4.4106e-02 1.431223e+16 1.834884e-04 0 
  4.5134e-02 1.547778e+16 1.894949e-04 0 
  4.5973e-02 1.650867e+16 1.948062e-04 0 
  4.7044e-02 1.789422e+16 2.016511e-04 0 
  4.8029e-02 1.948534e+16 2.106674e-04 0 
  4.9035e-02 2.073491e+16 2.150732e-04 0 
  4.9946e-02 2.263073e+16 2.262526e-04 0 
    0.050641 2.739792e+16 2.664462e-04 0 
    0.051227 6.678954e+16 6.347563e-04 0 
    0.052060 7.442314e+16 6.848511e-04 0 
    0.053028 8.408347e+16 7.457556e-04 0 
    0.054013 8.683801e+16 7.423517e-04 0 
    0.055018 1.366778e+17 1.126120e-03 0 
    0.056040 1.756713e+17 1.395086e-03 0 
    0.056951 2.136502e+17 1.642847e-03 0 
    0.058010 2.161249e+17 1.601753e-03 0 
    0.058952 2.942374e+17 2.111530e-03 0 
    0.060048 3.293868e+17 2.278272e-03 0 
    0.061024 4.233322e+17 2.835152e-03 0 
    0.062016 5.136710e+17 3.330995e-03 0 
    0.063023 5.979987e+17 3.754902e-03 0 
    0.064047 6.334413e+17 3.851282e-03 0 
    0.064938 7.775271e+17 4.598479e-03 0 
    0.065842 8.824875e+17 5.076905e-03 0 
    0.066451 9.631926e+17 5.440096e-03 0 
    0.067531 1.015541e+18 5.553767e-03 0 
    0.068470 1.051258e+18 5.592491e-03 0 
    0.069423 1.481518e+18 7.666493e-03 0 
    0.070551 1.474670e+18 7.388985e-03 0 
    0.071532 1.886698e+18 9.195982e-03 0 
    0.072527 2.059171e+18 9.763136e-03 0 
    0.073536 2.237221e+18 1.031823e-02 0 
    0.074559 2.689728e+18 1.206715e-02 0 
    0.075423 3.004027e+18 1.317021e-02 0 
    0.076472 3.339665e+18 1.424277e-02 0 
    0.077536 3.816852e+18 1.583416e-02 0 
    0.078434 4.312216e+18 1.748188e-02 0 
    0.079525 4.674170e+18 1.843290e-02 0 
    0.080446 5.066452e+18 1.952502e-02 0 
    0.081565 5.453875e+18 2.044532e-02 0 
    0.082509 6.261872e+18 2.294024e-02 0 
    0.083465 5.113261e+18 1.830567e-02 0 
    0.084431 7.025924e+18 2.458080e-02 0 
    0.085409 7.476627e+18 2.556200e-02 0 
    0.086597 8.408481e+18 2.796458e-02 0 
    0.087600 9.369397e+18 3.045088e-02 0 
    0.088410 1.058569e+19 3.377636e-02 0 
    0.089434 1.157997e+19 3.610758e-02 0 
    0.090469 1.190450e+19 3.627505e-02 0 
    0.091517 1.930656e+19 5.749073e-02 0 
    0.092577 1.519479e+20 4.421656e-01 0 
    0.093433 3.309073e+20 9.453708e-01 0 
    0.094515 5.911535e+20 1.650423e+00 0 
    0.095610 7.810942e+20 2.131048e+00 0 
    0.096494 8.427553e+20 2.257342e+00 0 
    0.097612 1.323429e+20 3.464102e-01 0 
    0.098515 6.190200e+20 1.590730e+00 0 
    0.099426 7.123733e+20 1.797232e+00 0 
    0.100578 1.105870e+21 2.726431e+00 0 
    0.101508 1.155366e+21 2.796505e+00 0 
    0.102448 6.587167e+20 1.565266e+00 0 
    0.103396 9.198213e+20 2.145816e+00 0 
    0.104593 1.624421e+21 3.703308e+00 0 
    0.105561 1.565745e+21 3.504375e+00 0 
    0.106537 1.246525e+21 2.739028e+00 0 
    0.107523 1.512538e+21 3.262873e+00 0 
    0.108518 1.266760e+21 2.682794e+00 0 
    0.109522 1.697013e+21 3.528409e+00 0 
    0.110536 1.598455e+21 3.262791e+00 0 
    0.111558 1.569359e+21 3.144977e+00 0 
    0.112591 1.332667e+21 2.621867e+00 0 
    0.113371 1.814209e+21 3.520302e+00 0 
    0.114420 1.704957e+21 3.247925e+00 0 
    0.115479 1.814236e+21 3.393002e+00 0 
    0.116547 1.847976e+21 3.393053e+00 0 
    0.117626 1.098253e+21 1.979666e+00 0 
    0.118441 1.886743e+21 3.354324e+00 0 
    0.119537 1.613289e+21 2.815815e+00 0 
    0.120365 1.139485e+21 1.961573e+00 0 
    0.121479 1.013227e+21 1.712383e+00 0 
    0.122603 1.724711e+21 2.861610e+00 0 
    0.123453 2.221837e+21 3.635845e+00 0 
    0.124595 2.326469e+21 3.737597e+00 0 
    0.125459 2.263123e+21 3.585924e+00 0 
    0.126620 2.237143e+21 3.480051e+00 0 
    0.127498 2.568651e+21 3.940895e+00 0 
    0.128381 2.652756e+21 4.014137e+00 0 
    0.129569 2.107138e+21 3.130309e+00 0 
    0.130467 2.263140e+21 3.315938e+00 0 
    0.131372 2.784267e+21 4.023479e+00 0 
    0.132587 2.658994e+21 3.772349e+00 0 
    0.133506 2.504471e+21 3.504377e+00 0 
    0.134432 2.829495e+21 3.904812e+00 0 
    0.135364 2.809917e+21 3.824578e+00 0 
    0.136616 2.592373e+21 3.464103e+00 0 
    0.137563 2.640541e+21 3.480055e+00 0 
    0.138517 2.658995e+21 3.456271e+00 0 
    0.139477 1.993908e+21 2.556209e+00 0 
    0.140444 2.176331e+21 2.751788e+00 0 
    0.141417 2.556848e+21 3.188586e+00 0 
    0.142397 2.604339e+21 3.203261e+00 0 
    0.143384 2.739680e+21 3.323494e+00 0 
    0.144046 2.868778e+21 3.448189e+00 0 
    0.144711 2.875357e+21 3.424405e+00 0 
    0.145379 2.822881e+21 3.331085e+00 0 
    0.146387 2.622489e+21 3.052145e+00 0 
    0.147402 2.745955e+21 3.151977e+00 0 
    0.148423 2.797108e+21 3.166673e+00 0 
    0.149452 2.835999e+21 3.166643e+00 0 
    0.150488 2.634535e+21 2.901327e+00 0 
    0.151183 2.337255e+21 2.550332e+00 0 
    0.151531 2.481538e+21 2.695345e+00 0 
    0.152582 2.580470e+21 2.764322e+00 0 
    0.153639 2.196373e+21 2.320597e+00 0 
    0.154348 2.221774e+21 2.325918e+00 0 
    0.155418 2.216680e+21 2.288742e+00 0 
    0.156495 2.441773e+21 2.486571e+00 0 
    0.157580 2.683615e+21 2.695345e+00 0 
    0.158673 2.816487e+21 2.789961e+00 0 
    0.159405 2.849205e+21 2.796509e+00 0 
    0.160510 2.942292e+21 2.848250e+00 0 
    0.161623 2.976372e+21 2.841694e+00 0 
    0.162369 2.908864e+21 2.751780e+00 0 
    0.163494 3.196711e+21 2.982608e+00 0 
    0.164627 3.278675e+21 3.017121e+00 0 
    0.165387 3.196636e+21 2.914654e+00 0 
    0.166534 3.433233e+21 3.087408e+00 0 
    0.167302 3.233836e+21 2.881457e+00 0 
    0.167688 3.611584e+21 3.203245e+00 0 
    0.168462 3.653327e+21 3.210562e+00 0 
    0.169630 3.489120e+21 3.024175e+00 0 
    0.170413 3.441042e+21 2.955160e+00 0 
    0.171594 3.286130e+21 2.783409e+00 0 
    0.172386 3.301302e+21 2.770624e+00 0 
    0.173581 3.570171e+21 2.955160e+00 0 
    0.174382 3.513342e+21 2.881467e+00 0 
    0.175591 3.712797e+21 3.003261e+00 0 
    0.176401 3.603321e+21 2.888001e+00 0 
    0.177624 3.529421e+21 2.789951e+00 0 
    0.178444 3.687257e+21 2.887992e+00 0 
    0.179681 3.932798e+21 3.038042e+00 0 
    0.180510 4.015293e+21 3.073344e+00 0 
    0.181343 3.603289e+21 2.732713e+00 0 
    0.182600 3.843219e+21 2.874683e+00 0 
    0.183443 3.747193e+21 2.777155e+00 0 
    0.184290 3.441143e+21 2.526944e+00 0 
    0.185568 3.521290e+21 2.550305e+00 0 
    0.186424 3.653592e+21 2.621880e+00 0 
    0.187285 3.987371e+21 2.835157e+00 0 
    0.188583 3.611618e+21 2.532755e+00 0 
    0.189453 3.409627e+21 2.369193e+00 0 
    0.190328 3.808192e+21 2.621862e+00 0 
    0.191647 3.603321e+21 2.446783e+00 0 
    0.192532 3.513196e+21 2.363703e+00 0 
    0.193420 3.790545e+21 2.526943e+00 0 
    0.194313 3.969351e+21 2.621877e+00 0 
    0.195660 3.645067e+21 2.374641e+00 0 
    0.196563 4.099088e+21 2.645941e+00 0 
    0.197470 4.312324e+21 2.758072e+00 0 
    0.198382 4.061665e+21 2.573926e+00 0 
    0.199297 4.024386e+21 2.526938e+00 0 
    0.200679 4.282648e+21 2.652192e+00 0 
    0.201605 4.233541e+21 2.597751e+00 0 
    0.202536 4.474091e+21 2.720175e+00 0 
    0.203471 4.137163e+21 2.492264e+00 0 
    0.204410 4.342127e+21 2.591760e+00 0 
    0.205353 4.194708e+21 2.480824e+00 0 
    0.206301 4.282557e+21 2.509556e+00 0 
    0.207254 4.674108e+21 2.713872e+00 0 
    0.207731 4.233542e+21 2.446795e+00 0 
    0.208690 4.546790e+21 2.603743e+00 0 
    0.209653 4.322196e+21 2.452442e+00 0 
    0.210621 4.515495e+21 2.538624e+00 0 
    0.211593 4.610009e+21 2.568004e+00 0 
    0.212570 4.717414e+21 2.603734e+00 0 
    0.213551 4.599391e+21 2.515322e+00 0 
    0.214537 4.525882e+21 2.452422e+00 0 
    0.215527 4.794078e+21 2.573938e+00 0 
    0.216522 4.805113e+21 2.556207e+00 0 
    0.217521 4.816207e+21 2.538629e+00 0 
    0.218525 4.717444e+21 2.463774e+00 0 
    0.219534 4.928392e+21 2.550340e+00 0 
    0.220547 4.928370e+21 2.526954e+00 0 
    0.221565 4.838416e+21 2.458088e+00 0 
    0.222588 4.750074e+21 2.391076e+00 0 
    0.223616 4.894482e+21 2.441167e+00 0 
    0.224648 4.917039e+21 2.429937e+00 0 
    0.225685 4.794065e+21 2.347443e+00 0 
    0.226726 4.951104e+21 2.402126e+00 0 
    0.227249 4.996956e+21 2.413226e+00 0 
    0.228298 5.102417e+21 2.441564e+00 0 
    0.229352 4.807215e+21 2.279213e+00 0 
    0.230410 5.023540e+21 2.359954e+00 0 
    0.231474 4.876740e+21 2.269978e+00 0 
    0.232542 4.085493e+21 1.884248e+00 0 
    0.233616 4.713705e+21 2.154040e+00 0 
    0.234694 4.769596e+21 2.159604e+00 0 
    0.235235 4.926530e+21 2.220412e+00 0 
    0.236321 4.815704e+21 2.150560e+00 0 
    0.237412 4.861615e+21 2.151155e+00 0 
    0.238507 4.774205e+21 2.093125e+00 0 
    0.239608 4.931976e+21 2.142470e+00 0 
    0.240714 4.843312e+21 2.084665e+00 0 
    0.241269 4.911380e+21 2.104248e+00 0 
    0.242383 5.073749e+21 2.153878e+00 0 
    0.243502 4.948261e+21 2.081345e+00 0 
    0.244626 5.147249e+21 2.145193e+00 0 
    0.245755 5.184372e+21 2.140858e+00 0 
    0.246321 5.137611e+21 2.111810e+00 0 
    0.247458 5.080281e+21 2.069098e+00 0 
    0.248601 5.128772e+21 2.069684e+00 0 
    0.249748 4.582858e+21 1.832436e+00 0 
    0.250324 5.202348e+21 2.070575e+00 0 
    0.251479 4.924077e+21 1.941859e+00 0 
    0.252059 5.156910e+21 2.024331e+00 0 
    0.252640 5.051862e+21 1.973985e+00 0 
    0.253222 5.075942e+21 1.974287e+00 0 
    0.254391 5.007801e+21 1.929923e+00 0 
    0.255565 5.245322e+21 2.002930e+00 0 
    0.256745 5.222833e+21 1.976053e+00 0 
    0.257337 5.382289e+21 2.027024e+00 0 
    0.258525 5.383888e+21 2.009035e+00 0 
    0.259718 5.385569e+21 1.991242e+00 0 
    0.260317 5.312485e+21 1.955191e+00 0 
    0.261518 5.301854e+21 1.933397e+00 0 
    0.262725 5.427033e+21 1.960903e+00 0 
    0.263331 5.503284e+21 1.979313e+00 0 
    0.264546 5.724788e+21 2.040109e+00 0 
    0.265767 5.832952e+21 2.059599e+00 0 
    0.266380 5.507534e+21 1.935755e+00 0 
    0.267610 5.702824e+21 1.986011e+00 0 
    0.268227 5.730037e+21 1.986319e+00 0 
    0.269465 5.562807e+21 1.910670e+00 0 
    0.270709 5.616057e+21 1.911272e+00 0 
    0.271333 5.552601e+21 1.880995e+00 0 
    0.272585 5.618720e+21 1.885949e+00 0 
    0.273213 5.737293e+21 1.916906e+00 0 
    0.274475 5.417985e+21 1.793613e+00 0 
    0.275741 5.507800e+21 1.806641e+00 0 
    0.276377 5.611110e+21 1.832067e+00 0 
    0.277653 5.796756e+21 1.875326e+00 0 
    0.278293 5.665721e+21 1.824513e+00 0 
    0.279577 5.192761e+21 1.656883e+00 0 
    0.280222 5.400917e+21 1.715377e+00 0 
    0.281515 5.856086e+21 1.842896e+00 0 
    0.282815 5.994444e+21 1.869134e+00 0 
    0.283467 5.778557e+21 1.793539e+00 0 
    0.284775 5.833978e+21 1.794145e+00 0 
    0.285432 5.741601e+21 1.757617e+00 0 
    0.286749 6.041976e+21 1.832617e+00 0 
    0.287410 6.042943e+21 1.824489e+00 0 
    0.288737 6.058946e+21 1.812544e+00 0 
    0.289402 6.045984e+21 1.800364e+00 0 
    0.290738 6.260526e+21 1.847157e+00 0 
    0.292753 6.220589e+21 1.810195e+00 0 
    0.294783 6.180915e+21 1.773962e+00 0 
    0.296826 6.299011e+21 1.783056e+00 0 
    0.298884 6.345913e+21 1.771680e+00 0 
    0.300955 6.363876e+21 1.752327e+00 0 
    0.303041 6.470563e+21 1.757259e+00 0 
    0.305142 6.533860e+21 1.750098e+00 0 
    0.307257 6.597834e+21 1.742987e+00 0 
    0.308675 6.569802e+21 1.719673e+00 0 
    0.310815 6.664745e+21 1.720585e+00 0 
    0.312969 6.653055e+21 1.694006e+00 0 
    0.315139 6.733639e+21 1.690994e+00 0 
    0.317323 6.752900e+21 1.672568e+00 0 
    0.318788 6.616731e+21 1.623813e+00 0 
    0.320998 6.805880e+21 1.647313e+00 0 
    0.323223 6.700711e+21 1.599605e+00 0 
    0.324715 6.922828e+21 1.637477e+00 0 
    0.326966 7.055470e+21 1.645952e+00 0 
    0.329232 7.092045e+21 1.631788e+00 0 
    0.330752 7.111093e+21 1.621167e+00 0 
    0.332278 7.448974e+21 1.682634e+00 0 
    0.333044 7.502077e+21 1.686843e+00 0 
    0.333812 7.248776e+21 1.622397e+00 0 
    0.334582 7.283546e+21 1.622685e+00 0 
    0.335353 7.218137e+21 1.600727e+00 0 
    0.336126 7.336829e+21 1.619573e+00 0 
    0.336901 7.220921e+21 1.586662e+00 0 
    0.337677 7.106902e+21 1.554439e+00 0 
    0.338456 7.341034e+21 1.598267e+00 0 
    0.339236 7.565647e+21 1.639603e+00 0 
    0.340018 7.761241e+21 1.674264e+00 0 
    0.340802 7.379268e+21 1.584548e+00 0 
    0.341588 7.500658e+21 1.603211e+00 0 
    0.342375 7.891920e+21 1.679094e+00 0 
    0.343164 7.893443e+21 1.671704e+00 0 
    0.343955 7.913123e+21 1.668173e+00 0 
    0.344748 7.558487e+21 1.586090e+00 0 
    0.345543 7.542565e+21 1.575474e+00 0 
    0.346339 7.406403e+21 1.539930e+00 0 
    0.347138 7.703568e+21 1.594352e+00 0 
    0.347938 7.546994e+21 1.554772e+00 0 
    0.348740 7.496574e+21 1.537290e+00 0 
    0.349544 7.833388e+21 1.598978e+00 0 
    0.350350 7.745260e+21 1.573723e+00 0 
    0.351157 7.746758e+21 1.566801e+00 0 
    0.351967 7.874188e+21 1.585252e+00 0 
    0.352778 7.732097e+21 1.549497e+00 0 
    0.353592 8.079423e+21 1.611654e+00 0 
    0.354407 8.193440e+21 1.626890e+00 0 
    0.355224 8.309182e+21 1.642291e+00 0 
    0.356043 8.272579e+21 1.627543e+00 0 
    0.356863 7.993379e+21 1.565395e+00 0 
    0.357686 7.688183e+21 1.498705e+00 0 
    0.358511 7.636772e+21 1.481840e+00 0 
    0.359337 7.816154e+21 1.509683e+00 0 
    0.360165 8.262022e+21 1.588473e+00 0 
    0.360996 8.094186e+21 1.549048e+00 0 
    0.361828 8.246406e+21 1.570930e+00 0 
    0.362662 8.636788e+21 1.637739e+00 0 
    0.363498 8.383761e+21 1.582455e+00 0 
    0.364336 8.780732e+21 1.649768e+00 0 
    0.364961 8.333310e+21 1.560347e+00 1 
    0.365234 7.175625e+21 1.341571e+00 1 
    0.365506 8.478327e+21 1.582769e+00 1 
    0.365778 8.464736e+21 1.577883e+00 1 
    0.366050 8.592780e+21 1.599371e+00 1 
    0.366322 8.352532e+21 1.552346e+00 1 
    0.366594 7.892645e+21 1.464699e+00 1 
    0.366867 7.840042e+21 1.452772e+00 1 
    0.367139 8.267602e+21 1.529731e+00 1 
    0.367411 8.846381e+21 1.634398e+00 1 
    0.367683 8.879897e+21 1.638163e+00 1 
    0.367955 8.094252e+21 1.491021e+00 1 
    0.368227 8.177146e+21 1.504066e+00 1 
    0.368500 8.630169e+21 1.585042e+00 1 
    0.368772 8.261776e+21 1.515144e+00 1 
    0.369044 8.466686e+21 1.550435e+00 1 
    0.369316 8.566956e+21 1.566487e+00 1 
    0.369588 8.549379e+21 1.560973e+00 1 
    0.369860 8.357227e+21 1.523645e+00 1 
    0.370133 8.643648e+21 1.573540e+00 1 
    0.370405 8.239910e+21 1.497839e+00 1 
    0.370677 8.347650e+21 1.515198e+00 1 
    0.370949 9.823518e+21 1.780472e+00 1 
    0.371221 1.083268e+22 1.960502e+00 1 
    0.371493 1.390169e+22 2.512249e+00 1 
    0.371766 2.199723e+22 3.969402e+00 1 
    0.372038 3.535157e+22 6.369869e+00 1 
    0.372310 4.836428e+22 8.701854e+00 1 
    0.372582 4.905921e+22 8.814003e+00 1 
    0.372854 3.743321e+22 6.715462e+00 1 
    0.373126 2.205496e+22 3.950860e+00 1 
    0.373399 1.392481e+22 2.490803e+00 1 
    0.373671 1.095665e+22 1.957020e+00 1 
    0.373943 9.235691e+21 1.647233e+00 1 
    0.374215 9.166210e+21 1.632465e+00 1 
    0.374487 9.116047e+21 1.621174e+00 1 
    0.374759 8.540192e+21 1.516561e+00 1 
    0.375032 9.206843e+21 1.632565e+00 1 
    0.375304 9.635647e+21 1.706125e+00 1 
    0.375576 9.986273e+21 1.765648e+00 1 
    0.375848 9.412360e+21 1.661768e+00 1 
    0.376120 9.777853e+21 1.723801e+00 1 
    0.376392 9.921195e+21 1.746545e+00 1 
    0.376665 9.488096e+21 1.667881e+00 1 
    0.376937 9.364956e+21 1.643859e+00 1 
    0.377209 9.906421e+21 1.736397e+00 1 
    0.377481 1.104667e+22 1.933471e+00 1 
    0.377753 1.074717e+22 1.878343e+00 1 
    0.378025 1.055237e+22 1.841643e+00 1 
    0.378298 1.079662e+22 1.881551e+00 1 
    0.378570 1.027920e+22 1.788807e+00 1 
    0.378842 1.026014e+22 1.782927e+00 1 
    0.379114 9.721419e+21 1.686889e+00 1 
    0.379386 9.357778e+21 1.621461e+00 1 
    0.379658 9.624868e+21 1.665352e+00 1 
    0.379931 1.003582e+22 1.733963e+00 1 
    0.380203 1.060792e+22 1.830187e+00 1 
    0.380475 1.089607e+22 1.877215e+00 1 
    0.380747 1.112925e+22 1.914650e+00 1 
    0.381019 1.073539e+22 1.844256e+00 1 
    0.381291 1.097138e+22 1.882109e+00 1 
    0.381564 1.080241e+22 1.850471e+00 1 
    0.381836 1.048728e+22 1.793931e+00 1 
    0.382108 1.038012e+22 1.773072e+00 1 
    0.382380 1.065574e+22 1.817565e+00 1 
    0.382652 9.564399e+21 1.629094e+00 1 
    0.382924 9.001218e+21 1.530991e+00 1 
    0.383197 9.468352e+21 1.608150e+00 1 
    0.383469 1.030638e+22 1.748002e+00 1 
    0.383741 9.946882e+21 1.684640e+00 1 
    0.384013 1.042747e+22 1.763533e+00 1 
    0.384285 1.068232e+22 1.804078e+00 1 
    0.384557 1.153974e+22 1.946126e+00 1 
    0.384830 1.155717e+22 1.946301e+00 1 
    0.385102 1.149549e+22 1.933180e+00 1 
    0.385374 1.206309e+22 2.025771e+00 1 
    0.385646 1.219658e+22 2.045300e+00 1 
    0.385918 1.264402e+22 2.117344e+00 1 
    0.386190 1.287836e+22 2.153550e+00 1 
    0.386463 1.376689e+22 2.298881e+00 1 
