# NGC 7673       
# 
# An Atlas of Galaxy Spectral Energy Distributions from the Ultraviolet to the Mid-Infrared
# Brown et al. (2014)
# http://dx.doi.org/10.5072/03/529D3551F0117
# http://dx.doi.org/10.17909/t9-5bxk-dh29
# 
# The Spectral Energy Distributions of Active Galactic Nuclei
# Brown et al. (2019)
# http://dx.doi.org/10.17909/t9-3dbt-8734
# 
# Column 1: Observed wavelength (um)
# Column 2: L_nu (W/Hz)
# Column 3: f_lam (erg/s/cm2/A)
# Column 4: Source (0 = model, 1 = Optical Spectrun, 2 = Akari, 3 = Spitzer IRS)
# 
  1.0002e-02 2.101511e+07 5.239072e-12 0 
  1.0212e-02 3.108532e+07 7.434130e-12 0 
  1.0401e-02 4.261371e+07 9.824164e-12 0 
  1.0595e-02 5.977275e+07 1.327999e-11 0 
  1.0792e-02 8.384703e+07 1.795479e-11 0 
  1.0992e-02 1.388320e+08 2.865712e-11 0 
  1.1405e-02 2.526650e+08 4.844522e-11 0 
  1.1806e-02 4.300609e+08 7.695217e-11 0 
  1.2109e-02 1.170868e+09 1.991535e-10 0 
  1.2505e-02 1.938615e+09 3.091865e-10 0 
  1.2708e-02 2.463374e+09 3.804278e-10 0 
  1.2796e-02 2.776724e+09 4.229419e-10 0 
  1.3095e-02 3.876963e+09 5.638676e-10 0 
  1.3185e-02 4.544644e+09 6.519825e-10 0 
  1.3400e-02 5.643249e+09 7.838195e-10 0 
  1.3712e-02 8.101093e+09 1.074579e-09 0 
  1.3999e-02 1.095273e+10 1.393878e-09 0 
  1.4292e-02 1.859935e+10 2.270953e-09 0 
  1.4692e-02 3.180532e+10 3.674805e-09 0 
  1.5104e-02 4.565974e+10 4.991671e-09 0 
  1.5491e-02 6.464600e+10 6.718607e-09 0 
  1.5889e-02 9.046761e+10 8.937097e-09 0 
  1.6184e-02 1.152147e+11 1.097066e-08 0 
  1.6599e-02 1.579492e+11 1.429717e-08 0 
  1.6986e-02 2.125765e+11 1.837509e-08 0 
  1.7302e-02 2.645419e+11 2.203932e-08 0 
  1.7705e-02 3.495673e+11 2.781220e-08 0 
  1.7992e-02 4.280762e+11 3.298061e-08 0 
  1.8201e-02 4.892652e+11 3.683412e-08 0 
  1.8582e-02 6.302608e+11 4.552309e-08 0 
  1.9103e-02 8.580764e+11 5.864342e-08 0 
  1.9413e-02 1.029274e+12 6.811490e-08 0 
  1.9819e-02 1.295763e+12 8.227324e-08 0 
  2.0188e-02 1.612533e+12 9.867757e-08 0 
  2.0516e-02 1.903334e+12 1.127784e-07 0 
  2.0994e-02 2.418251e+12 1.368382e-07 0 
  2.1582e-02 3.322832e+12 1.779186e-07 0 
  2.1983e-02 4.022685e+12 2.076054e-07 0 
  2.2289e-02 4.618547e+12 2.318572e-07 0 
  2.2703e-02 5.552860e+12 2.686870e-07 0 
  2.3019e-02 1.394828e+13 6.565144e-07 0 
  2.3393e-02 2.215693e+13 1.009797e-06 0 
  2.3993e-02 3.072655e+13 1.331194e-06 0 
  2.4609e-02 3.601950e+13 1.483359e-06 0 
  2.5182e-02 4.380332e+13 1.722753e-06 0 
  2.5709e-02 4.451788e+13 1.679812e-06 0 
  2.6007e-02 5.352142e+13 1.973529e-06 0 
  2.6430e-02 6.116687e+13 2.183828e-06 0 
  2.6921e-02 6.926612e+13 2.383609e-06 0 
  2.7421e-02 7.825749e+13 2.595708e-06 0 
  2.7931e-02 8.780751e+13 2.807082e-06 0 
  2.8385e-02 9.806468e+13 3.035507e-06 0 
  2.8979e-02 1.085227e+14 3.222925e-06 0 
  2.9586e-02 1.251793e+14 3.566618e-06 0 
  3.0067e-02 1.347491e+14 3.717423e-06 0 
  3.0767e-02 1.568608e+14 4.132763e-06 0 
  3.1775e-02 1.934358e+14 4.778176e-06 0 
  3.2816e-02 2.314752e+14 5.360801e-06 0 
  3.3814e-02 2.744811e+14 5.987089e-06 0 
  3.4761e-02 3.224975e+14 6.656382e-06 0 
  3.5735e-02 3.771535e+14 7.365921e-06 0 
  3.6567e-02 4.410804e+14 8.226887e-06 0 
  3.7505e-02 5.087480e+14 9.020297e-06 0 
  3.8467e-02 5.909248e+14 9.959832e-06 0 
  3.9545e-02 7.219478e+14 1.151381e-05 0 
  4.0466e-02 8.580623e+14 1.306877e-05 0 
  4.1409e-02 1.017447e+15 1.479853e-05 0 
  4.2178e-02 1.168205e+15 1.637734e-05 0 
  4.2963e-02 1.356806e+15 1.833264e-05 0 
  4.4065e-02 1.708146e+15 2.193987e-05 0 
  4.5091e-02 2.096568e+15 2.571731e-05 0 
  4.6035e-02 2.503301e+15 2.946003e-05 0 
  4.6999e-02 3.122685e+15 3.525717e-05 0 
  4.7983e-02 3.904206e+15 4.229163e-05 0 
  4.8988e-02 4.836435e+15 5.026231e-05 0 
    0.050014 6.158920e+15 6.140699e-05 0 
    0.050593 2.407236e+16 2.345494e-04 0 
    0.051179 9.408703e+16 8.958651e-04 0 
    0.052010 1.008145e+17 9.294926e-04 0 
    0.052977 1.107970e+17 9.845768e-04 0 
    0.053962 1.123356e+17 9.621393e-04 0 
    0.054966 1.529371e+17 1.262470e-03 0 
    0.055987 1.938731e+17 1.542551e-03 0 
    0.057028 2.283106e+17 1.750839e-03 0 
    0.057955 2.336280e+17 1.734760e-03 0 
    0.059032 2.887530e+17 2.066560e-03 0 
    0.059992 3.086916e+17 2.139118e-03 0 
    0.060966 3.736752e+17 2.507352e-03 0 
    0.061957 4.502950e+17 2.925585e-03 0 
    0.062964 5.040964e+17 3.171213e-03 0 
    0.063987 5.501935e+17 3.351417e-03 0 
    0.065027 6.331695e+17 3.734470e-03 0 
    0.065780 6.847417e+17 3.946713e-03 0 
    0.066541 7.577653e+17 4.268277e-03 0 
    0.067467 8.308636e+17 4.552431e-03 0 
    0.068563 8.680033e+17 4.605091e-03 0 
    0.069517 1.075249e+18 5.549114e-03 0 
    0.070484 1.090219e+18 5.473046e-03 0 
    0.071629 1.350586e+18 6.565096e-03 0 
    0.072626 1.467281e+18 6.937858e-03 0 
    0.073467 1.594112e+18 7.365984e-03 0 
    0.074489 1.796926e+18 8.076858e-03 0 
    0.075525 1.970286e+18 8.614779e-03 0 
    0.076576 2.160312e+18 9.188138e-03 0 
    0.077462 2.390662e+18 9.936585e-03 0 
    0.078540 2.670054e+18 1.079530e-02 0 
    0.079449 2.887525e+18 1.140894e-02 0 
    0.080555 3.129817e+18 1.202903e-02 0 
    0.081487 3.369158e+18 1.265439e-02 0 
    0.082431 3.736961e+18 1.371620e-02 0 
    0.083578 3.585256e+18 1.280067e-02 0 
    0.084546 4.300556e+18 1.500496e-02 0 
    0.085525 4.640027e+18 1.582089e-02 0 
    0.086515 5.075948e+18 1.691339e-02 0 
    0.087517 5.540193e+18 1.804000e-02 0 
    0.088530 6.060599e+18 1.928551e-02 0 
    0.089555 6.554178e+18 2.038145e-02 0 
    0.090592 6.942547e+18 2.109772e-02 0 
    0.091430 1.019817e+19 3.042575e-02 0 
    0.092489 6.046773e+19 1.762950e-01 0 
    0.093560 1.301735e+20 3.708846e-01 0 
    0.094426 2.633392e+20 7.365950e-01 0 
    0.095519 3.610139e+20 9.868266e-01 0 
    0.096403 4.565844e+20 1.225283e+00 0 
    0.097519 1.401267e+20 3.674845e-01 0 
    0.098422 5.158493e+20 1.328113e+00 0 
    0.099561 5.194201e+20 1.306883e+00 0 
    0.100483 6.230430e+20 1.538967e+00 0 
    0.101412 5.854916e+20 1.419837e+00 0 
    0.102587 2.585394e+20 6.126868e-01 0 
    0.103536 5.194272e+20 1.208477e+00 0 
    0.104494 7.952821e+20 1.816498e+00 0 
    0.105461 8.044957e+20 1.804000e+00 0 
    0.106437 7.337129e+20 1.615241e+00 0 
    0.107421 8.308514e+20 1.795732e+00 0 
    0.108415 7.577394e+20 1.607821e+00 0 
    0.109418 8.923127e+20 1.858814e+00 0 
    0.110431 8.720062e+20 1.783339e+00 0 
    0.111453 8.902738e+20 1.787461e+00 0 
    0.112484 8.404745e+20 1.656683e+00 0 
    0.113525 9.605441e+20 1.858792e+00 0 
    0.114575 9.258066e+20 1.758883e+00 0 
    0.115369 9.739143e+20 1.824900e+00 0 
    0.116437 1.012796e+21 1.863101e+00 0 
    0.117514 8.251153e+20 1.490156e+00 0 
    0.118602 1.036382e+21 1.837521e+00 0 
    0.119424 9.194239e+20 1.607789e+00 0 
    0.120529 7.647571e+20 1.312916e+00 0 
    0.121364 4.004175e+20 6.780001e-01 0 
    0.122487 8.580749e+20 1.426401e+00 0 
    0.123621 1.105405e+21 1.803986e+00 0 
    0.124477 1.170906e+21 1.884692e+00 0 
    0.125629 1.181730e+21 1.867390e+00 0 
    0.126500 1.152176e+21 1.795702e+00 0 
    0.127377 1.260436e+21 1.937471e+00 0 
    0.128556 1.295750e+21 1.955388e+00 0 
    0.129447 1.189927e+21 1.771058e+00 0 
    0.130644 1.228917e+21 1.795727e+00 0 
    0.131550 1.356807e+21 1.955387e+00 0 
    0.132462 1.332058e+21 1.893376e+00 0 
    0.133380 1.292755e+21 1.812305e+00 0 
    0.134614 1.391605e+21 1.915278e+00 0 
    0.135547 1.407727e+21 1.910887e+00 0 
    0.136487 1.372514e+21 1.837514e+00 0 
    0.137433 1.398039e+21 1.846008e+00 0 
    0.138386 1.430608e+21 1.863085e+00 0 
    0.139345 1.298734e+21 1.668145e+00 0 
    0.140634 1.363070e+21 1.718834e+00 0 
    0.141609 1.457200e+21 1.812317e+00 0 
    0.142591 1.463938e+21 1.795704e+00 0 
    0.143579 1.504933e+21 1.820672e+00 0 
    0.144242 1.543542e+21 1.850254e+00 0 
    0.144574 1.543548e+21 1.841773e+00 0 
    0.145576 1.547094e+21 1.820679e+00 0 
    0.146585 1.522369e+21 1.767003e+00 0 
    0.147602 1.543534e+21 1.766966e+00 0 
    0.148625 1.561416e+21 1.762915e+00 0 
    0.149655 1.579492e+21 1.758861e+00 0 
    0.150346 1.543549e+21 1.703072e+00 0 
    0.151040 1.474089e+21 1.611522e+00 0 
    0.151737 1.525889e+21 1.652861e+00 0 
    0.152437 1.547111e+21 1.660493e+00 0 
    0.153494 1.453846e+21 1.538977e+00 0 
    0.154558 1.494593e+21 1.560402e+00 0 
    0.155629 1.474067e+21 1.517863e+00 0 
    0.156347 1.536454e+21 1.567606e+00 0 
    0.157431 1.616286e+21 1.626425e+00 0 
    0.158522 1.650139e+21 1.637713e+00 0 
    0.159621 1.692479e+21 1.656684e+00 0 
    0.160358 1.669248e+21 1.618960e+00 0 
    0.161470 1.684692e+21 1.611511e+00 0 
    0.162589 1.692470e+21 1.596743e+00 0 
    0.163339 1.751931e+21 1.637698e+00 0 
    0.164472 1.764071e+21 1.626405e+00 0 
    0.165612 1.760018e+21 1.600405e+00 0 
    0.166376 1.834505e+21 1.652852e+00 0 
    0.167144 1.784496e+21 1.593054e+00 0 
    0.167529 1.868628e+21 1.660501e+00 0 
    0.168691 1.894612e+21 1.660477e+00 0 
    0.169469 1.864327e+21 1.618968e+00 0 
    0.170644 1.851479e+21 1.585744e+00 0 
    0.171432 1.817668e+21 1.542507e+00 0 
    0.172620 1.834512e+21 1.535447e+00 0 
    0.173417 1.903341e+21 1.578446e+00 0 
    0.174619 1.894627e+21 1.549663e+00 0 
    0.175425 1.952175e+21 1.582093e+00 0 
    0.176641 1.903354e+21 1.521363e+00 0 
    0.177456 1.929816e+21 1.528379e+00 0 
    0.178686 1.974761e+21 1.542517e+00 0 
    0.179511 2.025446e+21 1.567599e+00 0 
    0.180339 2.044187e+21 1.567609e+00 0 
    0.181589 1.988470e+21 1.503961e+00 0 
    0.182428 2.034815e+21 1.524889e+00 0 
    0.183692 2.030108e+21 1.500497e+00 0 
    0.184540 1.943195e+21 1.423088e+00 0 
    0.185392 1.947682e+21 1.413294e+00 0 
    0.186677 2.006875e+21 1.436267e+00 0 
    0.187539 2.091822e+21 1.483331e+00 0 
    0.188404 1.983892e+21 1.393908e+00 0 
    0.189710 1.934301e+21 1.340418e+00 0 
    0.190586 2.058365e+21 1.413308e+00 0 
    0.191466 2.006856e+21 1.365304e+00 0 
    0.192349 1.983882e+21 1.337311e+00 0 
    0.193683 2.077399e+21 1.381126e+00 0 
    0.194577 2.140528e+21 1.410049e+00 0 
    0.195475 2.039471e+21 1.331164e+00 0 
    0.196830 2.170310e+21 1.397126e+00 0 
    0.197738 2.246574e+21 1.432969e+00 0 
    0.198194 2.165294e+21 1.374777e+00 0 
    0.199568 2.155352e+21 1.349686e+00 0 
    0.200489 2.215729e+21 1.374776e+00 0 
    0.201415 2.225967e+21 1.368458e+00 0 
    0.202344 2.293641e+21 1.397144e+00 0 
    0.203278 2.225977e+21 1.343496e+00 0 
    0.204687 2.267337e+21 1.349684e+00 0 
    0.205632 2.205552e+21 1.300865e+00 0 
    0.206581 2.262165e+21 1.322026e+00 0 
    0.207535 2.379694e+21 1.377954e+00 0 
    0.208013 2.288325e+21 1.318965e+00 0 
    0.208493 2.341648e+21 1.343492e+00 0 
    0.209455 2.288314e+21 1.300860e+00 0 
    0.210422 2.352438e+21 1.325050e+00 0 
    0.211393 2.374198e+21 1.325050e+00 0 
    0.212369 2.423948e+21 1.340410e+00 0 
    0.213349 2.396191e+21 1.312915e+00 0 
    0.214334 2.385159e+21 1.294886e+00 0 
    0.215323 2.446343e+21 1.315930e+00 0 
    0.216317 2.440705e+21 1.300860e+00 0 
    0.217316 2.446342e+21 1.291904e+00 0 
    0.218319 2.452020e+21 1.283032e+00 0 
    0.219326 2.503341e+21 1.297885e+00 0 
    0.220339 2.491844e+21 1.280072e+00 0 
    0.221356 2.480384e+21 1.262504e+00 0 
    0.222377 2.463315e+21 1.242329e+00 0 
    0.223404 2.514909e+21 1.256715e+00 0 
    0.224435 2.520671e+21 1.248048e+00 0 
    0.225471 2.497583e+21 1.225279e+00 0 
    0.226512 2.532327e+21 1.230931e+00 0 
    0.227557 2.561538e+21 1.233720e+00 0 
    0.228608 2.590227e+21 1.236094e+00 0 
    0.229663 2.536182e+21 1.199209e+00 0 
    0.230723 2.576457e+21 1.207084e+00 0 
    0.231255 2.552371e+21 1.190304e+00 0 
    0.232322 2.305589e+21 1.065363e+00 0 
    0.233395 2.532934e+21 1.159678e+00 0 
    0.234472 2.520289e+21 1.143312e+00 0 
    0.235554 2.578063e+21 1.158802e+00 0 
    0.236641 2.547609e+21 1.134617e+00 0 
    0.237734 2.576100e+21 1.136780e+00 0 
    0.238282 2.528591e+21 1.110689e+00 0 
    0.239382 2.586487e+21 1.125703e+00 0 
    0.240487 2.573654e+21 1.109848e+00 0 
    0.241597 2.590491e+21 1.106867e+00 0 
    0.242712 2.637632e+21 1.116678e+00 0 
    0.243271 2.594961e+21 1.093570e+00 0 
    0.244394 2.648247e+21 1.105793e+00 0 
    0.245522 2.659392e+21 1.100267e+00 0 
    0.246656 2.652274e+21 1.087255e+00 0 
    0.247224 2.639519e+21 1.077060e+00 0 
    0.248365 2.675192e+21 1.081610e+00 0 
    0.249512 2.583317e+21 1.034883e+00 0 
    0.250663 2.710257e+21 1.075787e+00 0 
    0.251241 2.635842e+21 1.041441e+00 0 
    0.251820 2.690491e+21 1.058151e+00 0 
    0.252401 2.659172e+21 1.041024e+00 0 
    0.253566 2.664160e+21 1.033415e+00 0 
    0.254736 2.663107e+21 1.023539e+00 0 
    0.255323 2.718301e+21 1.039954e+00 0 
    0.256502 2.717193e+21 1.029996e+00 0 
    0.257686 2.766551e+21 1.039091e+00 0 
    0.258280 2.765980e+21 1.034103e+00 0 
    0.259472 2.771176e+21 1.026549e+00 0 
    0.260670 2.763625e+21 1.014363e+00 0 
    0.261271 2.756704e+21 1.007173e+00 0 
    0.262477 2.787489e+21 1.009083e+00 0 
    0.263688 2.805568e+21 1.006321e+00 0 
    0.264296 2.870314e+21 1.024813e+00 0 
    0.265516 2.888974e+21 1.022018e+00 0 
    0.266742 2.854728e+21 1.000641e+00 0 
    0.267356 2.880455e+21 1.005027e+00 0 
    0.268591 2.905903e+21 1.004603e+00 0 
    0.269210 2.865363e+21 9.860382e-01 0 
    0.270452 2.897262e+21 9.878791e-01 0 
    0.271701 2.882718e+21 9.739041e-01 0 
    0.272327 2.868833e+21 9.647624e-01 0 
    0.273584 2.920844e+21 9.732479e-01 0 
    0.274215 2.834110e+21 9.400063e-01 0 
    0.275480 2.859066e+21 9.395946e-01 0 
    0.276752 2.897539e+21 9.435049e-01 0 
    0.277390 2.943961e+21 9.542166e-01 0 
    0.278670 2.935864e+21 9.428703e-01 0 
    0.279313 2.796625e+21 8.940225e-01 0 
    0.280602 2.873701e+21 9.102413e-01 0 
    0.281249 2.974004e+21 9.376828e-01 0 
    0.282547 2.979444e+21 9.307868e-01 0 
    0.283198 2.937905e+21 9.135954e-01 0 
    0.284506 2.963739e+21 9.131741e-01 0 
    0.285819 2.969207e+21 9.064726e-01 0 
    0.286478 3.009788e+21 9.146392e-01 0 
    0.287800 3.015311e+21 9.079187e-01 0 
    0.288463 3.021558e+21 9.056225e-01 0 
    0.289795 3.034101e+21 9.010414e-01 0 
    0.291133 3.074814e+21 9.047579e-01 0 
    0.293151 3.065588e+21 8.896669e-01 0 
    0.295183 3.063368e+21 8.768249e-01 0 
    0.297229 3.096553e+21 8.741633e-01 0 
    0.299289 3.108605e+21 8.655267e-01 0 
    0.300671 3.114244e+21 8.591442e-01 0 
    0.302755 3.133459e+21 8.525853e-01 0 
    0.304853 3.145616e+21 8.441531e-01 0 
    0.306966 3.150466e+21 8.338555e-01 0 
    0.309094 3.162624e+21 8.255871e-01 0 
    0.311237 3.174797e+21 8.173911e-01 0 
    0.312673 3.165918e+21 8.076353e-01 0 
    0.314841 3.185364e+21 8.014437e-01 0 
    0.317023 3.197541e+21 7.934708e-01 0 
    0.319221 3.173055e+21 7.765889e-01 0 
    0.320694 3.200716e+21 7.761790e-01 0 
    0.322917 3.198195e+21 7.649264e-01 0 
    0.325155 3.240099e+21 7.643175e-01 0 
    0.326656 3.260767e+21 7.621402e-01 0 
    0.328920 3.273130e+21 7.545345e-01 0 
    0.331200 3.285530e+21 7.470011e-01 0 
    0.331964 3.345761e+21 7.571979e-01 0 
    0.332729 3.375754e+21 7.604768e-01 0 
    0.333496 3.382595e+21 7.585169e-01 0 
    0.334265 3.207218e+21 7.158848e-01 0 
    0.335035 3.412025e+21 7.581031e-01 0 
    0.335808 3.205477e+21 7.089360e-01 0 
    0.336582 3.286715e+21 7.235636e-01 0 
    0.337358 3.255681e+21 7.134381e-01 0 
    0.338135 3.232349e+21 7.050736e-01 0 
    0.338915 3.383814e+21 7.347193e-01 0 
    0.339696 3.406334e+21 7.362119e-01 0 
    0.340479 3.320188e+21 7.142963e-01 0 
    0.341264 3.319183e+21 7.107989e-01 0 
    0.342051 3.419059e+21 7.288217e-01 0 
    0.342839 3.425975e+21 7.269428e-01 0 
    0.343630 3.472703e+21 7.334693e-01 0 
    0.344422 3.361568e+21 7.067351e-01 0 
    0.345216 3.527039e+21 7.381164e-01 0 
    0.346012 3.375180e+21 7.030902e-01 0 
    0.346809 3.389703e+21 7.028738e-01 0 
    0.347609 3.396569e+21 7.010594e-01 0 
    0.348410 3.356660e+21 6.896402e-01 0 
    0.349213 3.481703e+21 7.120450e-01 0 
    0.350018 3.456678e+21 7.036791e-01 0 
    0.350825 3.377032e+21 6.843063e-01 0 
    0.351634 3.368247e+21 6.793892e-01 0 
    0.352445 3.453603e+21 6.934038e-01 0 
    0.353257 3.492681e+21 6.980296e-01 0 
    0.354071 3.540143e+21 7.042658e-01 0 
    0.354888 3.613190e+21 7.154917e-01 0 
    0.355706 3.628866e+21 7.152947e-01 0 
    0.356526 3.636156e+21 7.134385e-01 0 
    0.357348 3.527823e+21 6.890021e-01 0 
    0.358171 3.438544e+21 6.684828e-01 0 
    0.358997 3.382622e+21 6.545883e-01 0 
    0.359825 3.492328e+21 6.727114e-01 0 
    0.360654 3.531666e+21 6.771651e-01 0 
    0.361485 3.588083e+21 6.848230e-01 0 
    0.362319 3.636816e+21 6.909325e-01 0 
    0.363154 3.815801e+21 7.216066e-01 0 
    0.363361 3.612208e+21 6.823269e-01 1 
    0.363633 3.505700e+21 6.612179e-01 1 
    0.363905 3.834596e+21 7.221710e-01 1 
    0.364177 3.688147e+21 6.935529e-01 1 
    0.364449 3.342723e+21 6.276584e-01 1 
    0.364721 3.440860e+21 6.451222e-01 1 
    0.364993 3.696979e+21 6.921088e-01 1 
    0.365265 3.723687e+21 6.960709e-01 1 
    0.365537 3.693589e+21 6.894175e-01 1 
    0.365808 3.956707e+21 7.374352e-01 1 
    0.366080 3.268753e+21 6.083123e-01 1 
    0.366352 3.545556e+21 6.588457e-01 1 
    0.366624 3.534607e+21 6.558368e-01 1 
    0.366896 3.634378e+21 6.733496e-01 1 
    0.367168 3.342414e+21 6.183395e-01 1 
    0.367440 3.753870e+21 6.934303e-01 1 
    0.367712 3.817112e+21 7.040698e-01 1 
    0.367984 3.418239e+21 6.295655e-01 1 
    0.368256 3.377274e+21 6.211022e-01 1 
    0.368528 3.436341e+21 6.310326e-01 1 
    0.368799 3.611624e+21 6.622462e-01 1 
    0.369071 3.541072e+21 6.483528e-01 1 
    0.369343 3.626831e+21 6.630772e-01 1 
    0.369615 3.573756e+21 6.524124e-01 1 
    0.369887 3.953919e+21 7.207523e-01 1 
    0.370159 3.674180e+21 6.687752e-01 1 
    0.370431 3.837841e+21 6.975394e-01 1 
    0.370703 3.624874e+21 6.578656e-01 1 
    0.370975 3.600365e+21 6.524598e-01 1 
    0.371247 3.609835e+21 6.532177e-01 1 
    0.371519 4.258933e+21 7.695470e-01 1 
    0.371790 5.530269e+21 9.978088e-01 1 
    0.372062 1.043144e+22 1.879360e+00 1 
    0.372334 1.864183e+22 3.353665e+00 1 
    0.372606 2.472553e+22 4.441629e+00 1 
    0.372878 2.374847e+22 4.259892e+00 1 
    0.373150 1.603476e+22 2.872050e+00 1 
    0.373422 9.022479e+21 1.613699e+00 1 
    0.373694 5.662912e+21 1.011356e+00 1 
    0.373966 4.934899e+21 8.800564e-01 1 
    0.374238 4.386471e+21 7.811169e-01 1 
    0.374510 3.840836e+21 6.829602e-01 1 
    0.374781 4.015993e+21 7.130734e-01 1 
    0.375053 3.711698e+21 6.580877e-01 1 
    0.375325 4.412420e+21 7.811929e-01 1 
    0.375597 4.448562e+21 7.864514e-01 1 
    0.375869 4.412330e+21 7.789174e-01 1 
    0.376141 4.514042e+21 7.957208e-01 1 
    0.376413 4.273643e+21 7.522557e-01 1 
    0.376685 4.044224e+21 7.108451e-01 1 
    0.376957 4.149707e+21 7.283334e-01 1 
    0.377229 4.339497e+21 7.605463e-01 1 
    0.377501 4.349389e+21 7.611819e-01 1 
    0.377772 4.527251e+21 7.911731e-01 1 
    0.378044 4.894555e+21 8.541320e-01 1 
    0.378316 5.044492e+21 8.790315e-01 1 
    0.378588 5.113455e+21 8.897689e-01 1 
    0.378860 4.686104e+21 8.142371e-01 1 
    0.379132 4.309952e+21 7.478043e-01 1 
    0.379404 4.278725e+21 7.413222e-01 1 
    0.379676 4.208092e+21 7.280402e-01 1 
    0.379948 4.182549e+21 7.225854e-01 1 
    0.380220 4.485714e+21 7.738524e-01 1 
    0.380492 4.675577e+21 8.054538e-01 1 
    0.380763 5.024083e+21 8.642588e-01 1 
    0.381035 5.305365e+21 9.113432e-01 1 
    0.381307 5.178045e+21 8.882039e-01 1 
    0.381579 5.211564e+21 8.926795e-01 1 
    0.381851 5.113744e+21 8.746768e-01 1 
    0.382123 5.310204e+21 9.069876e-01 1 
    0.382395 4.915358e+21 8.383535e-01 1 
    0.382667 4.720143e+21 8.039140e-01 1 
    0.382939 4.321575e+21 7.349864e-01 1 
    0.383211 4.024980e+21 6.835720e-01 1 
    0.383483 4.095163e+21 6.945051e-01 1 
    0.383754 4.176799e+21 7.073497e-01 1 
    0.384026 4.610986e+21 7.797745e-01 1 
    0.384298 5.061020e+21 8.546697e-01 1 
    0.384570 5.107347e+21 8.612734e-01 1 
    0.384842 5.547564e+21 9.341872e-01 1 
