# NGC 3870       
# 
# An Atlas of Galaxy Spectral Energy Distributions from the Ultraviolet to the Mid-Infrared
# Brown et al. (2014)
# http://dx.doi.org/10.5072/03/529D3551F0117
# http://dx.doi.org/10.17909/t9-5bxk-dh29
# 
# The Spectral Energy Distributions of Active Galactic Nuclei
# Brown et al. (2019)
# http://dx.doi.org/10.17909/t9-3dbt-8734
# 
# Column 1: Observed wavelength (um)
# Column 2: L_nu (W/Hz)
# Column 3: f_lam (erg/s/cm2/A)
# Column 4: Source (0 = model, 1 = Optical Spectrun, 2 = Akari, 3 = Spitzer IRS)
# 
  1.0207e-02 6.274621e+12 1.502062e-06 0 
  1.0397e-02 7.154316e+12 1.650625e-06 0 
  1.0590e-02 8.425338e+12 1.873665e-06 0 
  1.0812e-02 1.012882e+13 2.160943e-06 0 
  1.0988e-02 1.460673e+13 3.017255e-06 0 
  1.1400e-02 1.930192e+13 3.704138e-06 0 
  1.1801e-02 2.412951e+13 4.321229e-06 0 
  1.2103e-02 7.389079e+13 1.258058e-05 0 
  1.2500e-02 9.068809e+13 1.447527e-05 0 
  1.2703e-02 9.898815e+13 1.529914e-05 0 
  1.2791e-02 1.041270e+14 1.587270e-05 0 
  1.3089e-02 1.168378e+14 1.700853e-05 0 
  1.3210e-02 1.341379e+14 1.917090e-05 0 
  1.3394e-02 1.437481e+14 1.998379e-05 0 
  1.3706e-02 1.768294e+14 2.347629e-05 0 
  1.3993e-02 1.965949e+14 2.504073e-05 0 
  1.4286e-02 4.023498e+14 4.916759e-05 0 
  1.4686e-02 7.899076e+14 9.134098e-05 0 
  1.5098e-02 8.863454e+14 9.697518e-05 0 
  1.5485e-02 9.967727e+14 1.036741e-04 0 
  1.5882e-02 1.126089e+15 1.113419e-04 0 
  1.6215e-02 1.234701e+15 1.171182e-04 0 
  1.6592e-02 1.388595e+15 1.257983e-04 0 
  1.7018e-02 1.543806e+15 1.329450e-04 0 
  1.7294e-02 1.669478e+15 1.392151e-04 0 
  1.7697e-02 1.839038e+15 1.464495e-04 0 
  1.7985e-02 1.975013e+15 1.522809e-04 0 
  1.8193e-02 2.077701e+15 1.565564e-04 0 
  1.8617e-02 2.283479e+15 1.643138e-04 0 
  1.9094e-02 2.544479e+15 1.740610e-04 0 
  1.9405e-02 2.732773e+15 1.809975e-04 0 
  1.9811e-02 2.968860e+15 1.886572e-04 0 
  2.0179e-02 3.217943e+15 1.970949e-04 0 
  2.0507e-02 3.432295e+15 2.035526e-04 0 
  2.0985e-02 3.635702e+15 2.059049e-04 0 
  2.1623e-02 4.232352e+15 2.257596e-04 0 
  2.2025e-02 4.566456e+15 2.347707e-04 0 
  2.2280e-02 4.748876e+15 2.385925e-04 0 
  2.2694e-02 5.135527e+15 2.486906e-04 0 
  2.3009e-02 7.953604e+15 3.746838e-04 0 
  2.3383e-02 1.326104e+16 6.048859e-04 0 
  2.3983e-02 1.696625e+16 7.356571e-04 0 
  2.4598e-02 1.688791e+16 6.961017e-04 0 
  2.5171e-02 1.839039e+16 7.239130e-04 0 
  2.5698e-02 1.598048e+16 6.035142e-04 0 
  2.5996e-02 1.881898e+16 6.945116e-04 0 
  2.6418e-02 2.011738e+16 7.188994e-04 0 
  2.6910e-02 2.068069e+16 7.122527e-04 0 
  2.7410e-02 2.116315e+16 7.025201e-04 0 
  2.7919e-02 2.165707e+16 6.929411e-04 0 
  2.8373e-02 2.216085e+16 6.865501e-04 0 
  2.8967e-02 2.180641e+16 6.481470e-04 0 
  2.9574e-02 2.283409e+16 6.511186e-04 0 
  3.0124e-02 2.283491e+16 6.275821e-04 0 
  3.0825e-02 2.391039e+16 6.275914e-04 0 
  3.1835e-02 2.538517e+16 6.246931e-04 0 
  3.2802e-02 2.627679e+16 6.090714e-04 0 
  3.3799e-02 2.695000e+16 5.883660e-04 0 
  3.4826e-02 2.764373e+16 5.684416e-04 0 
  3.5720e-02 2.835306e+16 5.542088e-04 0 
  3.6636e-02 2.928039e+16 5.440730e-04 0 
  3.7489e-02 2.975738e+16 5.280601e-04 0 
  3.8539e-02 2.955204e+16 4.962300e-04 0 
  3.9528e-02 3.108744e+16 4.962171e-04 0 
  4.0542e-02 3.210467e+16 4.871406e-04 0 
  4.1391e-02 3.255099e+16 4.738587e-04 0 
  4.2161e-02 3.277930e+16 4.599116e-04 0 
  4.3043e-02 3.323550e+16 4.473975e-04 0 
  4.4147e-02 3.448222e+16 4.412546e-04 0 
  4.5072e-02 3.512333e+16 4.311997e-04 0 
  4.6016e-02 3.561244e+16 4.194502e-04 0 
  4.6979e-02 3.661039e+16 4.137074e-04 0 
  4.7963e-02 3.833378e+16 4.155903e-04 0 
  4.8967e-02 3.877801e+16 4.033434e-04 0 
  4.9993e-02 4.184063e+16 4.175190e-04 0 
    0.050572 4.321061e+16 4.213729e-04 0 
    0.051157 5.855631e+16 5.580332e-04 0 
    0.051988 6.103332e+16 5.631929e-04 0 
    0.052955 6.376251e+16 5.670847e-04 0 
    0.053939 6.347099e+16 5.440840e-04 0 
    0.054942 7.270805e+16 6.007172e-04 0 
    0.055964 8.802007e+16 7.009074e-04 0 
    0.057004 1.008312e+17 7.738928e-04 0 
    0.058064 1.055777e+17 7.810066e-04 0 
    0.059007 1.212221e+17 8.683028e-04 0 
    0.059966 1.234769e+17 8.563909e-04 0 
    0.060941 1.338363e+17 8.987755e-04 0 
    0.061931 1.692723e+17 1.100693e-03 0 
    0.062937 1.817969e+17 1.144645e-03 0 
    0.063960 2.044461e+17 1.246403e-03 0 
    0.064999 2.252090e+17 1.329441e-03 0 
    0.065752 2.336544e+17 1.347884e-03 0 
    0.066513 2.646003e+17 1.491673e-03 0 
    0.067438 2.914592e+17 1.598324e-03 0 
    0.068534 2.907933e+17 1.544076e-03 0 
    0.069487 3.594077e+17 1.856422e-03 0 
    0.070454 3.424427e+17 1.720573e-03 0 
    0.071599 4.391185e+17 2.136310e-03 0 
    0.072595 4.770716e+17 2.257702e-03 0 
    0.073436 5.123768e+17 2.369561e-03 0 
    0.074457 5.553711e+17 2.498439e-03 0 
    0.075493 6.005934e+17 2.628232e-03 0 
    0.076543 6.103500e+17 2.598152e-03 0 
    0.077429 7.056473e+17 2.935464e-03 0 
    0.078507 7.372019e+17 2.983088e-03 0 
    0.079416 8.157973e+17 3.225988e-03 0 
    0.080520 8.863156e+17 3.409395e-03 0 
    0.081453 9.453191e+17 3.553536e-03 0 
    0.082586 1.036523e+18 3.790205e-03 0 
    0.083542 9.174576e+17 3.278481e-03 0 
    0.084510 1.155006e+18 4.033339e-03 0 
    0.085488 1.212276e+18 4.137021e-03 0 
    0.086478 1.326164e+18 4.422648e-03 0 
    0.087479 1.421017e+18 4.631143e-03 0 
    0.088492 1.526141e+18 4.860523e-03 0 
    0.089517 1.627767e+18 5.066146e-03 0 
    0.090554 1.684980e+18 5.124788e-03 0 
    0.091602 2.016407e+18 5.993283e-03 0 
    0.092450 8.252495e+18 2.408063e-02 0 
    0.093520 1.681115e+19 4.793855e-02 0 
    0.094603 3.073212e+19 8.564049e-02 0 
    0.095479 4.232271e+19 1.157855e-01 0 
    0.096584 5.007112e+19 1.338670e-01 0 
    0.097478 1.157676e+19 3.038578e-02 0 
    0.098607 4.748712e+19 1.218027e-01 0 
    0.099519 4.870670e+19 1.226516e-01 0 
    0.100440 6.631093e+19 1.639337e-01 0 
    0.101603 6.391183e+19 1.544062e-01 0 
    0.102543 2.968788e+19 7.041473e-02 0 
    0.103492 4.961205e+19 1.155234e-01 0 
    0.104449 8.741391e+19 1.998336e-01 0 
    0.105416 8.741519e+19 1.961870e-01 0 
    0.106391 7.321183e+19 1.613124e-01 0 
    0.107623 8.641503e+19 1.860696e-01 0 
    0.108619 7.237445e+19 1.529925e-01 0 
    0.109624 9.195750e+19 1.908413e-01 0 
    0.110384 8.965669e+19 1.835130e-01 0 
    0.111405 8.883333e+19 1.785102e-01 0 
    0.112436 8.176737e+19 1.613116e-01 0 
    0.113477 1.003650e+20 1.943851e-01 0 
    0.114527 9.366506e+19 1.780977e-01 0 
    0.115586 9.944547e+19 1.856398e-01 0 
    0.116387 1.029409e+20 1.895289e-01 0 
    0.117464 7.595957e+19 1.372996e-01 0 
    0.118551 1.019962e+20 1.809965e-01 0 
    0.119373 7.613532e+19 1.332510e-01 0 
    0.120478 5.978236e+19 1.027198e-01 0 
    0.121592 3.886682e+19 6.556399e-02 0 
    0.122435 7.457328e+19 1.240705e-01 0 
    0.123568 1.075435e+20 1.756583e-01 0 
    0.124425 1.184626e+20 1.908370e-01 0 
    0.125576 1.168397e+20 1.847879e-01 0 
    0.126446 1.046133e+20 1.631823e-01 0 
    0.127616 1.304904e+20 1.998318e-01 0 
    0.128501 1.369576e+20 2.068567e-01 0 
    0.129392 1.155009e+20 1.720549e-01 0 
    0.130589 1.157671e+20 1.693045e-01 0 
    0.131494 1.395036e+20 2.012195e-01 0 
    0.132405 1.357009e+20 1.930502e-01 0 
    0.133631 1.254842e+20 1.752553e-01 0 
    0.134557 1.444034e+20 1.989122e-01 0 
    0.135490 1.417688e+20 1.926027e-01 0 
    0.136429 1.313968e+20 1.760629e-01 0 
    0.137374 1.372736e+20 1.814155e-01 0 
    0.138646 1.404689e+20 1.822477e-01 0 
    0.139607 1.231939e+20 1.576417e-01 0 
    0.140574 1.275206e+20 1.609411e-01 0 
    0.141549 1.363288e+20 1.696955e-01 0 
    0.142530 1.388628e+20 1.704785e-01 0 
    0.143518 1.404702e+20 1.700857e-01 0 
    0.144180 1.470903e+20 1.764698e-01 0 
    0.144846 1.498233e+20 1.780995e-01 0 
    0.145514 1.470875e+20 1.732458e-01 0 
    0.146523 1.398243e+20 1.624305e-01 0 
    0.147539 1.407923e+20 1.613102e-01 0 
    0.148561 1.437407e+20 1.624302e-01 0 
    0.149591 1.467527e+20 1.635580e-01 0 
    0.150628 1.420970e+20 1.561960e-01 0 
    0.151323 1.304925e+20 1.421255e-01 0 
    0.151672 1.379065e+20 1.495100e-01 0 
    0.152372 1.353898e+20 1.454360e-01 0 
    0.153429 1.215024e+20 1.287260e-01 0 
    0.154492 1.289974e+20 1.347924e-01 0 
    0.155563 1.246200e+20 1.284315e-01 0 
    0.156641 1.298929e+20 1.320295e-01 0 
    0.157364 1.385405e+20 1.395283e-01 0 
    0.158455 1.450742e+20 1.441035e-01 0 
    0.159553 1.494812e+20 1.464445e-01 0 
    0.160659 1.467532e+20 1.417992e-01 0 
    0.161401 1.474270e+20 1.411435e-01 0 
    0.162520 1.430814e+20 1.351033e-01 0 
    0.163646 1.519086e+20 1.414712e-01 0 
    0.164402 1.540226e+20 1.421237e-01 0 
    0.165541 1.464159e+20 1.332519e-01 0 
    0.166689 1.590668e+20 1.427782e-01 0 
    0.167073 1.447356e+20 1.293181e-01 0 
    0.167844 1.623961e+20 1.437674e-01 0 
    0.168619 1.677176e+20 1.471168e-01 0 
    0.169397 1.601699e+20 1.392086e-01 0 
    0.170571 1.565250e+20 1.341744e-01 0 
    0.171359 1.512133e+20 1.284318e-01 0 
    0.172546 1.515580e+20 1.269596e-01 0 
    0.173343 1.609114e+20 1.335582e-01 0 
    0.174544 1.590688e+20 1.302182e-01 0 
    0.175350 1.681032e+20 1.363518e-01 0 
    0.176566 1.579713e+20 1.263748e-01 0 
    0.177381 1.624006e+20 1.287271e-01 0 
    0.178610 1.661826e+20 1.299184e-01 0 
    0.179435 1.752174e+20 1.357249e-01 0 
    0.180678 1.760304e+20 1.344849e-01 0 
    0.181512 1.665664e+20 1.260878e-01 0 
    0.182350 1.696628e+20 1.272540e-01 0 
    0.183614 1.665630e+20 1.232149e-01 0 
    0.184462 1.558047e+20 1.141992e-01 0 
    0.185313 1.579724e+20 1.147270e-01 0 
    0.186598 1.635261e+20 1.171304e-01 0 
    0.187459 1.736124e+20 1.232153e-01 0 
    0.188324 1.631483e+20 1.147275e-01 0 
    0.189630 1.594360e+20 1.105780e-01 0 
    0.190505 1.681064e+20 1.155229e-01 0 
    0.191384 1.642808e+20 1.118593e-01 0 
    0.192711 1.624003e+20 1.090612e-01 0 
    0.193600 1.669472e+20 1.110874e-01 0 
    0.194494 1.752200e+20 1.155228e-01 0 
    0.195392 1.661831e+20 1.085600e-01 0 
    0.196746 1.805433e+20 1.163231e-01 0 
    0.197654 1.856035e+20 1.184872e-01 0 
    0.198567 1.784739e+20 1.128904e-01 0 
    0.199483 1.748192e+20 1.095655e-01 0 
    0.200404 1.797171e+20 1.116023e-01 0 
    0.201329 1.768408e+20 1.088093e-01 0 
    0.202724 1.839044e+20 1.116036e-01 0 
    0.203660 1.780697e+20 1.070717e-01 0 
    0.204600 1.839031e+20 1.095656e-01 0 
    0.205545 1.736102e+20 1.024844e-01 0 
    0.206493 1.776550e+20 1.039114e-01 0 
    0.207447 1.916808e+20 1.110864e-01 0 
    0.207925 1.860281e+20 1.073153e-01 0 
    0.208404 1.912450e+20 1.098182e-01 0 
    0.209366 1.838999e+20 1.046323e-01 0 
    0.210332 1.860281e+20 1.048732e-01 0 
    0.211303 1.890540e+20 1.056017e-01 0 
    0.212279 1.921279e+20 1.063341e-01 0 
    0.213258 1.826312e+20 1.001522e-01 0 
    0.214737 1.877509e+20 1.015464e-01 0 
    0.215728 1.943489e+20 1.041515e-01 0 
    0.216723 1.894903e+20 1.006175e-01 0 
    0.217724 1.899256e+20 9.992346e-02 0 
    0.218729 1.890534e+20 9.855265e-02 0 
    0.219738 1.975081e+20 1.020166e-01 0 
    0.220753 1.938985e+20 9.923334e-02 0 
    0.221262 1.864567e+20 9.498625e-02 0 
    0.222283 1.834749e+20 9.261057e-02 0 
    0.223309 1.943502e+20 9.720059e-02 0 
    0.224340 1.890551e+20 9.368532e-02 0 
    0.225375 1.834790e+20 9.008890e-02 0 
    0.226415 1.873216e+20 9.113262e-02 0 
    0.227461 1.925702e+20 9.282644e-02 0 
    0.228510 1.975043e+20 9.433276e-02 0 
    0.229565 1.886318e+20 8.926886e-02 0 
    0.230625 1.913363e+20 8.971832e-02 0 
    0.231689 1.866268e+20 8.670810e-02 0 
    0.232759 1.581895e+20 7.282175e-02 0 
    0.233295 1.779324e+20 8.153435e-02 0 
    0.234372 1.731644e+20 7.862191e-02 0 
    0.235454 1.860577e+20 8.370123e-02 0 
    0.236541 1.749162e+20 7.796753e-02 0 
    0.237633 1.803092e+20 7.963444e-02 0 
    0.238729 1.695162e+20 7.418177e-02 0 
    0.239280 1.787736e+20 7.787301e-02 0 
    0.240384 1.747867e+20 7.543862e-02 0 
    0.241494 1.785227e+20 7.634443e-02 0 
    0.242609 1.887478e+20 7.997689e-02 0 
    0.243728 1.841127e+20 7.729821e-02 0 
    0.244290 1.923920e+20 8.040296e-02 0 
    0.245418 1.911565e+20 7.915397e-02 0 
    0.246551 1.908017e+20 7.828260e-02 0 
    0.247689 1.865384e+20 7.583179e-02 0 
    0.248260 1.891823e+20 7.655322e-02 0 
    0.249406 1.774494e+20 7.114711e-02 0 
    0.250557 1.987301e+20 7.894908e-02 0 
    0.251134 1.808744e+20 7.152575e-02 0 
    0.251713 1.847018e+20 7.270367e-02 0 
    0.252294 1.801242e+20 7.057561e-02 0 
    0.253458 1.831401e+20 7.109971e-02 0 
    0.254628 1.827964e+20 7.031560e-02 0 
    0.255215 1.936745e+20 7.415776e-02 0 
    0.256393 1.906682e+20 7.233731e-02 0 
    0.257576 2.002095e+20 7.526108e-02 0 
    0.258765 1.993856e+20 7.426417e-02 0 
    0.259362 1.971494e+20 7.309357e-02 0 
    0.260559 1.932026e+20 7.097366e-02 0 
    0.261762 1.915157e+20 6.970879e-02 0 
    0.262365 1.992188e+20 7.217967e-02 0 
    0.263576 2.063196e+20 7.406706e-02 0 
    0.264793 2.221982e+20 7.903584e-02 0 
    0.265403 2.274289e+20 8.052495e-02 0 
    0.266628 2.113728e+20 7.415392e-02 0 
    0.267243 2.188589e+20 7.642720e-02 0 
    0.268476 2.214995e+20 7.664049e-02 0 
    0.269716 2.126181e+20 7.289257e-02 0 
    0.270337 2.186217e+20 7.460685e-02 0 
    0.271585 2.098536e+20 7.095800e-02 0 
    0.272211 2.089380e+20 7.032382e-02 0 
    0.273468 2.183967e+20 7.283323e-02 0 
    0.274730 1.965449e+20 6.494505e-02 0 
    0.275363 2.016332e+20 6.632044e-02 0 
    0.276634 2.097858e+20 6.836933e-02 0 
    0.277272 2.177135e+20 7.062684e-02 0 
    0.278552 2.075426e+20 6.671003e-02 0 
    0.279194 1.746703e+20 5.588606e-02 0 
    0.280483 1.855465e+20 5.882150e-02 0 
    0.281777 2.201174e+20 6.914164e-02 0 
    0.282427 2.300303e+20 7.192322e-02 0 
    0.283731 2.249091e+20 6.967707e-02 0 
    0.284385 2.193417e+20 6.764009e-02 0 
    0.285697 2.119959e+20 6.477577e-02 0 
    0.286356 2.309173e+20 7.023286e-02 0 
    0.287678 2.342436e+20 7.059126e-02 0 
    0.288341 2.332366e+20 6.996491e-02 0 
    0.289672 2.349700e+20 6.983866e-02 0 
    0.291009 2.530805e+20 7.453191e-02 0 
    0.293026 2.463720e+20 7.156084e-02 0 
    0.295057 2.448747e+20 7.015014e-02 0 
    0.297102 2.502068e+20 7.069431e-02 0 
    0.299162 2.527250e+20 7.042579e-02 0 
    0.301235 2.570294e+20 7.064287e-02 0 
    0.303324 2.596322e+20 7.037875e-02 0 
    0.304724 2.615641e+20 7.025241e-02 0 
    0.306836 2.648168e+20 7.015027e-02 0 
    0.308963 2.681082e+20 7.004767e-02 0 
    0.311104 2.714403e+20 6.994547e-02 0 
    0.313261 2.697901e+20 6.856615e-02 0 
    0.314707 2.718177e+20 6.844811e-02 0 
    0.316888 2.764701e+20 6.866461e-02 0 
    0.319085 2.666927e+20 6.532731e-02 0 
    0.321297 2.769424e+20 6.690716e-02 0 
    0.322780 2.670774e+20 6.393230e-02 0 
    0.325017 2.857802e+20 6.747089e-02 0 
    0.327270 2.981311e+20 6.942108e-02 0 
    0.328780 2.976117e+20 6.866503e-02 0 
    0.331059 2.992569e+20 6.809730e-02 0 
    0.331823 2.993526e+20 6.780575e-02 0 
    0.332588 3.008202e+20 6.782508e-02 0 
    0.333354 3.093375e+20 6.942529e-02 0 
    0.334123 2.955095e+20 6.601690e-02 0 
    0.334893 3.189340e+20 7.092268e-02 0 
    0.335665 3.074825e+20 6.806201e-02 0 
    0.336439 2.779442e+20 6.124087e-02 0 
    0.337214 2.818868e+20 6.182443e-02 0 
    0.337992 3.106038e+20 6.780947e-02 0 
    0.338771 3.106955e+20 6.751790e-02 0 
    0.339552 3.044244e+20 6.585114e-02 0 
    0.340335 3.218059e+20 6.929107e-02 0 
    0.341119 3.011187e+20 6.453903e-02 0 
    0.341906 3.082168e+20 6.575659e-02 0 
    0.342694 3.140552e+20 6.669441e-02 0 
    0.343484 3.312372e+20 7.002006e-02 0 
    0.344276 3.070927e+20 6.461784e-02 0 
    0.345069 3.165232e+20 6.629643e-02 0 
    0.345865 3.129957e+20 6.525618e-02 0 
    0.346662 3.102058e+20 6.437747e-02 0 
    0.347461 3.219567e+20 6.650920e-02 0 
    0.348262 3.132866e+20 6.442079e-02 0 
    0.349065 3.258792e+20 6.670226e-02 0 
    0.349870 3.056267e+20 6.226936e-02 0 
    0.350676 3.260963e+20 6.613483e-02 0 
    0.351484 3.107969e+20 6.274252e-02 0 
    0.352295 3.293102e+20 6.617421e-02 0 
    0.353107 3.234033e+20 6.468867e-02 0 
    0.353921 3.348702e+20 6.667458e-02 0 
    0.354737 3.459394e+20 6.856199e-02 0 
    0.355554 3.405258e+20 6.717928e-02 0 
    0.356374 3.375032e+20 6.627691e-02 0 
    0.357196 3.172689e+20 6.201701e-02 0 
    0.358019 3.151903e+20 6.132777e-02 0 
    0.358844 2.908678e+20 5.633531e-02 0 
    0.359671 3.242184e+20 6.250622e-02 0 
    0.360501 3.380343e+20 6.487006e-02 0 
    0.361332 3.184921e+20 6.083903e-02 0 
    0.362165 3.200658e+20 6.085872e-02 0 
    0.363000 3.693010e+20 6.989783e-02 0 
    0.363836 3.471631e+20 6.540615e-02 0 
    0.364675 3.464756e+20 6.497662e-02 0 
    0.365516 3.530338e+20 6.590220e-02 0 
    0.366358 3.775235e+20 7.015022e-02 0 
    0.367203 3.623091e+20 6.701365e-02 0 
    0.368049 3.541801e+20 6.520927e-02 0 
    0.368058 4.507009e+20 8.297596e-02 1 
    0.368332 3.765657e+20 6.922425e-02 1 
    0.368606 3.534919e+20 6.488602e-02 1 
    0.368881 4.116991e+20 7.545774e-02 1 
    0.369155 3.140243e+20 5.747013e-02 1 
    0.369429 2.933166e+20 5.360079e-02 1 
    0.369704 2.688969e+20 4.906524e-02 1 
    0.369978 2.660737e+20 4.847821e-02 1 
    0.370252 3.346070e+20 6.087468e-02 1 
    0.370527 3.724331e+20 6.765579e-02 1 
    0.370801 3.453964e+20 6.265165e-02 1 
    0.371075 3.835007e+20 6.946071e-02 1 
    0.371349 3.831092e+20 6.928744e-02 1 
    0.371624 3.819080e+20 6.896802e-02 1 
    0.371898 4.815699e+20 8.683766e-02 1 
    0.372172 8.819708e+20 1.588047e-01 1 
    0.372447 1.582117e+21 2.844501e-01 1 
    0.372721 1.923423e+21 3.453054e-01 1 
    0.372995 1.672573e+21 2.998303e-01 1 
    0.373270 1.169323e+21 2.093075e-01 1 
    0.373544 6.697686e+20 1.197120e-01 1 
    0.373818 4.591788e+20 8.195169e-02 1 
    0.374093 4.552761e+20 8.113573e-02 1 
    0.374367 3.448754e+20 6.137104e-02 1 
    0.374641 3.213429e+20 5.709979e-02 1 
    0.374915 2.940760e+20 5.217836e-02 1 
    0.375190 4.043960e+20 7.164746e-02 1 
    0.375464 4.187967e+20 7.409060e-02 1 
    0.375738 4.179367e+20 7.383066e-02 1 
    0.376013 4.464250e+20 7.874795e-02 1 
    0.376287 4.678141e+20 8.240078e-02 1 
    0.376561 3.891442e+20 6.844414e-02 1 
    0.376836 3.813652e+20 6.697808e-02 1 
    0.377110 3.764832e+20 6.602463e-02 1 
    0.377384 4.445124e+20 7.784188e-02 1 
    0.377659 4.314582e+20 7.544587e-02 1 
    0.377933 4.688915e+20 8.187271e-02 1 
    0.378207 4.487809e+20 7.824771e-02 1 
    0.378481 4.898534e+20 8.528534e-02 1 
    0.378756 5.064066e+20 8.803933e-02 1 
    0.379030 4.494876e+20 7.803096e-02 1 
    0.379304 4.584352e+20 7.946932e-02 1 
    0.379579 3.912854e+20 6.773073e-02 1 
    0.379853 3.574282e+20 6.178089e-02 1 
    0.380127 3.373067e+20 5.821890e-02 1 
    0.380402 4.147718e+20 7.148585e-02 1 
    0.380676 5.052122e+20 8.694793e-02 1 
    0.380950 5.000249e+20 8.593145e-02 1 
    0.381225 4.940175e+20 8.477662e-02 1 
    0.381499 5.158378e+20 8.839400e-02 1 
    0.381773 4.971906e+20 8.507636e-02 1 
    0.382047 5.471862e+20 9.349707e-02 1 
    0.382322 5.162412e+20 8.808269e-02 1 
    0.382596 4.515327e+20 7.693160e-02 1 
    0.382870 4.354818e+20 7.409072e-02 1 
    0.383145 4.239295e+20 7.202177e-02 1 
    0.383419 4.005436e+20 6.795149e-02 1 
    0.383693 3.542948e+20 6.001965e-02 1 
    0.383968 3.933750e+20 6.654465e-02 1 
    0.384242 4.286937e+20 7.241590e-02 1 
    0.384516 4.671255e+20 7.879546e-02 1 
    0.384791 5.585809e+20 9.408768e-02 1 
    0.385065 5.898086e+20 9.920635e-02 1 
    0.385339 5.492191e+20 9.224783e-02 1 
    0.385613 5.899633e+20 9.895054e-02 1 
    0.385888 5.904266e+20 9.888715e-02 1 
    0.386162 5.413423e+20 9.053767e-02 1 
    0.386436 5.700937e+20 9.521109e-02 1 
    0.386711 6.126998e+20 1.021812e-01 1 
    0.386985 6.025671e+20 1.003491e-01 1 
    0.387259 5.289269e+20 8.796077e-02 1 
    0.387534 5.662411e+20 9.403254e-02 1 
    0.387808 4.958061e+20 8.221949e-02 1 
    0.388082 4.873467e+20 8.070259e-02 1 
    0.388357 4.820311e+20 7.970934e-02 1 
