# NGC 7714       
# 
# An Atlas of Galaxy Spectral Energy Distributions from the Ultraviolet to the Mid-Infrared
# Brown et al. (2014)
# http://dx.doi.org/10.5072/03/529D3551F0117
# http://dx.doi.org/10.17909/t9-5bxk-dh29
# 
# The Spectral Energy Distributions of Active Galactic Nuclei
# Brown et al. (2019)
# http://dx.doi.org/10.17909/t9-3dbt-8734
# 
# Column 1: Observed wavelength (um)
# Column 2: L_nu (W/Hz)
# Column 3: f_lam (erg/s/cm2/A)
# Column 4: Source (0 = model, 1 = Optical Spectrun, 2 = Akari, 3 = Spitzer IRS)
# 
  1.0209e-02 7.155109e+11 1.712168e-07 0 
  1.0398e-02 8.761566e+11 2.021057e-07 0 
  1.0592e-02 1.108230e+12 2.463601e-07 0 
  1.0789e-02 1.414424e+12 3.030496e-07 0 
  1.0989e-02 2.185889e+12 4.514485e-07 0 
  1.1402e-02 3.277965e+12 6.288380e-07 0 
  1.1802e-02 4.629918e+12 8.290076e-07 0 
  1.2105e-02 1.444081e+13 2.457867e-06 0 
  1.2502e-02 1.993375e+13 3.180728e-06 0 
  1.2705e-02 2.299251e+13 3.552496e-06 0 
  1.2793e-02 2.486556e+13 3.789220e-06 0 
  1.3091e-02 3.031125e+13 4.411179e-06 0 
  1.3212e-02 3.544820e+13 5.064698e-06 0 
  1.3396e-02 4.005127e+13 5.566246e-06 0 
  1.3708e-02 5.267722e+13 6.991511e-06 0 
  1.3995e-02 6.289024e+13 8.008181e-06 0 
  1.4288e-02 1.301953e+14 1.590556e-05 0 
  1.4688e-02 2.603662e+14 3.009925e-05 0 
  1.5100e-02 3.196237e+14 3.496081e-05 0 
  1.5487e-02 3.913567e+14 4.069440e-05 0 
  1.5884e-02 4.792762e+14 4.737646e-05 0 
  1.6217e-02 5.566636e+14 5.278959e-05 0 
  1.6595e-02 6.723298e+14 6.088696e-05 0 
  1.6981e-02 7.991489e+14 6.911903e-05 0 
  1.7297e-02 9.132635e+14 7.612915e-05 0 
  1.7700e-02 1.077973e+15 8.581391e-05 0 
  1.7987e-02 1.212271e+15 9.344986e-05 0 
  1.8196e-02 1.313981e+15 9.897688e-05 0 
  1.8619e-02 1.536733e+15 1.105560e-04 0 
  1.9097e-02 1.839058e+15 1.257655e-04 0 
  1.9407e-02 2.058672e+15 1.363222e-04 0 
  1.9814e-02 2.363857e+15 1.501666e-04 0 
  2.0182e-02 2.701491e+15 1.654138e-04 0 
  2.0510e-02 2.989422e+15 1.772362e-04 0 
  2.0988e-02 3.370039e+15 1.908048e-04 0 
  2.1576e-02 4.184076e+15 2.241580e-04 0 
  2.1977e-02 4.716498e+15 2.435451e-04 0 
  2.2283e-02 5.100687e+15 2.561992e-04 0 
  2.2697e-02 5.749351e+15 2.783418e-04 0 
  2.3013e-02 9.174543e+15 4.320504e-04 0 
  2.3387e-02 1.620347e+16 7.388487e-04 0 
  2.3986e-02 2.352847e+16 1.019940e-03 0 
  2.4602e-02 2.475099e+16 1.019878e-03 0 
  2.5175e-02 2.888096e+16 1.136499e-03 0 
  2.5702e-02 2.521232e+16 9.518654e-04 0 
  2.6000e-02 3.188596e+16 1.176384e-03 0 
  2.6422e-02 3.586052e+16 1.281096e-03 0 
  2.6913e-02 3.851167e+16 1.326064e-03 0 
  2.7414e-02 4.126616e+16 1.369448e-03 0 
  2.7923e-02 4.371312e+16 1.398248e-03 0 
  2.8377e-02 4.683950e+16 1.450694e-03 0 
  2.8971e-02 4.837487e+16 1.437438e-03 0 
  2.9578e-02 5.243382e+16 1.494756e-03 0 
  3.0128e-02 5.328524e+16 1.464073e-03 0 
  3.0830e-02 5.910158e+16 1.550774e-03 0 
  3.1766e-02 6.754828e+16 1.669497e-03 0 
  3.2807e-02 7.492162e+16 1.736083e-03 0 
  3.3804e-02 8.120771e+16 1.772383e-03 0 
  3.4831e-02 8.802588e+16 1.809568e-03 0 
  3.5725e-02 9.563020e+16 1.868732e-03 0 
  3.6641e-02 1.051048e+17 1.952470e-03 0 
  3.7494e-02 1.115824e+17 1.979560e-03 0 
  3.8456e-02 1.144485e+17 1.930093e-03 0 
  3.9534e-02 1.284086e+17 2.049034e-03 0 
  4.0455e-02 1.388703e+17 2.116223e-03 0 
  4.1397e-02 1.460830e+17 2.125976e-03 0 
  4.2166e-02 1.508729e+17 2.116327e-03 0 
  4.3049e-02 1.568945e+17 2.111437e-03 0 
  4.4052e-02 1.681119e+17 2.160546e-03 0 
  4.5078e-02 1.764469e+17 2.165615e-03 0 
  4.6022e-02 1.822216e+17 2.145682e-03 0 
  4.6986e-02 1.903724e+17 2.150619e-03 0 
  4.7970e-02 2.016455e+17 2.185473e-03 0 
  4.8974e-02 2.058751e+17 2.140766e-03 0 
    0.050000 2.211061e+17 2.205754e-03 0 
    0.050579 2.336728e+17 2.278055e-03 0 
    0.051164 3.338982e+17 3.181131e-03 0 
    0.051996 3.472269e+17 3.203095e-03 0 
    0.052962 3.610692e+17 3.210393e-03 0 
    0.053947 3.577589e+17 3.065860e-03 0 
    0.054950 4.242334e+17 3.504015e-03 0 
    0.055971 4.972798e+17 3.958869e-03 0 
    0.057012 5.566695e+17 4.271312e-03 0 
    0.057938 5.592539e+17 4.155071e-03 0 
    0.059016 6.495230e+17 4.651055e-03 0 
    0.059975 6.661972e+17 4.619115e-03 0 
    0.060949 7.389334e+17 4.960993e-03 0 
    0.061939 8.883736e+17 5.775156e-03 0 
    0.062946 9.607459e+17 6.047400e-03 0 
    0.063969 1.022361e+18 6.231057e-03 0 
    0.065008 1.149768e+18 6.785360e-03 0 
    0.065761 1.215078e+18 7.007509e-03 0 
    0.066522 1.326191e+18 7.474328e-03 0 
    0.067448 1.408017e+18 7.719093e-03 0 
    0.068544 1.421019e+18 7.543230e-03 0 
    0.069497 1.788996e+18 9.237910e-03 0 
    0.070464 1.736200e+18 8.720906e-03 0 
    0.071609 2.160756e+18 1.050913e-02 0 
    0.072605 2.320611e+18 1.097908e-02 0 
    0.073446 2.475163e+18 1.144363e-02 0 
    0.074467 2.783551e+18 1.251895e-02 0 
    0.075503 3.031140e+18 1.326093e-02 0 
    0.076554 3.225545e+18 1.372663e-02 0 
    0.077440 3.644253e+18 1.515564e-02 0 
    0.078518 3.977451e+18 1.609025e-02 0 
    0.079427 4.301234e+18 1.700408e-02 0 
    0.080532 4.641026e+18 1.784734e-02 0 
    0.081464 4.949790e+18 1.860166e-02 0 
    0.082408 5.515536e+18 2.025561e-02 0 
    0.083554 4.881899e+18 1.744017e-02 0 
    0.084521 6.217522e+18 2.170624e-02 0 
    0.085500 6.601025e+18 2.252037e-02 0 
    0.086490 7.271377e+18 2.424272e-02 0 
    0.087492 7.936096e+18 2.585632e-02 0 
    0.088505 8.742003e+18 2.783376e-02 0 
    0.089530 9.431899e+18 2.934664e-02 0 
    0.090566 9.831274e+18 2.989344e-02 0 
    0.091404 1.398311e+19 4.174166e-02 0 
    0.092463 8.310249e+19 2.424234e-01 0 
    0.093533 1.822244e+20 5.194853e-01 0 
    0.094399 3.504350e+20 9.807744e-01 0 
    0.095492 4.915908e+20 1.344517e+00 0 
    0.096598 5.869527e+20 1.568784e+00 0 
    0.097492 1.173845e+20 3.080133e-01 0 
    0.098394 5.566832e+20 1.434060e+00 0 
    0.099533 5.749204e+20 1.447338e+00 0 
    0.100454 7.917538e+20 1.956826e+00 0 
    0.101383 7.666320e+20 1.860172e+00 0 
    0.102557 3.448298e+20 8.176560e-01 0 
    0.103506 5.978700e+20 1.391785e+00 0 
    0.104464 1.065665e+21 2.435477e+00 0 
    0.105431 1.058285e+21 2.374446e+00 0 
    0.106406 8.863776e+20 1.952464e+00 0 
    0.107391 1.048588e+21 2.267594e+00 0 
    0.108384 8.802271e+20 1.868791e+00 0 
    0.109387 1.131357e+21 2.358113e+00 0 
    0.110399 1.085403e+21 2.221043e+00 0 
    0.111421 1.070561e+21 2.150670e+00 0 
    0.112452 9.740886e+20 1.921147e+00 0 
    0.113492 1.217857e+21 2.358100e+00 0 
    0.114543 1.136578e+21 2.160521e+00 0 
    0.115602 1.212292e+21 2.262420e+00 0 
    0.116404 1.257800e+21 2.315113e+00 0 
    0.117481 9.069874e+20 1.638937e+00 0 
    0.118568 1.278209e+21 2.267583e+00 0 
    0.119390 1.001409e+21 1.752152e+00 0 
    0.120494 7.684327e+20 1.319993e+00 0 
    0.121609 4.904663e+20 8.271308e-01 0 
    0.122452 9.922022e+20 1.650307e+00 0 
    0.123585 1.391851e+21 2.272781e+00 0 
    0.124442 1.494910e+21 2.407562e+00 0 
    0.125593 1.464227e+21 2.315122e+00 0 
    0.126464 1.353970e+21 2.111406e+00 0 
    0.127634 1.609139e+21 2.463526e+00 0 
    0.128519 1.661923e+21 2.509417e+00 0 
    0.129410 1.388698e+21 2.068085e+00 0 
    0.130607 1.440816e+21 2.106551e+00 0 
    0.131512 1.708403e+21 2.463519e+00 0 
    0.132424 1.646660e+21 2.341893e+00 0 
    0.133649 1.536700e+21 2.145627e+00 0 
    0.134576 1.744283e+21 2.402028e+00 0 
    0.135509 1.728197e+21 2.347218e+00 0 
    0.136448 1.612877e+21 2.160545e+00 0 
    0.137394 1.661962e+21 2.195746e+00 0 
    0.138346 1.700635e+21 2.216023e+00 0 
    0.139626 1.457510e+21 1.864556e+00 0 
    0.140594 1.536792e+21 1.939001e+00 0 
    0.141569 1.665683e+21 2.072777e+00 0 
    0.142550 1.688868e+21 2.072802e+00 0 
    0.143538 1.740224e+21 2.106531e+00 0 
    0.144201 1.809748e+21 2.170591e+00 0 
    0.144866 1.822267e+21 2.165587e+00 0 
    0.145535 1.797257e+21 2.116273e+00 0 
    0.146544 1.712343e+21 1.988617e+00 0 
    0.147559 1.744229e+21 1.997877e+00 0 
    0.148582 1.772528e+21 2.002430e+00 0 
    0.149612 1.797174e+21 2.002413e+00 0 
    0.150649 1.724328e+21 1.894889e+00 0 
    0.151345 1.576133e+21 1.716142e+00 0 
    0.151693 1.661970e+21 1.801310e+00 0 
    0.152394 1.677332e+21 1.801274e+00 0 
    0.153450 1.501780e+21 1.590630e+00 0 
    0.154514 1.554474e+21 1.623844e+00 0 
    0.155585 1.522654e+21 1.568781e+00 0 
    0.156663 1.620379e+21 1.646570e+00 0 
    0.157386 1.728323e+21 1.740160e+00 0 
    0.158477 1.788950e+21 1.776487e+00 0 
    0.159576 1.834873e+21 1.797080e+00 0 
    0.160682 1.830670e+21 1.768365e+00 0 
    0.161423 1.843381e+21 1.764334e+00 0 
    0.162542 1.817987e+21 1.716153e+00 0 
    0.163669 1.934731e+21 1.801293e+00 0 
    0.164425 1.952645e+21 1.801292e+00 0 
    0.165564 1.903681e+21 1.732044e+00 0 
    0.166329 2.025817e+21 1.826252e+00 0 
    0.167096 1.925813e+21 1.720198e+00 0 
    0.167868 2.082554e+21 1.843134e+00 0 
    0.168642 2.121242e+21 1.860181e+00 0 
    0.169421 2.044558e+21 1.776485e+00 0 
    0.170595 2.011861e+21 1.724098e+00 0 
    0.171383 1.934592e+21 1.642671e+00 0 
    0.172571 1.943687e+21 1.627748e+00 0 
    0.173367 2.058817e+21 1.708367e+00 0 
    0.174569 2.039895e+21 1.669437e+00 0 
    0.175375 2.131169e+21 1.728140e+00 0 
    0.176590 2.053942e+21 1.642678e+00 0 
    0.177405 2.063539e+21 1.635225e+00 0 
    0.178635 2.131048e+21 1.665546e+00 0 
    0.179460 2.221343e+21 1.720191e+00 0 
    0.180704 2.257352e+21 1.724091e+00 0 
    0.181538 2.106698e+21 1.594276e+00 0 
    0.182376 2.185744e+21 1.638930e+00 0 
    0.183640 2.155775e+21 1.594283e+00 0 
    0.184487 2.021191e+21 1.481059e+00 0 
    0.185339 2.025831e+21 1.470842e+00 0 
    0.186624 2.101857e+21 1.505097e+00 0 
    0.187485 2.252186e+21 1.597967e+00 0 
    0.188351 2.087410e+21 1.467467e+00 0 
    0.189656 2.007284e+21 1.391785e+00 0 
    0.190531 2.175733e+21 1.494758e+00 0 
    0.191411 2.092203e+21 1.424185e+00 0 
    0.192295 2.054022e+21 1.385369e+00 0 
    0.193627 2.180749e+21 1.450676e+00 0 
    0.194521 2.257375e+21 1.487877e+00 0 
    0.195419 2.111565e+21 1.379010e+00 0 
    0.196774 2.304655e+21 1.484455e+00 0 
    0.197682 2.402177e+21 1.533089e+00 0 
    0.198594 2.294059e+21 1.450671e+00 0 
    0.199511 2.262577e+21 1.417641e+00 0 
    0.200432 2.352913e+21 1.460724e+00 0 
    0.201357 2.331342e+21 1.434065e+00 0 
    0.202286 2.446849e+21 1.491324e+00 0 
    0.203689 2.325981e+21 1.398194e+00 0 
    0.204629 2.391129e+21 1.424180e+00 0 
    0.205573 2.273028e+21 1.341433e+00 0 
    0.206522 2.352897e+21 1.375836e+00 0 
    0.207476 2.526979e+21 1.464072e+00 0 
    0.207954 2.374691e+21 1.369522e+00 0 
    0.208433 2.475161e+21 1.420911e+00 0 
    0.209395 2.380155e+21 1.353845e+00 0 
    0.210362 2.458111e+21 1.385362e+00 0 
    0.211333 2.492327e+21 1.391768e+00 0 
    0.212308 2.544506e+21 1.407885e+00 0 
    0.213288 2.486601e+21 1.363232e+00 0 
    0.214273 2.469488e+21 1.341431e+00 0 
    0.215262 2.573966e+21 1.385366e+00 0 
    0.216255 2.550371e+21 1.360089e+00 0 
    0.217254 2.556270e+21 1.350727e+00 0 
    0.218256 2.527007e+21 1.323033e+00 0 
    0.219264 2.615777e+21 1.356946e+00 0 
    0.220276 2.597804e+21 1.335268e+00 0 
    0.221293 2.556263e+21 1.301867e+00 0 
    0.222314 2.515377e+21 1.269305e+00 0 
    0.223340 2.603795e+21 1.301878e+00 0 
    0.224371 2.585839e+21 1.281045e+00 0 
    0.225407 2.538675e+21 1.246146e+00 0 
    0.226447 2.597811e+21 1.263487e+00 0 
    0.227492 2.640022e+21 1.272248e+00 0 
    0.228542 2.676444e+21 1.277976e+00 0 
    0.229597 2.579217e+21 1.220259e+00 0 
    0.230657 2.626756e+21 1.231354e+00 0 
    0.231722 2.578368e+21 1.197587e+00 0 
    0.232256 2.219782e+21 1.026296e+00 0 
    0.233328 2.513258e+21 1.151330e+00 0 
    0.234405 2.507067e+21 1.137965e+00 0 
    0.235487 2.582808e+21 1.161595e+00 0 
    0.236574 2.529398e+21 1.127144e+00 0 
    0.237666 2.558272e+21 1.129559e+00 0 
    0.238763 2.499618e+21 1.093544e+00 0 
    0.239313 2.575354e+21 1.121504e+00 0 
    0.240418 2.533743e+21 1.093264e+00 0 
    0.241528 2.568529e+21 1.098110e+00 0 
    0.242642 2.633986e+21 1.115778e+00 0 
    0.243762 2.579501e+21 1.082680e+00 0 
    0.244324 2.651537e+21 1.107801e+00 0 
    0.245452 2.651068e+21 1.097449e+00 0 
    0.246585 2.644529e+21 1.084704e+00 0 
    0.247723 2.619835e+21 1.064726e+00 0 
    0.248294 2.656015e+21 1.074471e+00 0 
    0.249440 2.466907e+21 9.888196e-01 0 
    0.250592 2.704457e+21 1.074094e+00 0 
    0.251169 2.570638e+21 1.016261e+00 0 
    0.251748 2.660723e+21 1.047042e+00 0 
    0.252329 2.611936e+21 1.023115e+00 0 
    0.253493 2.629552e+21 1.020578e+00 0 
    0.254664 2.610990e+21 1.004076e+00 0 
    0.255251 2.690061e+21 1.029731e+00 0 
    0.256429 2.677231e+21 1.015425e+00 0 
    0.257612 2.758073e+21 1.036502e+00 0 
    0.258206 2.751458e+21 1.029264e+00 0 
    0.259398 2.757314e+21 1.021997e+00 0 
    0.260595 2.725249e+21 1.000853e+00 0 
    0.261798 2.724745e+21 9.914931e-01 0 
    0.262402 2.756036e+21 9.982679e-01 0 
    0.263613 2.800282e+21 1.004997e+00 0 
    0.264221 2.885091e+21 1.030674e+00 0 
    0.265440 2.924662e+21 1.035236e+00 0 
    0.266666 2.824835e+21 9.907277e-01 0 
    0.267280 2.877075e+21 1.004419e+00 0 
    0.268514 2.896471e+21 1.001917e+00 0 
    0.269753 2.836531e+21 9.721906e-01 0 
    0.270375 2.862515e+21 9.765875e-01 0 
    0.271623 2.829157e+21 9.563577e-01 0 
    0.272249 2.815897e+21 9.475031e-01 0 
    0.273506 2.880932e+21 9.604965e-01 0 
    0.274768 2.763433e+21 9.128788e-01 0 
    0.275402 2.782298e+21 9.148838e-01 0 
    0.276673 2.833480e+21 9.231728e-01 0 
    0.277311 2.892523e+21 9.380783e-01 0 
    0.278591 2.865433e+21 9.207730e-01 0 
    0.279233 2.667767e+21 8.533178e-01 0 
    0.280522 2.767323e+21 8.770462e-01 0 
    0.281817 2.923965e+21 9.181936e-01 0 
    0.282466 2.943901e+21 9.202109e-01 0 
    0.283770 2.876356e+21 8.908531e-01 0 
    0.284424 2.862796e+21 8.825806e-01 0 
    0.285737 2.855620e+21 8.722961e-01 0 
    0.286396 2.942096e+21 8.945804e-01 0 
    0.287718 2.961883e+21 8.923400e-01 0 
    0.288381 2.961613e+21 8.881605e-01 0 
    0.289712 2.988351e+21 8.879632e-01 0 
    0.291049 3.071481e+21 9.042991e-01 0 
    0.293067 3.042319e+21 8.834202e-01 0 
    0.295098 3.020433e+21 8.650339e-01 0 
    0.297144 3.054458e+21 8.627732e-01 0 
    0.299204 3.060506e+21 8.526187e-01 0 
    0.301278 3.073640e+21 8.445290e-01 0 
    0.302668 3.087114e+21 8.404583e-01 0 
    0.304766 3.100411e+21 8.324970e-01 0 
    0.306879 3.128042e+21 8.283895e-01 0 
    0.309006 3.119831e+21 8.148799e-01 0 
    0.311148 3.162163e+21 8.146044e-01 0 
    0.313305 3.146533e+21 7.994550e-01 0 
    0.314751 3.145805e+21 7.919433e-01 0 
    0.316933 3.173843e+21 7.880375e-01 0 
    0.319129 3.114865e+21 7.627868e-01 0 
    0.321341 3.171701e+21 7.660487e-01 0 
    0.322825 3.127443e+21 7.484307e-01 0 
    0.325062 3.236220e+21 7.638393e-01 0 
    0.327316 3.302784e+21 7.688510e-01 0 
    0.328826 3.294370e+21 7.598651e-01 0 
    0.331106 3.285666e+21 7.474563e-01 0 
    0.331869 3.346326e+21 7.577595e-01 0 
    0.332634 3.376879e+21 7.611647e-01 0 
    0.333401 3.415599e+21 7.663543e-01 0 
    0.334170 3.284074e+21 7.334568e-01 0 
    0.334940 3.454348e+21 7.679421e-01 0 
    0.335712 3.313658e+21 7.332810e-01 0 
    0.336486 3.178743e+21 7.001931e-01 0 
    0.337262 3.185650e+21 6.984891e-01 0 
    0.338039 3.327731e+21 7.262918e-01 0 
    0.338818 3.404822e+21 7.397039e-01 0 
    0.339599 3.388750e+21 7.328300e-01 0 
    0.340382 3.388341e+21 7.293741e-01 0 
    0.341167 3.318446e+21 7.110451e-01 0 
    0.341953 3.356504e+21 7.158973e-01 0 
    0.342742 3.426301e+21 7.274235e-01 0 
    0.343532 3.457630e+21 7.307024e-01 0 
    0.344324 3.293936e+21 6.929104e-01 0 
    0.345117 3.432915e+21 7.188310e-01 0 
    0.345913 3.354370e+21 6.991554e-01 0 
    0.346710 3.346248e+21 6.942594e-01 0 
    0.347510 3.376777e+21 6.973716e-01 0 
    0.348311 3.353141e+21 6.893089e-01 0 
    0.349114 3.430771e+21 7.020267e-01 0 
    0.349919 3.336874e+21 6.796749e-01 0 
    0.350725 3.406269e+21 6.906245e-01 0 
    0.351534 3.305383e+21 6.670886e-01 0 
    0.352344 3.429069e+21 6.888725e-01 0 
    0.353156 3.412862e+21 6.824676e-01 0 
    0.353970 3.507985e+21 6.982666e-01 0 
    0.354786 3.580975e+21 7.095202e-01 0 
    0.355604 3.531396e+21 6.964815e-01 0 
    0.356424 3.539096e+21 6.947922e-01 0 
    0.357245 3.395012e+21 6.634458e-01 0 
    0.358069 3.340305e+21 6.497543e-01 0 
    0.358895 3.196902e+21 6.190004e-01 0 
    0.359722 3.401503e+21 6.555916e-01 0 
    0.360551 3.456262e+21 6.630857e-01 0 
    0.361382 3.384994e+21 6.464296e-01 0 
    0.362215 3.423743e+21 6.508259e-01 0 
    0.363050 3.770825e+21 7.135098e-01 0 
    0.363887 3.559437e+21 6.704164e-01 0 
    0.364489 3.625747e+21 6.806520e-01 1 
    0.364762 3.607288e+21 6.761735e-01 1 
    0.365034 3.515018e+21 6.578962e-01 1 
    0.365307 3.708765e+21 6.931221e-01 1 
    0.365579 3.817728e+21 7.124246e-01 1 
    0.365852 3.634099e+21 6.771460e-01 1 
    0.366124 3.607259e+21 6.711466e-01 1 
    0.366397 3.423792e+21 6.360628e-01 1 
    0.366669 3.129426e+21 5.805141e-01 1 
    0.366941 3.057197e+21 5.662751e-01 1 
    0.367214 3.372438e+21 6.237376e-01 1 
    0.367486 2.996113e+21 5.533157e-01 1 
    0.367759 3.532152e+21 6.513422e-01 1 
    0.368031 3.499071e+21 6.442885e-01 1 
    0.368304 3.870522e+21 7.116282e-01 1 
    0.368576 3.225586e+21 5.921762e-01 1 
    0.368849 3.514542e+21 6.442701e-01 1 
    0.369121 3.901101e+21 7.140788e-01 1 
    0.369394 3.438859e+21 6.285374e-01 1 
    0.369666 3.492277e+21 6.373620e-01 1 
    0.369938 3.874164e+21 7.060193e-01 1 
    0.370211 3.712574e+21 6.755739e-01 1 
    0.370483 3.928342e+21 7.137879e-01 1 
    0.370756 3.450682e+21 6.260730e-01 1 
    0.371028 2.604999e+21 4.719442e-01 1 
    0.371301 3.258747e+21 5.895149e-01 1 
    0.371573 3.710676e+21 6.702876e-01 1 
    0.371846 4.316065e+21 7.784993e-01 1 
    0.372118 6.277955e+21 1.130715e+00 1 
    0.372391 1.174371e+22 2.112047e+00 1 
    0.372663 1.891752e+22 3.397254e+00 1 
    0.372936 2.286158e+22 4.099529e+00 1 
    0.373208 1.979082e+22 3.543711e+00 1 
    0.373480 1.244482e+22 2.225104e+00 1 
    0.373753 6.526644e+21 1.165244e+00 1 
    0.374025 4.323235e+21 7.707331e-01 1 
    0.374298 3.779688e+21 6.728487e-01 1 
    0.374570 3.748240e+21 6.662816e-01 1 
    0.374843 3.855669e+21 6.843802e-01 1 
    0.375115 3.660508e+21 6.487972e-01 1 
    0.375388 3.993902e+21 7.068596e-01 1 
    0.375660 4.107169e+21 7.258538e-01 1 
    0.375933 4.206507e+21 7.423302e-01 1 
    0.376205 4.210398e+21 7.419428e-01 1 
    0.376477 4.259544e+21 7.495190e-01 1 
    0.376750 3.556236e+21 6.248568e-01 1 
    0.377022 3.804964e+21 6.675958e-01 1 
    0.377295 4.120035e+21 7.218305e-01 1 
    0.377567 4.368512e+21 7.642615e-01 1 
    0.377840 4.403786e+21 7.693197e-01 1 
    0.378112 4.528313e+21 7.899360e-01 1 
    0.378385 4.336516e+21 7.553871e-01 1 
    0.378657 4.487292e+21 7.805286e-01 1 
    0.378930 4.446876e+21 7.723844e-01 1 
    0.379202 4.073611e+21 7.065367e-01 1 
    0.379474 4.067760e+21 7.045110e-01 1 
    0.379747 4.501436e+21 7.785005e-01 1 
    0.380019 4.037095e+21 6.971958e-01 1 
    0.380292 3.795249e+21 6.544890e-01 1 
    0.380564 4.477321e+21 7.710088e-01 1 
    0.380837 4.433179e+21 7.623131e-01 1 
    0.381109 4.367548e+21 7.499559e-01 1 
    0.381382 4.495913e+21 7.708927e-01 1 
    0.381654 4.417464e+21 7.563622e-01 1 
    0.381927 4.362398e+21 7.458663e-01 1 
    0.382199 4.237719e+21 7.235182e-01 1 
    0.382472 4.060252e+21 6.922296e-01 1 
    0.382744 4.443014e+21 7.564102e-01 1 
    0.383016 4.003426e+21 6.806039e-01 1 
    0.383289 3.718588e+21 6.312796e-01 1 
    0.383561 3.726746e+21 6.317676e-01 1 
    0.383834 4.626250e+21 7.831386e-01 1 
    0.384106 4.051571e+21 6.848850e-01 1 
    0.384379 4.171660e+21 7.041838e-01 1 
    0.384651 4.302950e+21 7.253190e-01 1 
    0.384924 4.604380e+21 7.750284e-01 1 
    0.385196 4.537662e+21 7.627199e-01 1 
    0.385469 4.959783e+21 8.324923e-01 1 
    0.385741 4.735429e+21 7.937143e-01 1 
    0.386013 4.730009e+21 7.916889e-01 1 
