# NGC 3265       
# 
# An Atlas of Galaxy Spectral Energy Distributions from the Ultraviolet to the Mid-Infrared
# Brown et al. (2014)
# http://dx.doi.org/10.5072/03/529D3551F0117
# http://dx.doi.org/10.17909/t9-5bxk-dh29
# 
# The Spectral Energy Distributions of Active Galactic Nuclei
# Brown et al. (2019)
# http://dx.doi.org/10.17909/t9-3dbt-8734
# 
# Column 1: Observed wavelength (um)
# Column 2: L_nu (W/Hz)
# Column 3: f_lam (erg/s/cm2/A)
# Column 4: Source (0 = model, 1 = Optical Spectrun, 2 = Akari, 3 = Spitzer IRS)
# 
  1.0002e-02 5.058911e+09 1.261188e-09 0 
  1.0212e-02 6.762699e+09 1.617316e-09 0 
  1.0401e-02 8.204609e+09 1.891490e-09 0 
  1.0595e-02 1.035232e+10 2.300023e-09 0 
  1.0792e-02 1.321460e+10 2.829741e-09 0 
  1.0992e-02 2.133519e+10 4.403921e-09 0 
  1.1405e-02 3.221633e+10 6.177062e-09 0 
  1.1806e-02 4.561494e+10 8.162026e-09 0 
  1.2109e-02 1.409568e+11 2.397541e-08 0 
  1.2505e-02 2.000110e+11 3.189943e-08 0 
  1.2708e-02 2.360757e+11 3.645803e-08 0 
  1.2797e-02 2.570921e+11 3.915335e-08 0 
  1.3095e-02 3.221518e+11 4.685393e-08 0 
  1.3185e-02 3.724353e+11 5.343022e-08 0 
  1.3400e-02 4.306321e+11 5.981268e-08 0 
  1.3712e-02 5.742302e+11 7.616947e-08 0 
  1.3999e-02 7.080178e+11 9.010452e-08 0 
  1.4292e-02 1.273770e+12 1.555254e-07 0 
  1.4692e-02 2.291269e+12 2.647345e-07 0 
  1.5104e-02 2.945142e+12 3.219725e-07 0 
  1.5491e-02 3.767897e+12 3.915944e-07 0 
  1.5889e-02 4.787303e+12 4.729271e-07 0 
  1.6184e-02 5.702338e+12 5.429723e-07 0 
  1.6599e-02 7.178885e+12 6.498148e-07 0 
  1.6986e-02 8.893577e+12 7.687598e-07 0 
  1.7302e-02 1.042510e+13 8.685283e-07 0 
  1.7705e-02 1.276695e+13 1.015762e-06 0 
  1.7993e-02 1.475997e+13 1.137037e-06 0 
  1.8201e-02 1.633310e+13 1.229630e-06 0 
  1.8582e-02 1.963717e+13 1.418373e-06 0 
  1.9103e-02 2.460899e+13 1.681849e-06 0 
  1.9413e-02 2.818732e+13 1.865369e-06 0 
  1.9820e-02 3.342603e+13 2.122139e-06 0 
  2.0188e-02 3.936275e+13 2.408770e-06 0 
  2.0516e-02 4.447000e+13 2.634985e-06 0 
  2.0994e-02 5.236758e+13 2.963252e-06 0 
  2.1582e-02 6.730898e+13 3.604010e-06 0 
  2.1983e-02 7.799679e+13 4.025309e-06 0 
  2.2289e-02 8.611258e+13 4.322967e-06 0 
  2.2704e-02 9.932597e+13 4.805676e-06 0 
  2.3019e-02 1.585245e+14 7.461391e-06 0 
  2.3393e-02 2.877884e+14 1.311589e-05 0 
  2.3993e-02 4.055795e+14 1.757128e-05 0 
  2.4609e-02 4.457268e+14 1.835597e-05 0 
  2.5182e-02 5.236967e+14 2.059661e-05 0 
  2.5709e-02 4.842781e+14 1.827346e-05 0 
  2.6007e-02 5.971581e+14 2.201939e-05 0 
  2.6430e-02 6.715438e+14 2.397599e-05 0 
  2.6921e-02 7.346740e+14 2.528184e-05 0 
  2.7422e-02 7.999584e+14 2.653173e-05 0 
  2.7931e-02 8.690953e+14 2.778375e-05 0 
  2.8385e-02 9.398730e+14 2.909295e-05 0 
  2.8980e-02 9.910019e+14 2.942891e-05 0 
  2.9586e-02 1.106848e+15 3.153639e-05 0 
  3.0067e-02 1.153690e+15 3.182772e-05 0 
  3.0768e-02 1.294428e+15 3.410169e-05 0 
  3.1776e-02 1.517285e+15 3.747703e-05 0 
  3.2817e-02 1.722174e+15 3.988188e-05 0 
  3.3814e-02 1.923496e+15 4.195604e-05 0 
  3.4761e-02 2.133432e+15 4.403427e-05 0 
  3.5735e-02 2.355442e+15 4.600249e-05 0 
  3.6567e-02 2.582696e+15 4.817159e-05 0 
  3.7505e-02 2.812337e+15 4.986382e-05 0 
  3.8467e-02 2.972238e+15 5.009603e-05 0 
  3.9545e-02 3.334842e+15 5.318492e-05 0 
  4.0466e-02 3.623000e+15 5.518033e-05 0 
  4.1409e-02 3.882278e+15 5.646685e-05 0 
  4.2179e-02 4.083706e+15 5.724774e-05 0 
  4.2963e-02 4.286469e+15 5.791712e-05 0 
  4.4065e-02 4.646193e+15 5.967688e-05 0 
  4.5091e-02 4.932466e+15 6.050354e-05 0 
  4.6036e-02 5.189105e+15 6.106520e-05 0 
  4.7000e-02 5.483675e+15 6.191166e-05 0 
  4.7984e-02 5.822133e+15 6.306460e-05 0 
  4.8988e-02 6.068466e+15 6.306610e-05 0 
    0.050014 6.457533e+15 6.438428e-05 0 
    0.050593 6.761849e+15 6.588417e-05 0 
    0.051179 8.055242e+15 7.669930e-05 0 
    0.052011 8.377104e+15 7.723248e-05 0 
    0.052978 8.751297e+15 7.776384e-05 0 
    0.053963 8.934443e+15 7.651943e-05 0 
    0.054966 9.864517e+15 8.142992e-05 0 
    0.055988 1.091638e+16 8.685304e-05 0 
    0.057029 1.183256e+16 9.073685e-05 0 
    0.057955 1.208023e+16 8.969947e-05 0 
    0.059033 1.330709e+16 9.523354e-05 0 
    0.059992 1.371151e+16 9.501564e-05 0 
    0.060967 1.435733e+16 9.633422e-05 0 
    0.061957 1.663719e+16 1.080925e-04 0 
    0.062964 1.766380e+16 1.111210e-04 0 
    0.063987 1.866707e+16 1.137075e-04 0 
    0.065027 2.028012e+16 1.196133e-04 0 
    0.065780 2.118757e+16 1.221209e-04 0 
    0.066542 2.264992e+16 1.275767e-04 0 
    0.067467 2.382775e+16 1.305560e-04 0 
    0.068564 2.432584e+16 1.290541e-04 0 
    0.069517 2.851534e+16 1.471611e-04 0 
    0.070484 2.831964e+16 1.421684e-04 0 
    0.071630 3.334921e+16 1.621034e-04 0 
    0.072626 3.532528e+16 1.670313e-04 0 
    0.073467 3.733082e+16 1.724961e-04 0 
    0.074489 4.112195e+16 1.848357e-04 0 
    0.075525 4.416572e+16 1.931080e-04 0 
    0.076576 4.656710e+16 1.980570e-04 0 
    0.077463 5.165138e+16 2.146791e-04 0 
    0.078540 5.611448e+16 2.268765e-04 0 
    0.079450 5.985072e+16 2.364711e-04 0 
    0.080555 6.413277e+16 2.464855e-04 0 
    0.081488 6.793114e+16 2.551397e-04 0 
    0.082432 7.465789e+16 2.740189e-04 0 
    0.083578 6.887783e+16 2.459189e-04 0 
    0.084546 8.357534e+16 2.916006e-04 0 
    0.085525 8.873045e+16 3.025401e-04 0 
    0.086515 9.684556e+16 3.226958e-04 0 
    0.087517 1.052144e+17 3.425994e-04 0 
    0.088531 1.148360e+17 3.654128e-04 0 
    0.089556 1.236183e+17 3.844058e-04 0 
    0.090593 1.291443e+17 3.924482e-04 0 
    0.091431 1.871057e+17 5.582086e-04 0 
    0.092490 1.091638e+18 3.182626e-03 0 
    0.093561 2.426935e+18 6.914565e-03 0 
    0.094426 4.809238e+18 1.345208e-02 0 
    0.095520 6.824535e+18 1.865438e-02 0 
    0.096404 8.415438e+18 2.258308e-02 0 
    0.097520 1.845340e+18 4.839332e-03 0 
    0.098422 8.934495e+18 2.300287e-02 0 
    0.099562 9.142663e+18 2.300287e-02 0 
    0.100483 1.205237e+19 2.977033e-02 0 
    0.101413 1.124801e+19 2.727626e-02 0 
    0.102587 4.699876e+18 1.113777e-02 0 
    0.103536 8.976002e+18 2.088318e-02 0 
    0.104494 1.610921e+19 3.679492e-02 0 
    0.105461 1.637088e+19 3.671003e-02 0 
    0.106437 1.419310e+19 3.124558e-02 0 
    0.107422 1.663725e+19 3.595767e-02 0 
    0.108416 1.435736e+19 3.046381e-02 0 
    0.109419 1.795061e+19 3.739300e-02 0 
    0.110432 1.770447e+19 3.620675e-02 0 
    0.111453 1.778605e+19 3.571021e-02 0 
    0.112485 1.671401e+19 3.294488e-02 0 
    0.113525 2.014075e+19 3.897527e-02 0 
    0.114576 1.897031e+19 3.603989e-02 0 
    0.115370 2.009473e+19 3.765241e-02 0 
    0.116438 2.123632e+19 3.906486e-02 0 
    0.117515 1.640868e+19 2.963353e-02 0 
    0.118602 2.123629e+19 3.765226e-02 0 
    0.119424 1.618364e+19 2.830020e-02 0 
    0.120529 1.267884e+19 2.176671e-02 0 
    0.121365 7.031950e+18 1.190653e-02 0 
    0.122488 1.531354e+19 2.545569e-02 0 
    0.123621 2.254626e+19 3.679480e-02 0 
    0.124478 2.523945e+19 4.062478e-02 0 
    0.125630 2.529775e+19 3.997529e-02 0 
    0.126501 2.286003e+19 3.562749e-02 0 
    0.127378 2.818880e+19 4.332954e-02 0 
    0.128556 2.979064e+19 4.495641e-02 0 
    0.129447 2.594634e+19 3.861790e-02 0 
    0.130645 2.618641e+19 3.826369e-02 0 
    0.131551 3.112284e+19 4.485258e-02 0 
    0.132463 3.055447e+19 4.342923e-02 0 
    0.133381 2.864691e+19 4.015931e-02 0 
    0.134615 3.273959e+19 4.505913e-02 0 
    0.135548 3.251449e+19 4.413541e-02 0 
    0.136488 3.055446e+19 4.090555e-02 0 
    0.137434 3.206837e+19 4.234332e-02 0 
    0.138386 3.296654e+19 4.293244e-02 0 
    0.139346 2.992830e+19 3.844055e-02 0 
    0.140635 3.155566e+19 3.979119e-02 0 
    0.141610 3.296693e+19 4.100031e-02 0 
    0.142591 3.373502e+19 4.138026e-02 0 
    0.143580 3.420444e+19 4.138005e-02 0 
    0.144243 3.589864e+19 4.303135e-02 0 
    0.144575 3.639793e+19 4.342969e-02 0 
    0.145577 3.631435e+19 4.273554e-02 0 
    0.146586 3.483985e+19 4.043782e-02 0 
    0.147602 3.516250e+19 4.025239e-02 0 
    0.148626 3.598128e+19 4.062408e-02 0 
    0.149656 3.690424e+19 4.109457e-02 0 
    0.150346 3.589879e+19 3.960888e-02 0 
    0.151040 3.342558e+19 3.654192e-02 0 
    0.151738 3.540608e+19 3.835178e-02 0 
    0.152438 3.500083e+19 3.756542e-02 0 
    0.153495 3.206862e+19 3.394597e-02 0 
    0.154559 3.452044e+19 3.603995e-02 0 
    0.155630 3.342545e+19 3.441811e-02 0 
    0.156348 3.444077e+19 3.513862e-02 0 
    0.157432 3.681960e+19 3.705011e-02 0 
    0.158523 3.846600e+19 3.817586e-02 0 
    0.159622 3.990996e+19 3.906540e-02 0 
    0.160359 3.918129e+19 3.800044e-02 0 
    0.161471 3.972615e+19 3.800002e-02 0 
    0.162590 3.882194e+19 3.662571e-02 0 
    0.163340 4.093323e+19 3.826373e-02 0 
    0.164472 4.188658e+19 3.861779e-02 0 
    0.165613 4.000175e+19 3.637363e-02 0 
    0.166377 4.335892e+19 3.906504e-02 0 
    0.167145 4.037129e+19 3.603979e-02 0 
    0.167530 4.416480e+19 3.924529e-02 0 
    0.168692 4.592823e+19 4.025197e-02 0 
    0.169470 4.426712e+19 3.844077e-02 0 
    0.170645 4.355918e+19 3.730689e-02 0 
    0.171433 4.256723e+19 3.612293e-02 0 
    0.172621 4.286199e+19 3.587414e-02 0 
    0.173418 4.540271e+19 3.765215e-02 0 
    0.174620 4.508941e+19 3.687933e-02 0 
    0.175426 4.776151e+19 3.870674e-02 0 
    0.176642 4.508944e+19 3.603988e-02 0 
    0.177457 4.678198e+19 3.705005e-02 0 
    0.178687 4.798172e+19 3.747885e-02 0 
    0.179512 5.059188e+19 3.915528e-02 0 
    0.180340 5.082478e+19 3.897515e-02 0 
    0.181591 4.887420e+19 3.696472e-02 0 
    0.182429 4.989694e+19 3.739233e-02 0 
    0.183693 4.932644e+19 3.645784e-02 0 
    0.184541 4.645998e+19 3.402434e-02 0 
    0.185393 4.721487e+19 3.426009e-02 0 
    0.186678 4.909896e+19 3.513844e-02 0 
    0.187540 5.212883e+19 3.696465e-02 0 
    0.188405 4.955353e+19 3.481658e-02 0 
    0.189711 4.864919e+19 3.371220e-02 0 
    0.190587 5.129580e+19 3.522019e-02 0 
    0.191467 5.047469e+19 3.433857e-02 0 
    0.192350 5.001229e+19 3.371233e-02 0 
    0.193684 5.129519e+19 3.410245e-02 0 
    0.194578 5.445961e+19 3.587431e-02 0 
    0.195476 5.224883e+19 3.410249e-02 0 
    0.196831 5.650417e+19 3.637390e-02 0 
    0.197739 5.822083e+19 3.713558e-02 0 
    0.198195 5.611489e+19 3.562782e-02 0 
    0.199569 5.560008e+19 3.481655e-02 0 
    0.200490 5.702634e+19 3.538234e-02 0 
    0.201416 5.650408e+19 3.473668e-02 0 
    0.202345 5.835529e+19 3.554608e-02 0 
    0.203279 5.729012e+19 3.457731e-02 0 
    0.204688 5.957660e+19 3.546397e-02 0 
    0.205633 5.742208e+19 3.386801e-02 0 
    0.206582 5.862407e+19 3.426001e-02 0 
    0.207536 6.281740e+19 3.637387e-02 0 
    0.208014 6.195545e+19 3.571009e-02 0 
    0.208494 6.383771e+19 3.662576e-02 0 
    0.209456 6.167095e+19 3.505835e-02 0 
    0.210423 6.267248e+19 3.530099e-02 0 
    0.211394 6.383777e+19 3.562779e-02 0 
    0.212370 6.487425e+19 3.587422e-02 0 
    0.213350 6.209827e+19 3.402441e-02 0 
    0.214335 6.428015e+19 3.489692e-02 0 
    0.215324 6.638630e+19 3.571002e-02 0 
    0.216318 6.487516e+19 3.457718e-02 0 
    0.217317 6.517424e+19 3.441796e-02 0 
    0.218320 6.592911e+19 3.449742e-02 0 
    0.219328 6.887780e+19 3.570981e-02 0 
    0.220340 6.777577e+19 3.481643e-02 0 
    0.221357 6.532430e+19 3.324947e-02 0 
    0.222379 6.502418e+19 3.279320e-02 0 
    0.223405 6.983559e+19 3.489695e-02 0 
    0.224436 6.793206e+19 3.363459e-02 0 
    0.225472 6.592930e+19 3.234370e-02 0 
    0.226513 6.700112e+19 3.256809e-02 0 
    0.227559 6.935501e+19 3.340306e-02 0 
    0.228609 7.212344e+19 3.441804e-02 0 
    0.229664 6.909530e+19 3.267075e-02 0 
    0.230724 7.096391e+19 3.324669e-02 0 
    0.231256 6.907728e+19 3.221407e-02 0 
    0.232324 5.928212e+19 2.739252e-02 0 
    0.233396 6.614861e+19 3.028520e-02 0 
    0.234473 6.369632e+19 2.889516e-02 0 
    0.235556 7.025962e+19 3.158013e-02 0 
    0.236643 6.520967e+19 2.904164e-02 0 
    0.237735 6.837620e+19 3.017277e-02 0 
    0.238283 6.312664e+19 2.772828e-02 0 
    0.239383 6.726869e+19 2.927675e-02 0 
    0.240488 6.628574e+19 2.858445e-02 0 
    0.241598 6.823861e+19 2.915681e-02 0 
    0.242713 7.406840e+19 3.135764e-02 0 
    0.243273 7.210124e+19 3.038445e-02 0 
    0.244396 7.648130e+19 3.193475e-02 0 
    0.245524 7.676632e+19 3.175991e-02 0 
    0.246657 7.652139e+19 3.136840e-02 0 
    0.247226 7.414651e+19 3.025512e-02 0 
    0.248367 7.442481e+19 3.009029e-02 0 
    0.249513 7.183424e+19 2.877674e-02 0 
    0.250665 8.127498e+19 3.226012e-02 0 
    0.251243 7.198961e+19 2.844319e-02 0 
    0.251822 7.237453e+19 2.846393e-02 0 
    0.252402 7.110372e+19 2.783577e-02 0 
    0.253567 7.387959e+19 2.865731e-02 0 
    0.254738 7.449986e+19 2.863284e-02 0 
    0.255325 8.118358e+19 3.105832e-02 0 
    0.256504 7.908570e+19 2.997824e-02 0 
    0.257688 8.428185e+19 3.165499e-02 0 
    0.258282 8.357161e+19 3.124402e-02 0 
    0.259474 8.292566e+19 3.071834e-02 0 
    0.260671 8.078591e+19 2.965150e-02 0 
    0.261272 7.973672e+19 2.913192e-02 0 
    0.262478 8.497591e+19 3.076142e-02 0 
    0.263690 9.161043e+19 3.285898e-02 0 
    0.264298 1.012198e+20 3.613883e-02 0 
    0.265518 1.078738e+20 3.816143e-02 0 
    0.266743 9.740201e+19 3.414116e-02 0 
    0.267358 1.020672e+20 3.561199e-02 0 
    0.268592 1.053272e+20 3.641253e-02 0 
    0.269211 9.792049e+19 3.369647e-02 0 
    0.270454 1.034019e+20 3.525642e-02 0 
    0.271702 9.686877e+19 3.272612e-02 0 
    0.272329 9.539270e+19 3.207922e-02 0 
    0.273586 1.019005e+20 3.395354e-02 0 
    0.274216 8.800503e+19 2.918894e-02 0 
    0.275482 9.314822e+19 3.061150e-02 0 
    0.276754 9.973325e+19 3.247496e-02 0 
    0.277392 1.042732e+20 3.379723e-02 0 
    0.278672 9.546506e+19 3.065874e-02 0 
    0.279314 7.712225e+19 2.465419e-02 0 
    0.280604 8.276460e+19 2.621521e-02 0 
    0.281250 1.054844e+20 3.325826e-02 0 
    0.282549 1.153096e+20 3.602255e-02 0 
    0.283200 1.122532e+20 3.490670e-02 0 
    0.284507 1.073686e+20 3.308171e-02 0 
    0.285820 9.921083e+19 3.028798e-02 0 
    0.286479 1.169231e+20 3.553130e-02 0 
    0.287802 1.229101e+20 3.700807e-02 0 
    0.288465 1.215984e+20 3.644501e-02 0 
    0.289797 1.257813e+20 3.735294e-02 0 
    0.291134 1.413519e+20 4.159224e-02 0 
    0.293152 1.368799e+20 3.972378e-02 0 
    0.295184 1.356387e+20 3.882349e-02 0 
    0.297230 1.404204e+20 3.964071e-02 0 
    0.299291 1.433789e+20 3.992035e-02 0 
    0.300672 1.462797e+20 4.035473e-02 0 
    0.302756 1.500535e+20 4.082791e-02 0 
    0.304855 1.549932e+20 4.159322e-02 0 
    0.306968 1.597289e+20 4.227597e-02 0 
    0.309096 1.619778e+20 4.228294e-02 0 
    0.311238 1.692508e+20 4.357546e-02 0 
    0.312675 1.664384e+20 4.245840e-02 0 
    0.314842 1.691769e+20 4.256495e-02 0 
    0.317025 1.767800e+20 4.386746e-02 0 
    0.319222 1.688600e+20 4.132736e-02 0 
    0.320696 1.787569e+20 4.334831e-02 0 
    0.322919 1.703597e+20 4.074518e-02 0 
    0.325157 1.943011e+20 4.583375e-02 0 
    0.326658 2.090342e+20 4.885704e-02 0 
    0.328922 2.105392e+20 4.853372e-02 0 
    0.331202 2.105997e+20 4.788156e-02 0 
    0.331966 2.059826e+20 4.661651e-02 0 
    0.332731 2.099926e+20 4.730575e-02 0 
    0.333498 2.257270e+20 5.061666e-02 0 
    0.334267 2.113305e+20 4.717062e-02 0 
    0.335037 2.230155e+20 4.955026e-02 0 
    0.335810 2.252740e+20 4.982189e-02 0 
    0.336584 1.910249e+20 4.205325e-02 0 
    0.337360 1.920748e+20 4.209008e-02 0 
    0.338137 2.156995e+20 4.705006e-02 0 
    0.338917 2.271065e+20 4.931049e-02 0 
    0.339698 2.140980e+20 4.627250e-02 0 
    0.340481 2.360426e+20 5.078098e-02 0 
    0.341266 2.194694e+20 4.699854e-02 0 
    0.342053 2.289574e+20 4.880500e-02 0 
    0.342841 2.334205e+20 4.952790e-02 0 
    0.343632 2.341639e+20 4.945716e-02 0 
    0.344424 2.008639e+20 4.222906e-02 0 
    0.345218 2.467692e+20 5.164170e-02 0 
    0.346014 2.305000e+20 4.801535e-02 0 
    0.346811 2.339154e+20 4.850311e-02 0 
    0.347611 2.287942e+20 4.722309e-02 0 
    0.348412 2.397907e+20 4.926547e-02 0 
    0.349215 2.345415e+20 4.796565e-02 0 
    0.350020 2.257377e+20 4.595311e-02 0 
    0.350827 2.483096e+20 5.031576e-02 0 
    0.351636 2.292887e+20 4.624793e-02 0 
    0.352447 2.419763e+20 4.858271e-02 0 
    0.353259 2.565425e+20 5.127070e-02 0 
    0.354073 2.651867e+20 5.275488e-02 0 
    0.354890 2.772893e+20 5.490880e-02 0 
    0.355708 2.626246e+20 5.176599e-02 0 
    0.356528 2.752493e+20 5.400517e-02 0 
    0.357350 2.307369e+20 4.506360e-02 0 
    0.358173 2.423875e+20 4.712170e-02 0 
    0.358999 2.093659e+20 4.051500e-02 0 
    0.359827 2.662555e+20 5.128703e-02 0 
    0.360656 2.556776e+20 4.902333e-02 0 
    0.361487 2.529827e+20 4.828384e-02 0 
    0.361908 2.786433e+20 5.305773e-02 1 
    0.362181 1.795383e+20 3.413518e-02 1 
    0.362455 2.645533e+20 5.022285e-02 1 
    0.362729 2.520077e+20 4.776895e-02 1 
    0.363003 3.088185e+20 5.844930e-02 1 
    0.363277 3.368397e+20 6.365667e-02 1 
    0.363550 3.037366e+20 5.731461e-02 1 
    0.363824 2.992084e+20 5.637513e-02 1 
    0.364098 3.033535e+20 5.707013e-02 1 
    0.364372 2.100277e+20 3.945328e-02 1 
    0.364646 3.034271e+20 5.691253e-02 1 
    0.364919 2.477279e+20 4.639578e-02 1 
    0.365193 2.173406e+20 4.064363e-02 1 
    0.365467 2.386106e+20 4.455433e-02 1 
    0.365741 2.809103e+20 5.237413e-02 1 
    0.366015 2.689871e+20 5.007607e-02 1 
    0.366288 2.563847e+20 4.765881e-02 1 
    0.366562 2.903708e+20 5.389574e-02 1 
    0.366836 2.668000e+20 4.944682e-02 1 
    0.367110 2.538739e+20 4.698097e-02 1 
    0.367384 2.975391e+20 5.497940e-02 1 
    0.367657 3.435116e+20 6.337998e-02 1 
    0.367931 2.815822e+20 5.187629e-02 1 
    0.368205 2.879257e+20 5.296605e-02 1 
    0.368479 3.398748e+20 6.242951e-02 1 
    0.368752 3.121952e+20 5.726033e-02 1 
    0.369026 2.802634e+20 5.132735e-02 1 
    0.369300 2.184260e+20 3.994313e-02 1 
    0.369574 2.586316e+20 4.722536e-02 1 
    0.369848 3.258163e+20 5.940496e-02 1 
    0.370121 2.766859e+20 5.037280e-02 1 
    0.370395 2.608071e+20 4.741172e-02 1 
    0.370669 2.501005e+20 4.539819e-02 1 
    0.370943 2.380373e+20 4.314466e-02 1 
    0.371217 3.121812e+20 5.649987e-02 1 
    0.371490 2.554980e+20 4.617316e-02 1 
    0.371764 2.902633e+20 5.237861e-02 1 
    0.372038 3.081397e+20 5.552257e-02 1 
    0.372312 4.469701e+20 8.041939e-02 1 
    0.372586 6.164024e+20 1.107408e-01 1 
    0.372859 7.523695e+20 1.349703e-01 1 
    0.373133 6.986376e+20 1.251472e-01 1 
    0.373407 4.534590e+20 8.110909e-02 1 
    0.373681 3.031113e+20 5.413728e-02 1 
    0.373955 3.182342e+20 5.675506e-02 1 
    0.374228 3.123886e+20 5.563127e-02 1 
    0.374502 2.283851e+20 4.061215e-02 1 
    0.374776 2.742789e+20 4.870183e-02 1 
    0.375050 3.001023e+20 5.320928e-02 1 
    0.375324 2.740597e+20 4.852090e-02 1 
    0.375597 3.046405e+20 5.385672e-02 1 
    0.375871 3.184901e+20 5.622309e-02 1 
    0.376145 3.256697e+20 5.740679e-02 1 
    0.376419 3.011341e+20 5.300457e-02 1 
    0.376693 2.821179e+20 4.958519e-02 1 
    0.376966 2.545619e+20 4.467715e-02 1 
    0.377240 3.113950e+20 5.457234e-02 1 
    0.377514 3.582053e+20 6.268482e-02 1 
    0.377788 3.675502e+20 6.422689e-02 1 
    0.378062 3.404178e+20 5.939949e-02 1 
    0.378335 3.568986e+20 6.218537e-02 1 
    0.378609 3.420289e+20 5.950828e-02 1 
    0.378883 3.420237e+20 5.942133e-02 1 
    0.379157 3.108862e+20 5.393363e-02 1 
    0.379431 2.893810e+20 5.013036e-02 1 
    0.379704 2.940208e+20 5.086091e-02 1 
    0.379978 2.921250e+20 5.046012e-02 1 
    0.380252 3.119921e+20 5.381422e-02 1 
    0.380526 3.337410e+20 5.748273e-02 1 
    0.380799 3.323902e+20 5.716802e-02 1 
    0.381073 3.747931e+20 6.436825e-02 1 
    0.381347 3.763134e+20 6.453651e-02 1 
    0.381621 3.348087e+20 5.733617e-02 1 
    0.381895 3.182692e+20 5.442559e-02 1 
    0.382168 3.355794e+20 5.730376e-02 1 
    0.382442 3.189597e+20 5.438775e-02 1 
    0.382716 3.008243e+20 5.122196e-02 1 
    0.382990 3.137771e+20 5.335103e-02 1 
    0.383264 3.034991e+20 5.152973e-02 1 
    0.383537 2.481823e+20 4.207777e-02 1 
    0.383811 2.441492e+20 4.133490e-02 1 
    0.384085 2.726083e+20 4.608726e-02 1 
