# UGC 09618 N    
# 
# An Atlas of Galaxy Spectral Energy Distributions from the Ultraviolet to the Mid-Infrared
# Brown et al. (2014)
# http://dx.doi.org/10.5072/03/529D3551F0117
# http://dx.doi.org/10.17909/t9-5bxk-dh29
# 
# The Spectral Energy Distributions of Active Galactic Nuclei
# Brown et al. (2019)
# http://dx.doi.org/10.17909/t9-3dbt-8734
# 
# Column 1: Observed wavelength (um)
# Column 2: L_nu (W/Hz)
# Column 3: f_lam (erg/s/cm2/A)
# Column 4: Source (0 = model, 1 = Optical Spectrun, 2 = Akari, 3 = Spitzer IRS)
# 
  1.0200e-02 2.447026e+06 5.865901e-13 0 
  1.0390e-02 3.957225e+06 9.142313e-13 0 
  1.0607e-02 6.502898e+06 1.441512e-12 0 
  1.0805e-02 1.076094e+07 2.298779e-12 0 
  1.1005e-02 1.979414e+07 4.076176e-12 0 
  1.1392e-02 4.624114e+07 8.886384e-12 0 
  1.1792e-02 9.919978e+07 1.779231e-11 0 
  1.2095e-02 5.141940e+08 8.766206e-11 0 
  1.2491e-02 9.807308e+08 1.567660e-10 0 
  1.2694e-02 1.304041e+09 2.018323e-10 0 
  1.2812e-02 1.531460e+09 2.326850e-10 0 
  1.3110e-02 2.278999e+09 3.307007e-10 0 
  1.3201e-02 2.962248e+09 4.239399e-10 0 
  1.3385e-02 3.787739e+09 5.272780e-10 0 
  1.3696e-02 6.323352e+09 8.407294e-10 0 
  1.4015e-02 9.026855e+09 1.146164e-09 0 
  1.4309e-02 3.297002e+10 4.016031e-09 0 
  1.4710e-02 1.192757e+11 1.374748e-08 0 
  1.5087e-02 1.738202e+11 1.904544e-08 0 
  1.5510e-02 2.549568e+11 2.643258e-08 0 
  1.5908e-02 3.698103e+11 3.644553e-08 0 
  1.6203e-02 4.814485e+11 4.573571e-08 0 
  1.6619e-02 6.886348e+11 6.218357e-08 0 
  1.7006e-02 9.494380e+11 8.187640e-08 0 
  1.7282e-02 1.205347e+12 1.006516e-07 0 
  1.7685e-02 1.631375e+12 1.300889e-07 0 
  1.8014e-02 2.037588e+12 1.566003e-07 0 
  1.8180e-02 2.348955e+12 1.772488e-07 0 
  1.8604e-02 3.113943e+12 2.243854e-07 0 
  1.9081e-02 4.351665e+12 2.980915e-07 0 
  1.9391e-02 5.336414e+12 3.539530e-07 0 
  1.9797e-02 6.849405e+12 4.358635e-07 0 
  2.0212e-02 8.792593e+12 5.367782e-07 0 
  2.0493e-02 1.048956e+13 6.229348e-07 0 
  2.1019e-02 1.339710e+13 7.562807e-07 0 
  2.1608e-02 1.946325e+13 1.039639e-06 0 
  2.2009e-02 2.419145e+13 1.245540e-06 0 
  2.2315e-02 2.793961e+13 1.399339e-06 0 
  2.2678e-02 3.441349e+13 1.668844e-06 0 
  2.2994e-02 5.974547e+13 2.818204e-06 0 
  2.3421e-02 1.160672e+14 5.277097e-06 0 
  2.4022e-02 1.777805e+14 7.683554e-06 0 
  2.4581e-02 2.075544e+14 8.567013e-06 0 
  2.5212e-02 2.711878e+14 1.064025e-05 0 
  2.5681e-02 2.701501e+14 1.021593e-05 0 
  2.5978e-02 3.413375e+14 1.261447e-05 0 
  2.6400e-02 4.060885e+14 1.453146e-05 0 
  2.6891e-02 4.719884e+14 1.627848e-05 0 
  2.7391e-02 5.448034e+14 1.811008e-05 0 
  2.7900e-02 6.288195e+14 2.014717e-05 0 
  2.8419e-02 7.224371e+14 2.230894e-05 0 
  2.9014e-02 8.072232e+14 2.391524e-05 0 
  2.9621e-02 9.596984e+14 2.727921e-05 0 
  3.0103e-02 1.075114e+15 2.958907e-05 0 
  3.0804e-02 1.286717e+15 3.381934e-05 0 
  3.1813e-02 1.648432e+15 4.062170e-05 0 
  3.2780e-02 2.040339e+15 4.735665e-05 0 
  3.3776e-02 2.485002e+15 5.432586e-05 0 
  3.4802e-02 2.991400e+15 6.159743e-05 0 
  3.5695e-02 3.520654e+15 6.891361e-05 0 
  3.6610e-02 4.142912e+15 7.709083e-05 0 
  3.7463e-02 4.776476e+15 8.487873e-05 0 
  3.8513e-02 5.415339e+15 9.105574e-05 0 
  3.9501e-02 6.474503e+15 1.034872e-04 0 
  4.0514e-02 7.546615e+15 1.146670e-04 0 
  4.1362e-02 8.463319e+15 1.233770e-04 0 
  4.2228e-02 9.317724e+15 1.303183e-04 0 
  4.3014e-02 1.023704e+16 1.379912e-04 0 
  4.4117e-02 1.176494e+16 1.507558e-04 0 
  4.5145e-02 1.309495e+16 1.602436e-04 0 
  4.5984e-02 1.428544e+16 1.684910e-04 0 
  4.6947e-02 1.583045e+16 1.791324e-04 0 
  4.8040e-02 1.769699e+16 1.912449e-04 0 
  4.9046e-02 1.911762e+16 1.982089e-04 0 
  4.9958e-02 2.128662e+16 2.127125e-04 0 
    0.050653 2.213530e+16 2.151649e-04 0 
    0.051240 2.450295e+16 2.327536e-04 0 
    0.051952 2.613221e+16 2.414727e-04 0 
    0.053040 2.822243e+16 2.501980e-04 0 
    0.054026 2.972605e+16 2.539966e-04 0 
    0.055031 3.233236e+16 2.662680e-04 0 
    0.056054 3.598647e+16 2.856423e-04 0 
    0.056965 3.969762e+16 3.051018e-04 0 
    0.058024 4.199357e+16 3.110741e-04 0 
    0.058967 4.600243e+16 3.299584e-04 0 
    0.060063 4.821131e+16 3.332969e-04 0 
    0.061039 4.738885e+16 3.172180e-04 0 
    0.062031 5.769929e+16 3.739808e-04 0 
    0.063038 6.146873e+16 3.857854e-04 0 
    0.064063 6.608491e+16 4.015912e-04 0 
    0.064954 7.091990e+16 4.192304e-04 0 
    0.065858 7.453796e+16 4.286046e-04 0 
    0.066467 7.951901e+16 4.489059e-04 0 
    0.067547 8.429385e+16 4.607658e-04 0 
    0.068487 8.617597e+16 4.582119e-04 0 
    0.069439 9.952098e+16 5.147593e-04 0 
    0.070568 1.007353e+17 5.045016e-04 0 
    0.071549 1.149907e+17 5.602115e-04 0 
    0.072545 1.224920e+17 5.804826e-04 0 
    0.073554 1.301863e+17 6.001355e-04 0 
    0.074577 1.428775e+17 6.406937e-04 0 
    0.075441 1.533289e+17 6.719017e-04 0 
    0.076490 1.566707e+17 6.678439e-04 0 
    0.077554 1.796042e+17 7.447396e-04 0 
    0.078452 1.913802e+17 7.755064e-04 0 
    0.079544 2.071005e+17 8.163245e-04 0 
    0.080465 2.216771e+17 8.538924e-04 0 
    0.081584 2.371137e+17 8.884706e-04 0 
    0.082529 2.614893e+17 9.574965e-04 0 
    0.083484 2.322441e+17 8.310642e-04 0 
    0.084451 2.906658e+17 1.016438e-03 0 
    0.085429 3.060783e+17 1.045968e-03 0 
    0.086418 3.359296e+17 1.121854e-03 0 
    0.087419 3.678203e+17 1.200385e-03 0 
    0.088431 4.083175e+17 1.302223e-03 0 
    0.089455 4.419185e+17 1.377303e-03 0 
    0.090491 4.515105e+17 1.375161e-03 0 
    0.091539 7.277144e+17 2.165933e-03 0 
    0.092599 5.084228e+18 1.478798e-02 0 
    0.093456 1.150310e+19 3.284710e-02 0 
    0.094538 2.344535e+19 6.542449e-02 0 
    0.095413 3.644288e+19 9.983759e-02 0 
    0.096517 3.852936e+19 1.031527e-01 0 
    0.097410 5.499364e+18 1.445446e-02 0 
    0.098538 2.860448e+19 7.347220e-02 0 
    0.099450 3.621781e+19 9.132907e-02 0 
    0.100602 6.426899e+19 1.583743e-01 0 
    0.101533 6.705674e+19 1.622275e-01 0 
    0.102472 3.068035e+19 7.286960e-02 0 
    0.103420 4.408259e+19 1.027909e-01 0 
    0.104618 1.026238e+20 2.338470e-01 0 
    0.105586 1.046184e+20 2.340411e-01 0 
    0.106563 7.672815e+19 1.685149e-01 0 
    0.107549 1.007556e+20 2.172465e-01 0 
    0.108544 7.422928e+19 1.571304e-01 0 
    0.109548 1.155713e+20 2.401804e-01 0 
    0.110562 1.143170e+20 2.332360e-01 0 
    0.111585 1.089790e+20 2.182869e-01 0 
    0.112617 9.807645e+19 1.928649e-01 0 
    0.113398 1.426310e+20 2.766301e-01 0 
    0.114447 1.301312e+20 2.477815e-01 0 
    0.115506 1.481003e+20 2.768491e-01 0 
    0.116575 1.569213e+20 2.879834e-01 0 
    0.117383 1.007521e+20 1.823644e-01 0 
    0.118469 1.604443e+20 2.851093e-01 0 
    0.119565 9.736619e+19 1.698621e-01 0 
    0.120394 6.279605e+19 1.080486e-01 0 
    0.121508 5.482257e+19 9.260749e-02 0 
    0.122632 1.204907e+20 1.998216e-01 0 
    0.123482 2.062763e+20 3.373949e-01 0 
    0.124625 2.346300e+20 3.767643e-01 0 
    0.125489 2.222489e+20 3.519855e-01 0 
    0.126359 1.863147e+20 2.910256e-01 0 
    0.127528 2.704897e+20 4.147975e-01 0 
    0.128412 2.954967e+20 4.469283e-01 0 
    0.129600 2.129962e+20 3.162702e-01 0 
    0.130499 2.141605e+20 3.136328e-01 0 
    0.131403 3.027439e+20 4.372816e-01 0 
    0.132619 2.936657e+20 4.164264e-01 0 
    0.133538 2.483979e+20 3.474038e-01 0 
    0.134464 3.337565e+20 4.603775e-01 0 
    0.135396 3.278718e+20 4.460554e-01 0 
    0.136649 2.860101e+20 3.820014e-01 0 
    0.137596 3.159373e+20 4.161844e-01 0 
    0.138550 3.256961e+20 4.231515e-01 0 
    0.139510 2.857744e+20 3.661922e-01 0 
    0.140477 3.035118e+20 3.835850e-01 0 
    0.141451 3.114107e+20 3.881664e-01 0 
    0.142431 3.360936e+20 4.131879e-01 0 
    0.143419 3.369734e+20 4.085816e-01 0 
    0.144081 3.675487e+20 4.415683e-01 0 
    0.144746 3.819842e+20 4.547040e-01 0 
    0.145414 3.713450e+20 4.379873e-01 0 
    0.146422 3.394822e+20 3.949125e-01 0 
    0.147437 3.474320e+20 3.986146e-01 0 
    0.148459 3.671888e+20 4.155018e-01 0 
    0.149488 3.844964e+20 4.291174e-01 0 
    0.150524 3.629567e+20 3.995211e-01 0 
    0.151219 3.144208e+20 3.429217e-01 0 
    0.151567 3.498029e+20 3.797611e-01 0 
    0.152618 3.378765e+20 3.617786e-01 0 
    0.153676 2.861937e+20 3.022348e-01 0 
    0.154385 3.382733e+20 3.539599e-01 0 
    0.155455 3.222032e+20 3.325193e-01 0 
    0.156533 3.303482e+20 3.362456e-01 0 
    0.157618 3.620790e+20 3.634864e-01 0 
    0.158345 3.947731e+20 3.926768e-01 0 
    0.159443 4.103450e+20 4.025637e-01 0 
    0.160548 4.110705e+20 3.977434e-01 0 
    0.161661 4.232975e+20 4.039537e-01 0 
    0.162407 3.972973e+20 3.756666e-01 0 
    0.163533 4.393488e+20 4.097275e-01 0 
    0.164667 4.544683e+20 4.180102e-01 0 
    0.165427 4.168097e+20 3.798582e-01 0 
    0.166573 4.726709e+20 4.248603e-01 0 
    0.167342 4.073409e+20 3.627810e-01 0 
    0.167728 4.821291e+20 4.274139e-01 0 
    0.168502 5.230409e+20 4.594328e-01 0 
    0.169670 4.910271e+20 4.253945e-01 0 
    0.170453 4.714756e+20 4.047122e-01 0 
    0.171635 4.435852e+20 3.755448e-01 0 
    0.172427 4.480095e+20 3.758142e-01 0 
    0.173622 4.951726e+20 4.096788e-01 0 
    0.174424 4.887015e+20 4.006154e-01 0 
    0.175633 5.413356e+20 4.376741e-01 0 
    0.176443 4.883463e+20 3.912150e-01 0 
    0.177666 5.105875e+20 4.034205e-01 0 
    0.178487 5.300341e+20 4.149417e-01 0 
    0.179310 5.868233e+20 4.551922e-01 0 
    0.180553 5.912939e+20 4.523664e-01 0 
    0.181387 5.370118e+20 4.070690e-01 0 
    0.182644 5.613324e+20 4.196679e-01 0 
    0.183487 5.399545e+20 3.999843e-01 0 
    0.184334 4.914389e+20 3.607075e-01 0 
    0.185612 4.950120e+20 3.583439e-01 0 
    0.186469 5.232696e+20 3.753260e-01 0 
    0.187329 5.926254e+20 4.211790e-01 0 
    0.188628 5.405622e+20 3.789045e-01 0 
    0.189498 5.234636e+20 3.635579e-01 0 
    0.190373 5.673986e+20 3.904577e-01 0 
    0.191693 5.456043e+20 3.703068e-01 0 
    0.192577 5.443091e+20 3.660439e-01 0 
    0.193466 5.699322e+20 3.797610e-01 0 
    0.194359 6.035835e+20 3.984965e-01 0 
    0.195707 5.670453e+20 3.692339e-01 0 
    0.196610 6.449487e+20 4.161122e-01 0 
    0.197517 6.720298e+20 4.296116e-01 0 
    0.198429 6.342417e+20 4.017362e-01 0 
    0.199345 6.195757e+20 3.888482e-01 0 
    0.200727 6.513366e+20 4.031720e-01 0 
    0.201653 6.245921e+20 3.830748e-01 0 
    0.202584 6.720264e+20 4.083875e-01 0 
    0.203519 6.326045e+20 3.809069e-01 0 
    0.204459 6.758649e+20 4.032217e-01 0 
    0.205402 6.465050e+20 3.821721e-01 0 
    0.206350 6.505317e+20 3.810272e-01 0 
    0.207303 7.144045e+20 4.146001e-01 0 
    0.207781 6.819795e+20 3.939636e-01 0 
    0.208740 7.234465e+20 4.140870e-01 0 
    0.209703 6.823697e+20 3.869963e-01 0 
    0.210671 6.896402e+20 3.875337e-01 0 
    0.211644 7.050344e+20 3.925499e-01 0 
    0.212621 7.223792e+20 3.985193e-01 0 
    0.213602 6.626542e+20 3.622203e-01 0 
    0.214588 6.978895e+20 3.779830e-01 0 
    0.215579 7.366731e+20 3.953287e-01 0 
    0.216574 7.140687e+20 3.796853e-01 0 
    0.217573 7.115172e+20 3.748624e-01 0 
    0.218578 7.056447e+20 3.683576e-01 0 
    0.219586 7.498518e+20 3.878489e-01 0 
    0.220600 7.300268e+20 3.741315e-01 0 
    0.221618 6.881326e+20 3.494287e-01 0 
    0.222641 6.683967e+20 3.362950e-01 0 
    0.223669 7.356270e+20 3.667267e-01 0 
    0.224701 7.066227e+20 3.490391e-01 0 
    0.225738 6.720414e+20 3.289146e-01 0 
    0.226259 6.990989e+20 3.405833e-01 0 
    0.227303 7.357975e+20 3.551767e-01 0 
    0.228352 7.762294e+20 3.712589e-01 0 
    0.229406 7.348758e+20 3.482578e-01 0 
    0.230465 7.455178e+20 3.500617e-01 0 
    0.231529 7.058111e+20 3.283781e-01 0 
    0.232598 5.222929e+20 2.407679e-01 0 
    0.233671 6.548675e+20 2.991164e-01 0 
    0.234750 6.388013e+20 2.891020e-01 0 
    0.235291 7.185996e+20 3.237225e-01 0 
    0.236377 6.482335e+20 2.893460e-01 0 
    0.237468 6.838701e+20 3.024544e-01 0 
    0.238564 6.312634e+20 2.766287e-01 0 
    0.239666 6.973118e+20 3.027685e-01 0 
    0.240772 6.709201e+20 2.886392e-01 0 
    0.241327 7.027496e+20 3.009437e-01 0 
    0.242441 7.763159e+20 3.293994e-01 0 
    0.243560 7.538293e+20 3.169257e-01 0 
    0.244684 8.213384e+20 3.421428e-01 0 
    0.245248 8.177842e+20 3.390972e-01 0 
    0.246380 8.163364e+20 3.353935e-01 0 
    0.247517 7.890601e+20 3.212155e-01 0 
    0.248660 8.153883e+20 3.288887e-01 0 
    0.249233 7.770958e+20 3.120038e-01 0 
    0.250383 9.009541e+20 3.584177e-01 0 
    0.251539 7.761532e+20 3.059379e-01 0 
    0.252700 7.712317e+20 3.012110e-01 0 
    0.253283 8.023028e+20 3.119052e-01 0 
    0.254452 7.953717e+20 3.063761e-01 0 
    0.255626 9.053142e+20 3.455300e-01 0 
    0.256216 8.648576e+20 3.285705e-01 0 
    0.257398 9.487770e+20 3.571497e-01 0 
    0.258586 9.384880e+20 3.500380e-01 0 
    0.259780 9.304208e+20 3.438464e-01 0 
    0.260379 8.949171e+20 3.292057e-01 0 
    0.261581 8.892917e+20 3.241367e-01 0 
    0.262788 9.644422e+20 3.483065e-01 0 
    0.263394 1.048120e+21 3.767868e-01 0 
    0.264610 1.195785e+21 4.259287e-01 0 
    0.265220 1.284584e+21 4.554559e-01 0 
    0.266444 1.096532e+21 3.852173e-01 0 
    0.267674 1.189268e+21 4.139653e-01 0 
    0.268291 1.208893e+21 4.188632e-01 0 
    0.269529 1.139317e+21 3.911378e-01 0 
    0.270773 1.218689e+21 4.145518e-01 0 
    0.271397 1.122065e+21 3.799306e-01 0 
    0.272650 1.114946e+21 3.740583e-01 0 
    0.273279 1.206110e+21 4.027827e-01 0 
    0.274540 9.946100e+20 3.291077e-01 0 
    0.275807 1.051671e+21 3.447987e-01 0 
    0.276443 1.127222e+21 3.678703e-01 0 
    0.277719 1.208553e+21 3.907968e-01 0 
    0.278359 1.107631e+21 3.565178e-01 0 
    0.279644 8.602773e+20 2.743620e-01 0 
    0.280289 9.436022e+20 2.995528e-01 0 
    0.281582 1.233198e+21 3.878996e-01 0 
    0.282231 1.374521e+21 4.303665e-01 0 
    0.283534 1.337835e+21 4.150389e-01 0 
    0.284188 1.280975e+21 3.955721e-01 0 
    0.285500 1.193374e+21 3.651410e-01 0 
    0.286817 1.458927e+21 4.423033e-01 0 
    0.287479 1.531707e+21 4.622320e-01 0 
    0.288805 1.501140e+21 4.488571e-01 0 
    0.289471 1.540083e+21 4.583851e-01 0 
    0.290807 1.789787e+21 5.278226e-01 0 
    0.292823 1.714745e+21 4.987531e-01 0 
    0.294853 1.708363e+21 4.900782e-01 0 
    0.296897 1.807049e+21 5.112752e-01 0 
    0.298955 1.850792e+21 5.164668e-01 0 
    0.301027 1.930803e+21 5.314025e-01 0 
    0.303114 1.982078e+21 5.380285e-01 0 
    0.305215 2.030038e+21 5.434867e-01 0 
    0.307330 2.108092e+21 5.566422e-01 0 
    0.308749 2.168488e+21 5.673386e-01 0 
    0.310889 2.251903e+21 5.810794e-01 0 
    0.313044 2.248676e+21 5.722853e-01 0 
    0.315214 2.292576e+21 5.754522e-01 0 
    0.316669 2.369138e+21 5.892177e-01 0 
    0.318864 2.228375e+21 5.466053e-01 0 
    0.321074 2.417475e+21 5.848549e-01 0 
    0.323300 2.253021e+21 5.375889e-01 0 
    0.324792 2.600347e+21 6.147764e-01 0 
    0.327044 2.834103e+21 6.608451e-01 0 
    0.329310 2.843224e+21 6.538795e-01 0 
    0.330830 2.864610e+21 6.527579e-01 0 
    0.332358 2.879578e+21 6.501491e-01 0 
    0.333124 2.961167e+21 6.654991e-01 0 
    0.333892 2.739051e+21 6.127518e-01 0 
    0.334661 3.060003e+21 6.814094e-01 0 
    0.335433 2.943447e+21 6.524408e-01 0 
    0.336206 2.703938e+21 5.965986e-01 0 
    0.336981 2.965683e+21 6.513438e-01 0 
    0.337758 2.899019e+21 6.337767e-01 0 
    0.338536 2.988088e+21 6.502496e-01 0 
    0.339317 3.202768e+21 6.937624e-01 0 
    0.340099 3.488617e+21 7.522099e-01 0 
    0.340883 3.131713e+21 6.721524e-01 0 
    0.341669 3.089713e+21 6.600905e-01 0 
    0.342457 3.412272e+21 7.256513e-01 0 
    0.343246 3.565907e+21 7.548409e-01 0 
    0.344037 3.375279e+21 7.112066e-01 0 
    0.344830 3.030297e+21 6.355820e-01 0 
    0.345625 3.204282e+21 6.689858e-01 0 
    0.346422 2.999010e+21 6.232517e-01 0 
    0.347221 3.453231e+21 7.143485e-01 0 
    0.348021 3.107929e+21 6.399657e-01 0 
    0.348823 3.339695e+21 6.845309e-01 0 
    0.349627 3.288234e+21 6.708867e-01 0 
    0.350433 3.590970e+21 7.292865e-01 0 
    0.351241 3.455085e+21 6.984653e-01 0 
    0.352051 3.721299e+21 7.488242e-01 0 
    0.352863 3.154626e+21 6.318763e-01 0 
    0.353676 3.657612e+21 7.292609e-01 0 
    0.354491 3.876544e+21 7.693621e-01 0 
    0.355308 3.959931e+21 7.823013e-01 0 
    0.356059 4.072913e+21 8.012307e-01 1 
    0.356325 4.596845e+21 9.029501e-01 1 
    0.356591 4.190184e+21 8.218430e-01 1 
    0.356857 4.098283e+21 8.026199e-01 1 
    0.357123 5.493708e+21 1.074302e+00 1 
    0.357389 5.035357e+21 9.832056e-01 1 
    0.357655 4.309827e+21 8.402870e-01 1 
    0.357921 3.974836e+21 7.738224e-01 1 
    0.358187 2.937463e+21 5.710172e-01 1 
    0.358453 3.830640e+21 7.435383e-01 1 
    0.358719 2.399245e+21 4.650100e-01 1 
    0.358985 2.906883e+21 5.625633e-01 1 
    0.359251 3.720376e+21 7.189312e-01 1 
    0.359517 3.657199e+21 7.056773e-01 1 
    0.359783 4.769212e+21 9.188864e-01 1 
    0.360049 4.484867e+21 8.628251e-01 1 
    0.360315 4.374181e+21 8.402886e-01 1 
    0.360581 2.939015e+21 5.637578e-01 1 
    0.360847 3.972935e+21 7.609598e-01 1 
    0.361113 3.937648e+21 7.530905e-01 1 
    0.361380 3.463630e+21 6.614540e-01 1 
    0.361646 4.602147e+21 8.775858e-01 1 
    0.361912 3.801400e+21 7.238257e-01 1 
    0.362178 2.679079e+21 5.093752e-01 1 
    0.362444 3.636643e+21 6.904231e-01 1 
    0.362710 4.040780e+21 7.660243e-01 1 
    0.362976 3.881706e+21 7.347900e-01 1 
    0.363242 3.464230e+21 6.548035e-01 1 
    0.363508 3.525458e+21 6.654019e-01 1 
    0.363774 3.690404e+21 6.955159e-01 1 
    0.364040 4.753005e+21 8.944716e-01 1 
    0.364306 3.424009e+21 6.434261e-01 1 
    0.364572 4.290646e+21 8.051051e-01 1 
    0.364838 3.210623e+21 6.015692e-01 1 
    0.365104 3.695044e+21 6.913259e-01 1 
    0.365370 4.090101e+21 7.641255e-01 1 
    0.365636 4.885676e+21 9.114297e-01 1 
    0.365902 3.612468e+21 6.729315e-01 1 
    0.366168 3.753551e+21 6.981971e-01 1 
    0.366434 4.504591e+21 8.366817e-01 1 
    0.366700 3.670674e+21 6.808015e-01 1 
    0.366966 3.848864e+21 7.128159e-01 1 
    0.367232 4.198958e+21 7.765276e-01 1 
    0.367498 3.857658e+21 7.123776e-01 1 
    0.367764 4.287371e+21 7.905860e-01 1 
    0.368030 4.371247e+21 8.048878e-01 1 
    0.368296 4.726730e+21 8.690870e-01 1 
    0.368562 5.213804e+21 9.572603e-01 1 
    0.368828 5.583465e+21 1.023652e+00 1 
    0.369095 5.602701e+21 1.025694e+00 1 
    0.369361 4.704505e+21 8.600195e-01 1 
    0.369627 3.833199e+21 6.997299e-01 1 
    0.369893 4.332860e+21 7.898033e-01 1 
    0.370159 3.439205e+21 6.260051e-01 1 
    0.370425 3.255683e+21 5.917496e-01 1 
    0.370691 4.202977e+21 7.628329e-01 1 
    0.370957 3.887724e+21 7.046034e-01 1 
    0.371223 4.861377e+21 8.798041e-01 1 
    0.371489 4.511893e+21 8.153862e-01 1 
    0.371755 6.843219e+21 1.234932e+00 1 
    0.372021 7.072315e+21 1.274451e+00 1 
    0.372287 1.171298e+22 2.107697e+00 1 
    0.372553 1.479826e+22 2.659076e+00 1 
    0.372819 1.523218e+22 2.733143e+00 1 
    0.373085 1.345658e+22 2.411102e+00 1 
    0.373351 1.021638e+22 1.827927e+00 1 
    0.373617 7.442957e+21 1.329807e+00 1 
    0.373883 5.860729e+21 1.045627e+00 1 
    0.374149 4.609431e+21 8.212107e-01 1 
    0.374415 4.932750e+21 8.775647e-01 1 
    0.374681 4.487053e+21 7.971394e-01 1 
    0.374947 5.179430e+21 9.188374e-01 1 
    0.375213 5.439432e+21 9.635944e-01 1 
    0.375479 4.799688e+21 8.490595e-01 1 
    0.375745 5.135852e+21 9.072407e-01 1 
    0.376011 5.783998e+21 1.020290e+00 1 
    0.376277 6.209480e+21 1.093796e+00 1 
    0.376543 5.649542e+21 9.937577e-01 1 
    0.376810 6.349253e+21 1.115255e+00 1 
    0.377076 6.227515e+21 1.092329e+00 1 
    0.377342 6.031136e+21 1.056392e+00 1 
    0.377608 5.519799e+21 9.654668e-01 1 
    0.377874 5.062518e+21 8.842377e-01 1 
    0.378140 5.948977e+21 1.037609e+00 1 
    0.378406 7.325130e+21 1.275839e+00 1 
    0.378672 6.868827e+21 1.194683e+00 1 
    0.378938 5.871012e+21 1.019702e+00 1 
    0.379204 4.938504e+21 8.565369e-01 1 
    0.379470 5.589850e+21 9.681480e-01 1 
    0.379736 5.522749e+21 9.551865e-01 1 
    0.380002 5.172465e+21 8.933512e-01 1 
    0.380268 5.951008e+21 1.026378e+00 1 
