# UGCA 166       
# 
# An Atlas of Galaxy Spectral Energy Distributions from the Ultraviolet to the Mid-Infrared
# Brown et al. (2014)
# http://dx.doi.org/10.5072/03/529D3551F0117
# http://dx.doi.org/10.17909/t9-5bxk-dh29
# 
# The Spectral Energy Distributions of Active Galactic Nuclei
# Brown et al. (2019)
# http://dx.doi.org/10.17909/t9-3dbt-8734
# 
# Column 1: Observed wavelength (um)
# Column 2: L_nu (W/Hz)
# Column 3: f_lam (erg/s/cm2/A)
# Column 4: Source (0 = model, 1 = Optical Spectrun, 2 = Akari, 3 = Spitzer IRS)
# 
  1.0207e-02 6.258982e+14 1.498318e-04 0 
  1.0397e-02 7.087446e+14 1.635197e-04 0 
  1.0590e-02 8.081792e+14 1.797265e-04 0 
  1.0812e-02 9.172383e+14 1.956891e-04 0 
  1.0988e-02 1.055530e+15 2.180367e-04 0 
  1.1400e-02 1.328937e+15 2.550300e-04 0 
  1.1801e-02 1.630998e+15 2.920869e-04 0 
  1.2104e-02 2.053533e+15 3.495749e-04 0 
  1.2500e-02 2.485838e+15 3.967796e-04 0 
  1.2703e-02 2.732182e+15 4.222732e-04 0 
  1.2791e-02 2.854149e+15 4.350750e-04 0 
  1.3089e-02 3.232271e+15 4.705343e-04 0 
  1.3210e-02 3.407844e+15 4.870466e-04 0 
  1.3394e-02 3.651874e+15 5.076818e-04 0 
  1.3706e-02 4.192546e+15 5.566124e-04 0 
  1.3993e-02 4.671820e+15 5.950602e-04 0 
  1.4286e-02 5.540034e+15 6.769983e-04 0 
  1.4686e-02 6.721861e+15 7.772825e-04 0 
  1.5098e-02 7.320223e+15 8.009067e-04 0 
  1.5485e-02 8.719782e+15 9.069422e-04 0 
  1.5882e-02 9.851436e+15 9.740597e-04 0 
  1.6215e-02 1.082630e+16 1.026934e-03 0 
  1.6593e-02 1.211976e+16 1.097844e-03 0 
  1.7018e-02 1.353649e+16 1.165696e-03 0 
  1.7295e-02 1.397961e+16 1.165602e-03 0 
  1.7698e-02 1.619971e+16 1.289898e-03 0 
  1.7985e-02 1.739766e+16 1.341425e-03 0 
  1.8193e-02 1.830228e+16 1.379091e-03 0 
  1.8617e-02 2.011457e+16 1.447397e-03 0 
  1.9095e-02 2.241400e+16 1.533121e-03 0 
  1.9405e-02 2.401717e+16 1.590710e-03 0 
  1.9811e-02 2.609193e+16 1.658020e-03 0 
  2.0180e-02 2.821582e+16 1.728012e-03 0 
  2.0508e-02 3.002657e+16 1.780555e-03 0 
  2.0985e-02 3.239739e+16 1.834799e-03 0 
  2.1623e-02 3.694018e+16 1.970441e-03 0 
  2.2025e-02 3.967328e+16 2.039683e-03 0 
  2.2280e-02 4.144858e+16 2.082456e-03 0 
  2.2694e-02 4.461738e+16 2.160620e-03 0 
  2.3010e-02 6.102409e+16 2.874514e-03 0 
  2.3384e-02 1.277861e+17 5.828309e-03 0 
  2.3984e-02 3.187989e+17 1.382197e-02 0 
  2.4599e-02 3.415740e+17 1.407818e-02 0 
  2.5172e-02 4.144855e+17 1.631437e-02 0 
  2.5699e-02 2.412623e+17 9.110738e-03 0 
  2.5996e-02 4.682917e+17 1.728223e-02 0 
  2.6419e-02 6.508795e+17 2.325757e-02 0 
  2.6910e-02 7.120088e+17 2.452191e-02 0 
  2.7410e-02 7.576908e+17 2.515188e-02 0 
  2.7920e-02 7.473193e+17 2.390957e-02 0 
  2.8374e-02 8.600620e+17 2.664312e-02 0 
  2.8968e-02 8.923043e+17 2.651993e-02 0 
  2.9574e-02 8.719895e+17 2.486495e-02 0 
  3.0124e-02 6.060553e+17 1.665649e-02 0 
  3.0826e-02 8.308119e+17 2.180544e-02 0 
  3.1836e-02 1.234473e+18 3.037674e-02 0 
  3.2803e-02 1.369326e+18 3.173775e-02 0 
  3.3800e-02 1.457147e+18 3.181021e-02 0 
  3.4827e-02 1.539945e+18 3.166427e-02 0 
  3.5720e-02 1.792685e+18 3.504108e-02 0 
  3.6636e-02 2.180238e+18 4.051206e-02 0 
  3.7490e-02 2.272574e+18 4.032585e-02 0 
  3.8540e-02 2.215676e+18 3.720312e-02 0 
  3.9529e-02 2.657656e+18 4.241931e-02 0 
  4.0543e-02 3.002499e+18 4.555621e-02 0 
  4.1392e-02 3.122490e+18 4.545322e-02 0 
  4.2161e-02 3.129754e+18 4.391217e-02 0 
  4.3044e-02 3.165885e+18 4.261537e-02 0 
  4.4148e-02 3.535886e+18 4.524522e-02 0 
  4.5073e-02 3.702690e+18 4.545491e-02 0 
  4.6016e-02 3.660194e+18 4.311047e-02 0 
  4.6980e-02 3.806428e+18 4.301185e-02 0 
  4.7964e-02 4.116154e+18 4.462284e-02 0 
  4.8968e-02 3.994996e+18 4.155163e-02 0 
  4.9993e-02 4.471932e+18 4.462449e-02 0 
    0.050572 4.523862e+18 4.411492e-02 0 
    0.051158 6.287799e+18 5.991947e-02 0 
    0.051989 6.244547e+18 5.762016e-02 0 
    0.052956 6.158781e+18 5.477228e-02 0 
    0.053940 5.787561e+18 4.961010e-02 0 
    0.054943 5.908983e+18 4.881851e-02 0 
    0.055965 7.022741e+18 5.592037e-02 0 
    0.057005 7.507768e+18 5.762108e-02 0 
    0.058065 7.524880e+18 5.566307e-02 0 
    0.059008 7.843161e+18 5.617793e-02 0 
    0.059967 7.404598e+18 5.135389e-02 0 
    0.060942 7.071391e+18 4.748625e-02 0 
    0.061932 8.679498e+18 5.643660e-02 0 
    0.062938 8.620090e+18 5.427282e-02 0 
    0.063961 9.172847e+18 5.592038e-02 0 
    0.065000 9.194122e+18 5.427252e-02 0 
    0.065753 8.963770e+18 5.170779e-02 0 
    0.066514 9.627472e+18 5.427284e-02 0 
    0.067439 1.005759e+19 5.515286e-02 0 
    0.068535 9.495407e+18 5.041795e-02 0 
    0.069489 1.041121e+19 5.377315e-02 0 
    0.070455 9.538859e+18 4.792579e-02 0 
    0.071600 1.102815e+19 5.365042e-02 0 
    0.072596 1.123337e+19 5.315955e-02 0 
    0.073437 1.146867e+19 5.303710e-02 0 
    0.074458 1.144195e+19 5.147233e-02 0 
    0.075494 1.157458e+19 5.064969e-02 0 
    0.076544 1.087668e+19 4.629887e-02 0 
    0.077431 1.192630e+19 4.961037e-02 0 
    0.078508 1.176239e+19 4.759530e-02 0 
    0.079417 1.223234e+19 4.837032e-02 0 
    0.080522 1.254593e+19 4.825809e-02 0 
    0.081454 1.274943e+19 4.792505e-02 0 
    0.082587 1.307653e+19 4.781517e-02 0 
    0.083544 1.160084e+19 4.145296e-02 0 
    0.084511 1.328951e+19 4.640651e-02 0 
    0.085490 1.332023e+19 4.545456e-02 0 
    0.086480 1.372425e+19 4.576714e-02 0 
    0.087481 1.391562e+19 4.534941e-02 0 
    0.088494 1.410935e+19 4.493407e-02 0 
    0.089519 1.430509e+19 4.452015e-02 0 
    0.090555 1.430530e+19 4.350794e-02 0 
    0.091604 1.437099e+19 4.271244e-02 0 
    0.092451 2.981970e+19 8.701146e-02 0 
    0.093522 4.420751e+19 1.260564e-01 0 
    0.094605 5.774378e+19 1.609065e-01 0 
    0.095480 6.360611e+19 1.740085e-01 0 
    0.096586 7.087709e+19 1.894846e-01 0 
    0.097480 3.994901e+19 1.048507e-01 0 
    0.098608 6.463998e+19 1.657957e-01 0 
    0.099521 6.060371e+19 1.526041e-01 0 
    0.100442 6.737470e+19 1.665569e-01 0 
    0.101605 6.910307e+19 1.669412e-01 0 
    0.102545 5.075821e+19 1.203854e-01 0 
    0.103494 6.706647e+19 1.561606e-01 0 
    0.104451 7.735775e+19 1.768378e-01 0 
    0.105418 7.594609e+19 1.704403e-01 0 
    0.106393 7.022676e+19 1.547294e-01 0 
    0.107378 7.353735e+19 1.590647e-01 0 
    0.108621 6.706542e+19 1.417645e-01 0 
    0.109626 7.542340e+19 1.565220e-01 0 
    0.110386 7.319844e+19 1.498202e-01 0 
    0.111407 7.319731e+19 1.470844e-01 0 
    0.112438 6.815628e+19 1.344547e-01 0 
    0.113478 7.404694e+19 1.434103e-01 0 
    0.114528 7.219394e+19 1.372694e-01 0 
    0.115588 7.202876e+19 1.344550e-01 0 
    0.116389 7.120378e+19 1.310918e-01 0 
    0.117466 5.695091e+19 1.029373e-01 0 
    0.118553 6.910366e+19 1.226231e-01 0 
    0.119375 6.660344e+19 1.165645e-01 0 
    0.120480 6.302267e+19 1.082837e-01 0 
    0.121594 4.813884e+19 8.120220e-02 0 
    0.122437 6.478941e+19 1.077892e-01 0 
    0.123570 6.974401e+19 1.139141e-01 0 
    0.124427 7.022608e+19 1.131268e-01 0 
    0.125578 7.022729e+19 1.110645e-01 0 
    0.126448 7.038811e+19 1.097923e-01 0 
    0.127618 7.286118e+19 1.115755e-01 0 
    0.128503 7.302962e+19 1.102983e-01 0 
    0.129394 6.926248e+19 1.031730e-01 0 
    0.130591 6.990429e+19 1.022289e-01 0 
    0.131496 7.319885e+19 1.055785e-01 0 
    0.132408 7.153235e+19 1.017585e-01 0 
    0.133633 7.055132e+19 9.853129e-02 0 
    0.134559 7.202753e+19 9.921321e-02 0 
    0.135492 7.136772e+19 9.695516e-02 0 
    0.136431 6.942205e+19 9.301815e-02 0 
    0.137377 6.894407e+19 9.110984e-02 0 
    0.138648 6.910379e+19 8.965430e-02 0 
    0.139609 5.747850e+19 7.354871e-02 0 
    0.140577 5.514411e+19 6.959324e-02 0 
    0.141551 6.753065e+19 8.405653e-02 0 
    0.142532 6.508843e+19 7.990528e-02 0 
    0.143520 6.737614e+19 8.157889e-02 0 
    0.144183 6.753052e+19 8.101557e-02 0 
    0.144848 6.752969e+19 8.027239e-02 0 
    0.145517 6.614614e+19 7.790646e-02 0 
    0.146526 6.523942e+19 7.578393e-02 0 
    0.147541 6.553835e+19 7.508730e-02 0 
    0.148564 6.599311e+19 7.457064e-02 0 
    0.149594 6.538861e+19 7.287360e-02 0 
    0.150631 6.434406e+19 7.072552e-02 0 
    0.151326 6.230285e+19 6.785428e-02 0 
    0.151675 6.287945e+19 6.816747e-02 0 
    0.152375 6.258927e+19 6.723090e-02 0 
    0.153431 5.760902e+19 6.103243e-02 0 
    0.154495 5.242083e+19 5.477362e-02 0 
    0.155566 5.302626e+19 5.464596e-02 0 
    0.156644 5.787646e+19 5.882621e-02 0 
    0.157367 6.004902e+19 6.047488e-02 0 
    0.158458 6.060402e+19 6.019626e-02 0 
    0.159556 6.088274e+19 5.964367e-02 0 
    0.160662 5.922373e+19 5.722237e-02 0 
    0.161404 5.827678e+19 5.579090e-02 0 
    0.162522 5.868109e+19 5.540773e-02 0 
    0.163649 5.990950e+19 5.579117e-02 0 
    0.164404 5.908791e+19 5.452181e-02 0 
    0.165544 6.032689e+19 5.490103e-02 0 
    0.166692 6.074347e+19 5.452133e-02 0 
    0.167076 5.800959e+19 5.182843e-02 0 
    0.167847 6.273209e+19 5.553401e-02 0 
    0.168622 6.187391e+19 5.427196e-02 0 
    0.169400 6.060287e+19 5.266994e-02 0 
    0.170574 6.004835e+19 5.147209e-02 0 
    0.171362 5.841218e+19 4.961018e-02 0 
    0.172549 5.801021e+19 4.859325e-02 0 
    0.173346 5.963409e+19 4.949524e-02 0 
    0.174547 5.936142e+19 4.859325e-02 0 
    0.175353 5.936138e+19 4.814753e-02 0 
    0.176569 5.895225e+19 4.715937e-02 0 
    0.177384 5.814303e+19 4.608560e-02 0 
    0.178613 5.895211e+19 4.608607e-02 0 
    0.179438 5.895097e+19 4.566238e-02 0 
    0.180681 5.936131e+19 4.534975e-02 0 
    0.181515 5.747739e+19 4.350793e-02 0 
    0.182353 5.774185e+19 4.330732e-02 0 
    0.183617 5.774153e+19 4.271289e-02 0 
    0.184465 5.552623e+19 4.069740e-02 0 
    0.185316 5.565571e+19 4.041851e-02 0 
    0.186601 5.630034e+19 4.032548e-02 0 
    0.187462 5.682160e+19 4.032584e-02 0 
    0.188327 5.438703e+19 3.824429e-02 0 
    0.189633 5.351799e+19 3.711662e-02 0 
    0.190508 5.527291e+19 3.798240e-02 0 
    0.191387 5.401361e+19 3.677687e-02 0 
    0.192714 5.266345e+19 3.536545e-02 0 
    0.193604 5.451467e+19 3.627280e-02 0 
    0.194497 5.527086e+19 3.643904e-02 0 
    0.195395 5.253973e+19 3.432080e-02 0 
    0.196749 5.463743e+19 3.520154e-02 0 
    0.197658 5.565673e+19 3.552920e-02 0 
    0.198570 5.426109e+19 3.432082e-02 0 
    0.199487 5.339338e+19 3.346221e-02 0 
    0.200407 5.413945e+19 3.361898e-02 0 
    0.201332 5.401265e+19 3.323275e-02 0 
    0.202728 5.489298e+19 3.331086e-02 0 
    0.203664 5.315129e+19 3.195816e-02 0 
    0.204604 5.327338e+19 3.173792e-02 0 
    0.205548 4.671828e+19 2.757762e-02 0 
    0.206497 4.960107e+19 2.901082e-02 0 
    0.207450 5.426394e+19 3.144712e-02 0 
    0.207928 5.266130e+19 3.037820e-02 0 
    0.208408 5.315167e+19 3.052000e-02 0 
    0.209370 5.194087e+19 2.955131e-02 0 
    0.210336 5.266453e+19 2.968844e-02 0 
    0.211307 5.302908e+19 2.961984e-02 0 
    0.212282 5.302928e+19 2.934850e-02 0 
    0.213262 5.254299e+19 2.881272e-02 0 
    0.214740 5.205743e+19 2.815486e-02 0 
    0.215731 5.290440e+19 2.835066e-02 0 
    0.216727 5.205791e+19 2.764122e-02 0 
    0.217728 5.229791e+19 2.751390e-02 0 
    0.218733 5.170286e+19 2.695146e-02 0 
    0.219742 5.242269e+19 2.707632e-02 0 
    0.220249 5.182269e+19 2.664333e-02 0 
    0.221265 5.099132e+19 2.597570e-02 0 
    0.222287 5.075570e+19 2.561846e-02 0 
    0.223313 5.087293e+19 2.544223e-02 0 
    0.224343 5.064259e+19 2.509501e-02 0 
    0.225379 4.994588e+19 2.452275e-02 0 
    0.226419 5.040763e+19 2.452263e-02 0 
    0.227464 5.040784e+19 2.429793e-02 0 
    0.228514 5.017696e+19 2.396488e-02 0 
    0.229569 4.871213e+19 2.305192e-02 0 
    0.230629 4.927585e+19 2.310483e-02 0 
    0.231693 4.927577e+19 2.289307e-02 0 
    0.232763 4.641240e+19 2.136498e-02 0 
    0.233299 4.854404e+19 2.224368e-02 0 
    0.234376 4.854421e+19 2.203980e-02 0 
    0.235458 4.876957e+19 2.193908e-02 0 
    0.236545 4.843426e+19 2.158845e-02 0 
    0.237637 4.843565e+19 2.139112e-02 0 
    0.238734 4.744412e+19 2.076110e-02 0 
    0.239284 4.793910e+19 2.088137e-02 0 
    0.240388 4.783098e+19 2.064335e-02 0 
    0.241498 4.794281e+19 2.050184e-02 0 
    0.242613 4.827770e+19 2.045573e-02 0 
    0.243733 4.783783e+19 2.008349e-02 0 
    0.244294 4.789407e+19 2.001486e-02 0 
    0.245422 4.789738e+19 1.983267e-02 0 
    0.246555 4.779064e+19 1.960702e-02 0 
    0.247693 4.768414e+19 1.938398e-02 0 
    0.248264 4.741244e+19 1.918498e-02 0 
    0.249410 4.284751e+19 1.717886e-02 0 
    0.250561 4.731126e+19 1.879464e-02 0 
    0.251139 4.534060e+19 1.792897e-02 0 
    0.251717 4.677389e+19 1.841089e-02 0 
    0.252298 4.683009e+19 1.834821e-02 0 
    0.253462 4.694253e+19 1.822373e-02 0 
    0.254632 4.662470e+19 1.793439e-02 0 
    0.255219 4.678900e+19 1.791490e-02 0 
    0.256397 4.679384e+19 1.775249e-02 0 
    0.257581 4.712385e+19 1.771371e-02 0 
    0.258770 4.702142e+19 1.751315e-02 0 
    0.259366 4.664666e+19 1.729382e-02 0 
    0.260563 4.665274e+19 1.713753e-02 0 
    0.261766 4.644545e+19 1.690492e-02 0 
    0.262370 4.650187e+19 1.684762e-02 0 
    0.263581 4.661597e+19 1.673412e-02 0 
    0.264797 4.705430e+19 1.673669e-02 0 
    0.265408 4.678758e+19 1.656529e-02 0 
    0.266633 4.636670e+19 1.626578e-02 0 
    0.267247 4.621012e+19 1.613645e-02 0 
    0.268481 4.653815e+19 1.610195e-02 0 
    0.269720 4.601331e+19 1.577443e-02 0 
    0.270342 4.607076e+19 1.572153e-02 0 
    0.271590 4.586699e+19 1.550848e-02 0 
    0.272216 4.560791e+19 1.535003e-02 0 
    0.273472 4.551115e+19 1.517709e-02 0 
    0.274735 4.541576e+19 1.500635e-02 0 
    0.275368 4.526400e+19 1.488752e-02 0 
    0.276639 4.537728e+19 1.478796e-02 0 
    0.277277 4.564393e+19 1.480648e-02 0 
    0.278557 4.554803e+19 1.463989e-02 0 
    0.279199 4.415904e+19 1.412825e-02 0 
    0.280487 4.478292e+19 1.419657e-02 0 
    0.281782 4.562561e+19 1.433107e-02 0 
    0.282432 4.526428e+19 1.415221e-02 0 
    0.283735 4.496308e+19 1.392922e-02 0 
    0.284389 4.491690e+19 1.385099e-02 0 
    0.285702 4.492745e+19 1.372719e-02 0 
    0.286361 4.498436e+19 1.368139e-02 0 
    0.287683 4.499556e+19 1.355931e-02 0 
    0.288346 4.484615e+19 1.345221e-02 0 
    0.289677 4.485778e+19 1.333233e-02 0 
    0.291014 4.497236e+19 1.324385e-02 0 
    0.293031 4.473221e+19 1.299241e-02 0 
    0.295062 4.439130e+19 1.271650e-02 0 
    0.297107 4.446103e+19 1.256175e-02 0 
    0.299167 4.432712e+19 1.235204e-02 0 
    0.301241 4.419357e+19 1.214584e-02 0 
    0.303329 4.406142e+19 1.194337e-02 0 
    0.304729 4.377226e+19 1.175622e-02 0 
    0.306841 4.364171e+19 1.156036e-02 0 
    0.308968 4.351289e+19 1.136809e-02 0 
    0.311110 4.348412e+19 1.120467e-02 0 
    0.313266 4.325657e+19 1.099315e-02 0 
    0.314712 4.297408e+19 1.082122e-02 0 
    0.316894 4.284779e+19 1.064135e-02 0 
    0.319090 4.252742e+19 1.041692e-02 0 
    0.321302 4.260058e+19 1.029165e-02 0 
    0.322785 4.232245e+19 1.013073e-02 0 
    0.325023 4.249369e+19 1.003212e-02 0 
    0.327275 4.237144e+19 9.866065e-03 0 
    0.328786 4.219434e+19 9.734732e-03 0 
    0.331065 4.217058e+19 9.595763e-03 0 
    0.331828 4.371207e+19 9.900832e-03 0 
    0.332593 4.417613e+19 9.959969e-03 0 
    0.333360 4.372949e+19 9.813952e-03 0 
    0.334129 4.240084e+19 9.472018e-03 0 
    0.334899 4.456211e+19 9.909106e-03 0 
    0.335671 4.241853e+19 9.389111e-03 0 
    0.336445 4.247537e+19 9.358484e-03 0 
    0.337220 4.166114e+19 9.136943e-03 0 
    0.337997 4.220180e+19 9.213015e-03 0 
    0.338777 4.324299e+19 9.396894e-03 0 
    0.339558 4.380446e+19 9.475166e-03 0 
    0.340340 4.218006e+19 9.081920e-03 0 
    0.341125 4.233582e+19 9.073552e-03 0 
    0.341911 4.328121e+19 9.233570e-03 0 
    0.342699 4.364104e+19 9.267570e-03 0 
    0.343489 4.400447e+19 9.301814e-03 0 
    0.344281 4.346019e+19 9.144542e-03 0 
    0.345075 4.312110e+19 9.031488e-03 0 
    0.345870 4.210016e+19 8.777167e-03 0 
    0.346668 4.294264e+19 8.911641e-03 0 
    0.347467 4.260799e+19 8.801575e-03 0 
    0.348268 4.150333e+19 8.533993e-03 0 
    0.349071 4.312058e+19 8.825789e-03 0 
    0.349875 4.318043e+19 8.797466e-03 0 
    0.350682 4.245094e+19 8.609081e-03 0 
    0.351490 4.202424e+19 8.483408e-03 0 
    0.352301 4.276589e+19 8.593424e-03 0 
    0.353113 4.272724e+19 8.546216e-03 0 
    0.353927 4.318243e+19 8.597577e-03 0 
    0.354743 4.374338e+19 8.669241e-03 0 
    0.355560 4.370356e+19 8.621592e-03 0 
    0.356380 4.356283e+19 8.554327e-03 0 
    0.357202 4.342340e+19 8.487748e-03 0 
    0.358025 4.191178e+19 8.154659e-03 0 
    0.358850 4.158482e+19 8.053885e-03 0 
    0.359678 4.202941e+19 8.102555e-03 0 
    0.360507 4.277143e+19 8.207726e-03 0 
    0.361338 4.283181e+19 8.181552e-03 0 
    0.362171 4.318901e+19 8.211877e-03 0 
    0.363006 4.415601e+19 8.357158e-03 0 
    0.363843 4.351077e+19 8.197193e-03 0 
    0.364681 4.327209e+19 8.114805e-03 0 
    0.365522 4.323318e+19 8.070242e-03 0 
    0.366365 4.329458e+19 8.044555e-03 0 
    0.367209 4.305677e+19 7.963634e-03 0 
    0.368056 4.282118e+19 7.883648e-03 0 
    0.368344 3.907740e+19 7.183151e-03 1 
    0.368619 4.345457e+19 7.975841e-03 1 
    0.368893 3.287066e+19 6.024265e-03 1 
    0.369167 3.306392e+19 6.050691e-03 1 
    0.369442 3.793587e+19 6.931928e-03 1 
    0.369716 3.427625e+19 6.253934e-03 1 
    0.369990 4.322139e+19 7.874359e-03 1 
    0.370264 3.750003e+19 6.821896e-03 1 
    0.370539 4.172577e+19 7.579367e-03 1 
    0.370813 3.970278e+19 7.201243e-03 1 
    0.371087 4.025853e+19 7.291264e-03 1 
    0.371362 3.596031e+19 6.503167e-03 1 
    0.371636 4.529856e+19 8.179848e-03 1 
    0.371910 6.856160e+19 1.236237e-02 1 
    0.372185 1.085674e+20 1.954692e-02 1 
    0.372459 1.407443e+20 2.530290e-02 1 
    0.372733 1.246370e+20 2.237421e-02 1 
    0.373008 9.713722e+19 1.741189e-02 1 
    0.373282 5.952033e+19 1.065339e-02 1 
    0.373556 4.605252e+19 8.230730e-03 1 
    0.373831 4.702611e+19 8.392374e-03 1 
    0.374105 3.935530e+19 7.013143e-03 1 
    0.374379 3.836699e+19 6.827021e-03 1 
    0.374653 4.063541e+19 7.220091e-03 1 
    0.374928 4.966688e+19 8.811859e-03 1 
    0.375202 4.574130e+19 8.103538e-03 1 
    0.375476 3.418851e+19 6.048007e-03 1 
    0.375751 3.357801e+19 5.931316e-03 1 
    0.376025 3.726570e+19 6.573132e-03 1 
    0.376299 3.732425e+19 6.573875e-03 1 
    0.376574 3.616042e+19 6.359591e-03 1 
    0.376848 4.331061e+19 7.606035e-03 1 
    0.377122 4.266932e+19 7.482530e-03 1 
    0.377397 4.210984e+19 7.373660e-03 1 
    0.377671 3.890756e+19 6.803042e-03 1 
    0.377945 3.705330e+19 6.469431e-03 1 
    0.378220 3.765845e+19 6.565532e-03 1 
    0.378494 4.346075e+19 7.566162e-03 1 
    0.378768 3.669003e+19 6.378197e-03 1 
    0.379042 3.678123e+19 6.384812e-03 1 
    0.379317 5.061074e+19 8.772726e-03 1 
    0.379591 5.314842e+19 9.199305e-03 1 
    0.379865 4.545892e+19 7.857004e-03 1 
    0.380140 3.635958e+19 6.275209e-03 1 
    0.380414 3.814214e+19 6.573377e-03 1 
    0.380688 3.631680e+19 6.249793e-03 1 
    0.380963 3.589945e+19 6.169056e-03 1 
    0.381237 4.007625e+19 6.876911e-03 1 
    0.381511 4.082339e+19 6.995059e-03 1 
    0.381786 4.078206e+19 6.977913e-03 1 
    0.382060 4.014924e+19 6.859787e-03 1 
    0.382334 3.186046e+19 5.435790e-03 1 
    0.382609 4.624848e+19 7.879225e-03 1 
    0.382883 5.545156e+19 9.433612e-03 1 
    0.383157 5.388104e+19 9.153325e-03 1 
    0.383431 5.401590e+19 9.163124e-03 1 
    0.383706 4.727506e+19 8.008135e-03 1 
    0.383980 3.613348e+19 6.112080e-03 1 
    0.384254 3.490361e+19 5.895626e-03 1 
    0.384529 4.665440e+19 7.869205e-03 1 
    0.384803 4.083094e+19 6.877158e-03 1 
    0.385077 3.925897e+19 6.602983e-03 1 
    0.385352 4.528585e+19 7.605779e-03 1 
    0.385626 4.658560e+19 7.812959e-03 1 
    0.385900 4.585449e+19 7.679426e-03 1 
    0.386175 6.229003e+19 1.041710e-02 1 
    0.386449 7.796514e+19 1.302005e-02 1 
    0.386723 7.806706e+19 1.301860e-02 1 
    0.386998 6.458860e+19 1.075561e-02 1 
    0.387272 5.053922e+19 8.404130e-03 1 
    0.387546 4.404439e+19 7.313757e-03 1 
    0.387821 4.557001e+19 7.556365e-03 1 
    0.388095 6.011925e+19 9.954831e-03 1 
    0.388369 7.815016e+19 1.292222e-02 1 
    0.388643 9.494164e+19 1.567659e-02 1 
