,lambda (Angstroms),Total Flux (erg/s/cm^2/Angstrom)
0,1005.0,10.39045851645004
1,1015.0,10.252553285354226
2,1025.0,10.094773354258411
3,1035.0,9.977833123162593
4,1045.0,9.889873292066778
5,1055.0,9.77293336097096
6,1065.0,9.631374629875145
7,1075.0,9.515688698779329
8,1085.0,9.36933176768351
9,1095.0,9.260270736587696
10,1096.4782,9.246220662721111
11,1105.0,9.185023466977361
12,1115.0,9.089547744102207
13,1125.0,8.99159002122705
14,1135.0,8.906965298351897
15,1145.0,8.785834575476741
16,1155.0,8.701507852601587
17,1165.0,8.61208412972643
18,1175.0,8.483102406851275
19,1185.0,8.371186683976118
20,1195.0,8.162487561100964
21,1205.0,8.059950238225808
22,1215.0,7.926960315350653
23,1225.0,7.847487392475497
24,1235.0,7.843969069600341
25,1245.0,7.810161346725185
26,1255.0,7.700590623850031
27,1258.92541,7.626479776914894
28,1265.0,7.530099790854586
29,1275.0,7.616423900061446
30,1285.0,7.5955770092683075
31,1295.0,7.456410118475167
32,1305.0,7.320569227682029
33,1315.0,7.354466336888889
34,1325.0,7.294361446095751
35,1335.0,7.152740555302611
36,1345.0,7.183965664509472
37,1355.0,7.092508773716333
38,1365.0,6.965063882923194
39,1375.0,6.9414919921300555
40,1385.0,6.872391101336916
41,1395.0,6.8057422105437775
42,1405.0,6.727916319750639
43,1415.0,6.619829428957499
44,1425.0,6.575536538164361
45,1435.0,6.469084647371221
46,1442.0,6.456237823816023
47,1445.43977,6.452442763139673
48,1447.0,6.454247004802663
49,1455.0,6.393651962198636
50,1465.0,6.3010729089436035
51,1475.0,6.2335748556885715
52,1485.0,6.208880802433539
53,1495.0,6.181186749178507
54,1505.0,6.119686695923474
55,1512.0,6.031326658644953
56,1517.0,6.045287632017437
57,1525.0,5.95197758941341
58,1535.0,5.8536715361583775
59,1545.0,5.891955482903345
60,1555.0,5.796650429648313
61,1565.0,5.72233737639328
62,1575.0,5.693826323138248
63,1585.0,5.6748562698832155
64,1595.0,5.641983216628184
65,1605.0,5.56467116337315
66,1615.0,5.512441110118117
67,1625.0,5.423679056863087
68,1635.0,5.392987003608053
69,1645.0,5.354660950353021
70,1655.0,5.247085897097989
71,1659.58691,5.245138270684385
72,1665.0,5.251310755013916
73,1672.0,5.13140197458254
74,1677.0,5.206867417131557
75,1685.0,5.217679525209984
76,1695.0,5.147292410308017
77,1705.0,5.086447295406051
78,1715.0,5.035689180504085
79,1725.0,4.995292065602119
80,1735.0,4.985699950700152
81,1745.0,4.942575835798186
82,1755.0,4.9477077208962195
83,1765.0,4.8470586059942535
84,1775.0,4.846191491092287
85,1785.0,4.80633937619032
86,1795.0,4.812833261288354
87,1805.0,4.758531146386389
88,1815.0,4.706682031484423
89,1825.0,4.661104916582456
90,1835.0,4.60544080168049
91,1845.0,4.537234686778524
92,1855.0,4.512920571876558
93,1865.0,4.486699456974591
94,1875.0,4.471111342072625
95,1885.0,4.417355227170659
96,1895.0,4.379955112268693
97,1905.0,4.338194997366727
98,1905.46072,4.336698020648964
99,1915.0,4.31502643772345
100,1925.0,4.2868571791908225
101,1935.0,4.246689920658195
102,1945.0,4.245781662125568
103,1955.0,4.20752540359294
104,1967.0,4.204254693353786
105,1976.0,4.182309160674421
106,1984.0,4.144505353848319
107,1995.0,4.1005683694624295
108,2005.0,4.072399110929801
109,2015.0,4.028142852397174
110,2025.0,4.010877593864546
111,2035.0,3.9818883353319188
112,2045.0,3.972803076799291
113,2055.0,3.9274558182666635
114,2065.0,3.895469559734035
115,2074.0,3.8966970270546706
116,2078.0,3.893880123641619
117,2085.0,3.878387042668779
118,2095.0,3.8319507841361524
119,2105.0,3.7923295256035243
120,2115.0,3.7685212670708967
121,2125.0,3.7460760085382687
122,2135.0,3.6750487500056415
123,2145.0,3.6791024914730137
124,2155.0,3.6602012329403864
125,2165.0,3.6118569744077584
126,2175.0,3.580687715875131
127,2185.0,3.5571514573425027
128,2187.7616199999998,3.5547175702396157
129,2195.0,3.554614486359829
130,2205.0,3.519848073444526
131,2215.0,3.4738486605292236
132,2225.0,3.44747924761392
133,2235.0,3.4665288346986176
134,2245.0,3.422138421783315
135,2255.0,3.3856260088680123
136,2265.0,3.3733515959527094
137,2275.0,3.3704011830374068
138,2285.0,3.3693037701221034
139,2295.0,3.3321923572068015
140,2305.0,3.312311944291498
141,2315.0,3.2761265313761956
142,2325.0,3.192941118460893
143,2335.0,3.2100287055455894
144,2345.0,3.1716902926302875
145,2355.0,3.1971738797149842
146,2365.0,3.1360444667996816
147,2375.0,3.136119053884379
148,2385.0,3.0838226409690765
149,2395.0,3.091068228053773
150,2405.0,3.0623258151384705
151,2415.0,3.0546854022231678
152,2425.0,3.069264989307865
153,2435.0,3.041150576392562
154,2445.0,3.0460781634772593
155,2455.0,3.0229807505619566
156,2465.0,3.001326337646654
157,2475.0,2.968577924731351
158,2485.0,2.954367511816048
159,2495.0,2.930315098900745
160,2505.0,2.9524186859854424
161,2511.88643,2.8940956765174595
162,2513.0,2.8851793865221955
163,2518.0,2.878286803352684
164,2525.0,2.856068586915369
165,2535.0,2.8527514205763467
166,2545.0,2.8383662542373242
167,2555.0,2.860077087898303
168,2565.0,2.8302059215592803
169,2575.0,2.8427007552202586
170,2585.0,2.8220455888812364
171,2595.0,2.799426422542214
172,2605.0,2.7714632562031922
173,2615.0,2.7515710898641697
174,2625.0,2.765128923525148
175,2635.0,2.7769707571861257
176,2645.0,2.812830590847104
177,2655.0,2.824400424508082
178,2665.0,2.74736425816906
179,2675.0,2.758388091830038
180,2685.0,2.749235925491016
181,2695.0,2.706825759151994
182,2705.0,2.7164855928129716
183,2715.0,2.6682114264739494
184,2725.0,2.648564260134927
185,2735.0,2.662314093795905
186,2745.0,2.577807927456883
187,2755.0,2.5799987611178605
188,2765.0,2.5882675947788387
189,2775.0,2.5947384284398165
190,2785.0,2.5434392621007946
191,2795.0,2.4460120957617724
192,2805.0,2.4545259294227506
193,2815.0,2.5346347630837287
194,2825.0,2.561414596744706
195,2835.0,2.535905430405684
196,2845.0,2.499329264066662
197,2855.0,2.4573540977276402
198,2865.0,2.506543931388618
199,2875.0,2.5077537650495962
200,2884.0315,2.4889012617205077
201,2885.0,2.48726405685958
202,2895.0,2.484536515187637
203,2910.0,2.531835202679722
204,2930.0,2.484122119335835
205,2950.0,2.4554920359919485
206,2970.0,2.4494919526480614
207,2990.0,2.433948869304175
208,3010.0,2.4244027859602877
209,3030.0,2.4074977026164013
210,3050.0,2.3919546192725147
211,3070.0,2.3826815359286275
212,3090.0,2.367957452584741
213,3110.0,2.359230369240854
214,3130.0,2.3289652858969676
215,3150.0,2.3126042025530804
216,3170.0,2.303877119209194
217,3190.0,2.250984035865307
218,3210.0,2.2572519525214205
219,3230.0,2.2032668691775337
220,3250.0,2.240887785833647
221,3270.0,2.25506070248976
222,3290.0,2.230521619145873
223,3310.0,2.2048915358019863
224,3311.31121,2.2036937400029197
225,3330.0,2.191823825665014
226,3350.0,2.1695811152831164
227,3370.0,2.1099864049012185
228,3390.0,2.1141876945193205
229,3410.0,2.1061209841374224
230,3430.0,2.0980542737555243
231,3450.0,2.0954395633736267
232,3470.0,2.0846458529917284
233,3490.0,2.0923911426098307
234,3510.0,2.095229432227933
235,3530.0,2.056899721846035
236,3550.0,2.079912011464137
237,3570.0,1.9859663010822393
238,3590.0,1.9724475907003414
239,3610.0,2.0003678803184433
240,3630.0,1.9991161699365456
241,3640.0,1.9991723147455964
242,3650.0,2.0335794595546477
243,3670.0,2.0249677491727494
244,3690.0,1.9678270387908516
245,3710.0,1.9954733284089539
246,3730.0,1.9086176180270562
247,3750.0,1.9738869076451584
248,3770.0,2.02770519726326
249,3790.0,2.0826154868813624
250,3801.8939600000003,2.0997060902406686
251,3810.0,2.1129430137716767
252,3830.0,1.9174124221412585
253,3850.0,2.0798418305108406
254,3870.0,2.1184972388804226
255,3890.0,1.9603186472500043
256,3910.0,2.177819055619586
257,3930.0,1.925307463989168
258,3950.0,2.0817408723587505
259,3970.0,1.802784280728332
260,3990.0,2.209216689097914
261,4010.0,2.2868600974674957
262,4030.0,2.2758975058370776
263,4050.0,2.24503391420666
264,4070.0,2.1937243225762417
265,4090.0,2.1857607309458236
266,4110.0,2.0624761393154056
267,4130.0,2.1908275476849877
268,4150.0,2.2019489560545695
269,4170.0,2.1923503644241515
270,4190.0,2.1742997727937334
271,4210.0,2.1698821811633153
272,4230.0,2.128658589532897
273,4250.0,2.148503997902479
274,4270.0,2.096646406272061
275,4290.0,2.061694814641643
276,4310.0,1.9686722230112248
277,4330.0,2.0294106313808067
278,4350.0,1.9674680397503888
279,4365.15832,2.099461694408225
280,4370.0,2.1423078914642075
281,4390.0,2.077473858335122
282,4410.0,2.096883825206037
283,4430.0,2.1184737920769514
284,4450.0,2.121525758947866
285,4470.0,2.15156772581878
286,4490.0,2.1510746926896953
287,4510.0,2.24437165956061
288,4530.0,2.129368626431525
289,4550.0,2.144965593302439
290,4570.0,2.203362560173354
291,4590.0,2.1436995270442685
292,4610.0,2.1590264939151833
293,4630.0,2.121453460786098
294,4650.0,2.1294104276570125
295,4670.0,2.1515473945279275
296,4690.0,2.1202543613988416
297,4710.0,2.0772313282697565
298,4730.0,2.110818295140671
299,4750.0,2.126125262011586
300,4770.0,2.1081922288825004
301,4790.0,2.098699195753415
302,4810.0,2.0804861626243296
303,4830.0,2.089263129495244
304,4850.0,1.9685440963661591
305,4870.0,1.8472770632370734
306,4890.0,2.0188040301079884
307,4910.0,2.023230996978903
308,4930.0,1.9979279638498175
309,4950.0,2.031784930720732
310,4970.0,2.009481897591647
311,4990.0,1.9372878644625615
312,5010.0,1.881997831333476
313,5011.87234,1.88588218479603
314,5030.0,1.9252867039174788
315,5050.0,1.9139641723501928
316,5070.0,1.9465286407829065
317,5090.0,1.8932251092156203
318,5110.0,1.9069805776483342
319,5130.0,1.8686690460810478
320,5150.0,1.8328075145137617
321,5170.0,1.7732299829464753
322,5190.0,1.788077451379189
323,5210.0,1.834822919811903
324,5230.0,1.876935388244617
325,5250.0,1.9062338566773303
326,5270.0,1.795673325110044
327,5290.0,1.9018527935427578
328,5310.0,1.9434222619754717
329,5330.0,1.8268617304081856
330,5350.0,1.9003311988408993
331,5370.0,1.889000667273613
332,5390.0,1.8605001357063267
333,5410.0,1.8382746041390408
334,5430.0,1.8484890725717547
335,5450.0,1.870428541004468
336,5470.0,1.840838009437182
337,5490.0,1.8376874778698957
338,5510.0,1.8225489463026094
339,5530.0,1.8439464147353233
340,5550.0,1.850615883168037
341,5570.0,1.8253753516007507
342,5590.0,1.7977028200334646
343,5610.0,1.8245442884661784
344,5630.0,1.809403756898892
345,5650.0,1.814713225331606
346,5670.0,1.7853986937643196
347,5690.0,1.8084221621970333
348,5710.0,1.772016630629747
349,5730.0,1.8413910990624607
350,5750.0,1.7946305674951746
351,5754.399369999999,1.795855675112116
352,5770.0,1.8012836897518392
353,5790.0,1.7586414018547774
354,5810.0,1.7920511139577155
355,5830.0,1.8151098260606533
356,5850.0,1.7795485381635918
357,5870.0,1.77452725026653
358,5890.0,1.6653469623694679
359,5910.0,1.7497446744724061
360,5930.0,1.7520733865753442
361,5950.0,1.7467720986782824
362,5970.0,1.7581008107812206
363,5990.0,1.7353595228841585
364,6010.0,1.7175192349870967
365,6030.0,1.7378469470900348
366,6050.0,1.749725659192973
367,6070.0,1.7430543712959112
368,6090.0,1.7023180833988492
369,6110.0,1.7005627955017875
370,6130.0,1.6459165076047255
371,6150.0,1.6626992197076638
372,6170.0,1.618140931810602
373,6190.0,1.66791364391354
374,6210.0,1.6555243560164783
375,6230.0,1.6221440681194164
376,6250.0,1.5871287802223546
377,6270.0,1.6259944923252927
378,6290.0,1.6378712044282309
379,6310.0,1.6069449165311687
380,6330.0,1.615275628634107
381,6350.0,1.6075233407370453
382,6370.0,1.5989500528399834
383,6390.0,1.6154627649429214
384,6410.0,1.5924404770458596
385,6430.0,1.5966831891487976
386,6450.0,1.5853849012517358
387,6470.0,1.580358613354674
388,6490.0,1.5570653254576121
389,6510.0,1.5817540375605503
390,6530.0,1.5718197496634883
391,6550.0,1.5302604617664266
392,6570.0,1.4554421738693648
393,6590.0,1.543653885972303
394,6606.93448,1.553479027498951
395,6610.0,1.5554151213399077
396,6630.0,1.544872543356118
397,6650.0,1.542234965372328
398,6670.0,1.519152387388538
399,6690.0,1.5301468094047481
400,6710.0,1.493977231420958
401,6730.0,1.5136966534371683
402,6750.0,1.4952490754533785
403,6770.0,1.4972474974695889
404,6790.0,1.4828869194857988
405,6810.0,1.484341341502009
406,6830.0,1.490428763518219
407,6850.0,1.4648911855344289
408,6870.0,1.4761596075506391
409,6890.0,1.4849740295668492
410,6910.0,1.4782484515830596
411,6930.0,1.4679778735992697
412,6950.0,1.4637052956154797
413,6970.0,1.4703407176316898
414,6990.0,1.4627951396479
415,7010.0,1.4438025616641101
416,7030.0,1.4597049836803202
417,7050.0,1.4617034056965301
418,7070.0,1.4345298277127405
419,7090.0,1.4081752497289504
420,7110.0,1.3856366717451607
421,7130.0,1.3677340937613707
422,7150.0,1.3631895157775809
423,7170.0,1.3687319377937912
424,7190.0,1.3464663598100013
425,7210.0,1.3629147818262113
426,7230.0,1.3750002038424214
427,7250.0,1.3772716258586315
428,7270.0,1.3784520478748417
429,7290.0,1.361638469891052
430,7310.0,1.3808118919072618
431,7330.0,1.3803573139234722
432,7350.0,1.385081735939682
433,7370.0,1.4018021579558924
434,7390.0,1.3814455799721026
435,7410.0,1.3771750019883124
436,7430.0,1.3930764240045228
437,7450.0,1.3909858460207327
438,7470.0,1.400073268036943
439,7490.0,1.394982690053153
440,7510.0,1.4021611120693631
441,7530.0,1.4128845340855731
442,7550.0,1.4159729561017835
443,7570.0,1.4087013781179936
444,7585.77575,1.393290380824105
445,7590.0,1.3893167981489487
446,7610.0,1.3729545997106163
447,7630.0,1.3557754012722836
448,7650.0,1.338595202833951
449,7670.0,1.2985160043956183
450,7690.0,1.316233805957286
451,7710.0,1.2998726075189535
452,7730.0,1.299052409080621
453,7750.0,1.2914142106422886
454,7770.0,1.298499012203956
455,7790.0,1.3047658137656233
456,7810.0,1.3004016153272908
457,7830.0,1.2916734168889583
458,7850.0,1.2788562184506258
459,7870.0,1.2903030200122931
460,7890.0,1.2753048215739606
461,7910.0,1.2559446231356282
462,7930.0,1.2562144246972957
463,7950.0,1.2474862262589632
464,7970.0,1.2717460278206305
465,7990.0,1.269835829382298
466,8010.0,1.2744676309439655
467,8030.0,1.274735432505633
468,8050.0,1.2725522340673006
469,8070.0,1.279363035628968
470,8090.0,1.2681828371906354
471,8110.0,1.2741766387523028
472,8130.0,1.2946204403139703
473,8150.0,1.3008882418756378
474,8170.0,1.3068810434373055
475,8190.0,1.280160844998973
476,8210.0,1.2676176465606404
477,8230.0,1.2711574481223078
478,8250.0,1.2692462496839751
479,8270.0,1.2771480512456428
480,8290.0,1.2662398528073102
481,8310.0,1.2354286543689779
482,8330.0,1.2291564559306452
483,8350.0,1.2272442574923126
484,8370.0,1.2313300590539802
485,8390.0,1.2035188606156475
486,8410.0,1.225869662177315
487,8430.0,1.1882444637389824
488,8450.0,1.17161026530065
489,8470.0,1.1696990668623175
490,8490.0,1.173238868423985
491,8510.0,1.1358856699856523
492,8530.0,1.1680524715473197
493,8550.0,1.0960742731089874
494,8570.0,1.1904010746706548
495,8590.0,1.1732218762323225
496,8610.0,1.1786716777939898
497,8630.0,1.1999334793556573
498,8650.0,1.1944782809173247
499,8670.0,1.1034160824789923
500,8690.0,1.1748418840406596
501,8709.6359,1.202675577464896
502,8710.0,1.2032018958263613
503,8730.0,1.205394544629665
504,8750.0,1.1825051934329687
505,8770.0,1.2084178422362726
506,8790.0,1.2198794910395763
507,8810.0,1.2029891398428798
508,8830.0,1.2095457886461838
509,8850.0,1.2013784374494874
510,8870.0,1.160769086252791
511,8890.0,1.185861735056095
512,8910.0,1.1975973838593985
513,8930.0,1.1804340326627023
514,8950.0,1.182626681466006
515,8970.0,1.1834573302693099
516,8990.0,1.1812879790726138
517,9010.0,1.1425876278759173
518,9030.0,1.175860276679221
519,9050.0,1.2077689254825248
520,9070.0,1.2056005742858287
521,9090.0,1.1873462230891323
522,9110.0,1.1974458718924361
523,9130.0,1.2127245206957398
524,9150.0,1.2056491694990434
525,9170.0,1.2032078183023474
526,9190.0,1.210308467105651
527,9210.0,1.1729711159089549
528,9230.0,1.1391777647122585
529,9250.0,1.1476404135155622
530,9270.0,1.155832062318866
531,9290.0,1.1479367111221697
532,9310.0,1.1528563599254735
533,9330.0,1.1520520087287773
534,9350.0,1.148520657532081
535,9370.0,1.1346263063353847
536,9390.0,1.1460909551386886
537,9410.0,1.1262006039419923
538,9430.0,1.147750252745296
539,9450.0,1.1338589015485998
540,9470.0,1.1515915503519034
541,9490.0,1.1518751991552072
542,9510.0,1.134984847958511
543,9530.0,1.1339064967618149
544,9550.0,1.1061111455651185
545,9570.0,1.1254797943684223
546,9590.0,1.143484443171726
547,9610.0,1.1317730919750297
548,9630.0,1.1339687407783334
549,9650.0,1.1203493895816372
550,9670.0,1.118451038384941
551,9690.0,1.1304606871882448
552,9710.0,1.1179313359915484
553,9730.0,1.109764984794852
554,9750.0,1.105142633598156
555,9770.0,1.1078802824014597
556,9790.0,1.0961699312047635
557,9810.0,1.1139035800080672
558,9830.0,1.104100228811371
559,9850.0,1.1090198776146747
560,9870.0,1.1022165264179784
561,9890.0,1.1000461752212822
562,9910.0,1.093244824024586
563,9930.0,1.0967994728278896
564,9950.0,1.0970851216311934
565,9970.0,1.0962787704344972
566,9990.0,1.0919294192378008
567,10000.0,1.0900269936394529
568,10030.0,1.084947028140042
569,10070.0,1.0719047408074944
570,10130.0,1.0835543098086733
571,10170.0,1.0737840224761257
572,10220.0,1.0745856633104411
573,10280.0,1.0745132323116198
574,10320.0,1.063378944979072
575,10380.0,1.055945513980251
576,10430.0,1.0570231548145665
577,10480.0,1.044466795648882
578,10520.0,1.0374215083163345
579,10580.0,1.022082077317513
580,10630.0,1.0141607181518286
581,10680.0,1.0037873589861441
582,10720.0,1.0065550716535967
583,10780.0,0.9999396406547753
584,10820.0,0.9879873533222276
585,10870.0,0.9838849941565433
586,10920.0,0.9751456349908587
587,10980.0,0.9682582039920374
588,11020.0,0.9661189166594899
589,11080.0,0.9545964856606686
590,11130.0,0.9507651264949841
591,11170.0,0.9445378391624364
592,11220.0,0.942614479996752
593,11280.0,0.9313660489979307
594,11330.0,0.9288976898322463
595,11380.0,0.9231573306665619
596,11430.0,0.9146909715008773
597,11470.0,0.9212766841683299
598,11481.5362,0.9204242683901864
599,11530.0,0.9176090413772247
600,11570.0,0.9092868037046014
601,11620.0,0.8991565066138225
602,11670.0,0.8972062095230435
603,11730.0,0.8991728530141088
604,11770.0,0.8845816153414856
605,11830.0,0.877550258832551
606,11870.0,0.8670480211599277
607,11920.0,0.8754567240691489
608,11980.0,0.854522367560214
609,12030.0,0.8645670704694353
610,12070.0,0.858154832796812
611,12120.0,0.8578375357060332
612,12180.0,0.8581691791970985
613,12230.0,0.8532198821063195
614,12270.0,0.8481686444336964
615,12320.0,0.8429473473429174
616,12370.0,0.8407240502521385
617,12430.0,0.8317846937432036
618,12480.0,0.8290153966524247
619,12530.0,0.8227040995616459
620,12580.0,0.8196628024708669
621,12620.0,0.8159755647982437
622,12670.0,0.809662267707465
623,12720.0,0.8090739706166858
624,12780.0,0.8069516141077512
625,12830.0,0.7840083170169723
626,12880.0,0.7954160199261934
627,12920.0,0.7892757822535702
628,12980.0,0.7934234257446355
629,13020.0,0.7853731880720123
630,13080.0,0.7862498315630775
631,13130.0,0.7742125344722985
632,13180.0,0.7717152373815197
633,13182.5674,0.7716710628465024
634,13230.0,0.7713910871790959
635,13280.0,0.7621009571763062
636,13320.0,0.7624088531740745
637,13380.0,0.7563296971707267
638,13430.0,0.757942567167937
639,13470.0,0.7530734631657052
640,13520.0,0.7495053331629155
641,13570.0,0.7418492031601258
642,13630.0,0.7393140471567781
643,13670.0,0.7407129431545463
644,13730.0,0.7409047871511987
645,13770.0,0.7393046831489669
646,13820.0,0.7390095531461771
647,13880.0,0.7340223971428295
648,13930.0,0.7154612671400398
649,13970.0,0.712498163137808
650,14020.0,0.7070230331350182
651,14080.0,0.7099398771316706
652,14120.0,0.7037067731294387
653,14180.0,0.7074406171260911
654,14230.0,0.7019664871233013
655,14280.0,0.6945823571205116
656,14330.0,0.7019222271177219
657,14380.0,0.7043520971149322
658,14420.0,0.6923939931127003
659,14480.0,0.6999458371093528
660,14520.0,0.695347733107121
661,14570.0,0.6977786031043312
662,14620.0,0.6884874731015416
663,14670.0,0.6860113430987518
664,14720.0,0.681081213095962
665,14770.0,0.6832390830931723
666,14830.0,0.6845219270898246
667,14880.0,0.6795917970870349
668,14920.0,0.6902596930848031
669,14980.0,0.6852715370814555
670,15030.0,0.6789784070786657
