,lambda (Angstroms),Total Flux (erg/s/cm^2/Angstrom)
0,1005.0,72.27519361515029
1,1015.0,71.36808999747959
2,1025.0,70.44111167980887
3,1035.0,69.55497306213816
4,1045.0,68.69781484446744
5,1055.0,67.81167652679673
6,1065.0,66.90091940912602
7,1075.0,66.01603509145531
8,1085.0,65.10047977378458
9,1095.0,64.22222035611387
10,1096.4782,64.09446737674378
11,1105.0,63.496582268841536
12,1115.0,62.77132420871544
13,1125.0,62.04358414858936
14,1135.0,61.329177088463275
15,1145.0,60.57826402833719
16,1155.0,59.8641549682111
17,1165.0,59.14494890808501
18,1175.0,58.38618484795893
19,1185.0,57.644486787832825
20,1195.0,56.80600532770674
21,1205.0,56.07368566758066
22,1215.0,55.31091340745457
23,1225.0,54.60165814732848
24,1235.0,53.9683574872024
25,1245.0,53.3047674270763
26,1255.0,52.56541436695023
27,1258.92541,52.24408813156827
28,1265.0,51.8749825359821
29,1275.0,51.512345300430134
30,1285.0,51.042537064878154
31,1295.0,50.45440882932617
32,1305.0,49.86960659377419
33,1315.0,49.45454235822223
34,1325.0,48.94547612267025
35,1335.0,48.35489388711829
36,1345.0,47.93715765156631
37,1355.0,47.396739416014334
38,1365.0,46.82033318046236
39,1375.0,46.347799944910385
40,1385.0,45.82973770935842
41,1395.0,45.314127473806444
42,1405.0,44.787340238254465
43,1415.0,44.2302920027025
44,1425.0,43.737037767150525
45,1435.0,43.181624531598544
46,1442.0,42.85450476671217
47,1445.43977,42.69627732954971
48,1447.0,42.64918703361864
49,1455.0,42.33788773539045
50,1465.0,41.93192836260523
51,1475.0,41.55104998982001
52,1485.0,41.21297561703477
53,1495.0,40.87190124424954
54,1505.0,40.497020871464315
55,1512.0,40.189294610514665
56,1517.0,40.04656542412206
57,1525.0,39.70255112589387
58,1535.0,39.29086475310864
59,1545.0,39.015768380323415
60,1555.0,38.60708300753819
61,1565.0,38.219389634752964
62,1575.0,37.87749826196774
63,1585.0,37.54514788918251
64,1595.0,37.19889451639728
65,1605.0,36.80820214361206
66,1615.0,36.44259177082682
67,1625.0,36.0404493980416
68,1635.0,35.696377025256375
69,1645.0,35.34467065247115
70,1655.0,34.92371527968592
71,1659.58691,34.7780229211267
72,1665.0,34.665385285097415
73,1672.0,34.39183582207778
74,1677.0,34.3575579199209
75,1685.0,34.192780676469894
76,1695.0,33.90290687215612
77,1705.0,33.62257506784236
78,1715.0,33.35233026352859
79,1725.0,33.092446459214834
80,1735.0,32.86336765490107
81,1745.0,32.6007568505873
82,1755.0,32.38640204627354
83,1765.0,32.066266241959774
84,1775.0,31.84591243764601
85,1785.0,31.586573633332247
86,1795.0,31.373580829018483
87,1805.0,31.099792024704726
88,1815.0,30.828456220390958
89,1825.0,30.563392416077193
90,1835.0,30.288241611763432
91,1845.0,30.000548807449665
92,1855.0,29.756748003135908
93,1865.0,29.51104019882214
94,1875.0,29.27596539450838
95,1885.0,29.002722590194615
96,1895.0,28.74583578588085
97,1905.0,28.484588981567086
98,1905.46072,28.472979814094742
99,1915.0,28.297875064064154
100,1925.0,28.108862254335758
101,1935.0,27.90785144460737
102,1945.0,27.746099634878973
103,1955.0,27.546999825150582
104,1967.0,27.350716853476506
105,1976.0,27.184012124720955
106,1984.0,27.017533476938237
107,1995.0,26.796668586237008
108,2005.0,26.60765577650861
109,2015.0,26.40255596678022
110,2025.0,26.224447157051824
111,2035.0,26.03461434732343
112,2045.0,25.864685537595033
113,2055.0,25.658494727866646
114,2065.0,25.46566491813824
115,2074.0,25.32213318938269
116,2078.0,25.254978865491335
117,2085.0,25.126895298681458
118,2095.0,24.919615488953067
119,2105.0,24.71915067922467
120,2115.0,24.53449886949628
121,2125.0,24.351210059767883
122,2135.0,24.11933925003949
123,2145.0,23.962549440311097
124,2155.0,23.782804630582703
125,2165.0,23.57361682085431
126,2175.0,23.38160401112592
127,2185.0,23.19722420139752
128,2187.7616199999998,23.150371437509314
129,2195.0,23.071501404518802
130,2205.0,22.927916514111686
131,2215.0,22.77309862370457
132,2225.0,22.637910733297442
133,2235.0,22.548141842890324
134,2245.0,22.394932952483202
135,2255.0,22.249602062076086
136,2265.0,22.128509171668966
137,2275.0,22.016740281261846
138,2285.0,21.90682439085473
139,2295.0,21.76089450044761
140,2305.0,21.632195610040487
141,2315.0,21.48719171963337
142,2325.0,21.29518782922625
143,2335.0,21.20345693881913
144,2345.0,21.056300048412012
145,2355.0,20.972965158004893
146,2365.0,20.80301726759777
147,2375.0,20.69427337719065
148,2385.0,20.533158486783535
149,2395.0,20.43158559637641
150,2405.0,20.294024705969292
151,2415.0,20.177565815562176
152,2425.0,20.083326925155056
153,2435.0,19.946394034747936
154,2445.0,19.842503144340814
155,2455.0,19.7105872539337
156,2465.0,19.58011436352658
157,2475.0,19.438547473119456
158,2485.0,19.31551858271234
159,2495.0,19.182647692305217
160,2505.0,19.095932801898098
161,2511.88643,18.96267270963472
162,2513.0,18.944727705655367
163,2518.0,18.897295623468793
164,2525.0,18.818322108407582
165,2535.0,18.733925944034425
166,2545.0,18.638461779661274
167,2555.0,18.57909361528812
168,2565.0,18.468143450914965
169,2575.0,18.399559286541812
170,2585.0,18.297825122168653
171,2595.0,18.1941269577955
172,2605.0,18.085084793422347
173,2615.0,17.98411362904919
174,2625.0,17.91659246467604
175,2635.0,17.84735530030288
176,2645.0,17.80213613592973
177,2655.0,17.732626971556574
178,2665.0,17.57451180718342
179,2675.0,17.504456642810265
180,2685.0,17.414225478437114
181,2695.0,17.290736314063956
182,2705.0,17.219317149690802
183,2715.0,17.089963985317645
184,2725.0,16.98923782094449
185,2735.0,16.921908656571336
186,2745.0,16.756323492198177
187,2755.0,16.677435327825027
188,2765.0,16.60462516345187
189,2775.0,16.53001699907872
190,2785.0,16.397638834705564
191,2795.0,16.219132670332407
192,2805.0,16.146567505959254
193,2815.0,16.1455973415861
194,2825.0,16.091298177212945
195,2835.0,15.98471001283979
196,2845.0,15.867054848466635
197,2855.0,15.744000684093482
198,2865.0,15.712111519720327
199,2875.0,15.632242355347174
200,2884.0315,15.540163354943555
201,2885.0,15.532980398017061
202,2895.0,15.47299160631346
203,2910.0,15.434398418758054
204,2930.0,15.272162835350848
205,2950.0,15.12901025194364
206,2970.0,15.008487668536429
207,2990.0,14.878422085129225
208,3010.0,14.754353501722015
209,3030.0,14.622925918314811
210,3050.0,14.492860334907604
211,3070.0,14.369064751500394
212,3090.0,14.239818168093187
213,3110.0,14.116568584685979
214,3130.0,13.971781001278774
215,3150.0,13.840897417871565
216,3170.0,13.717647834464357
217,3190.0,13.55023225105715
218,3210.0,13.441977667649944
219,3230.0,13.273470084242733
220,3250.0,13.196568500835529
221,3270.0,13.09621891742832
222,3290.0,12.957157334021112
223,3310.0,12.817004750613904
224,3311.31121,12.808298802449437
225,3330.0,12.720628779655097
226,3350.0,12.617267806981813
227,3370.0,12.476554834308528
228,3390.0,12.399637861635243
229,3410.0,12.310452888961956
230,3430.0,12.221267916288673
231,3450.0,12.137534943615387
232,3470.0,12.045622970942102
233,3490.0,11.972249998268817
234,3510.0,11.893970025595532
235,3530.0,11.774522052922244
236,3550.0,11.716416080248958
237,3570.0,11.541352107575674
238,3590.0,11.446715134902389
239,3610.0,11.393517162229104
240,3630.0,11.311147189555818
241,3640.0,11.270644203219176
242,3650.0,11.264492216882534
243,3670.0,11.174762244209248
244,3690.0,11.036503271535963
245,3710.0,10.983031298862677
246,3730.0,10.815057326189391
247,3750.0,10.799208353516107
248,3770.0,10.77190838084282
249,3790.0,10.745700408169537
250,3801.8939600000003,10.714550143180679
251,3810.0,10.704445096401734
252,3830.0,10.45132295498881
253,3850.0,10.556160813575882
254,3870.0,10.537224672162957
255,3890.0,10.321454530750032
256,3910.0,10.481363389337105
257,3930.0,10.171260247924177
258,3950.0,10.270102106511253
259,3970.0,9.933553965098325
260,3990.0,10.282394823685399
261,4010.0,10.302446682272471
262,4030.0,10.233892540859545
263,4050.0,10.14543739944662
264,4070.0,10.036536258033692
265,4090.0,9.970981116620765
266,4110.0,9.79010497520784
267,4130.0,9.860864833794912
268,4150.0,9.814394692381986
269,4170.0,9.74720455096906
270,4190.0,9.671562409556135
271,4210.0,9.609553268143209
272,4230.0,9.510738126730281
273,4250.0,9.472991985317353
274,4270.0,9.363542843904426
275,4290.0,9.270999702491501
276,4310.0,9.120385561078574
277,4330.0,9.123532419665647
278,4350.0,9.003998278252721
279,4365.15832,9.092342375865599
280,4370.0,9.125365240249453
281,4390.0,9.019953008345855
282,4410.0,8.998784776442257
283,4430.0,8.979796544538658
284,4450.0,8.942270312635063
285,4470.0,8.931734080731463
286,4490.0,8.890662848827867
287,4510.0,8.94338161692427
288,4530.0,8.787800385020672
289,4550.0,8.762819153117075
290,4570.0,8.780637921213478
291,4590.0,8.68039668930988
292,4610.0,8.655145457406281
293,4630.0,8.576994225502684
294,4650.0,8.544372993599088
295,4670.0,8.52593176169549
296,4690.0,8.454060529791892
297,4710.0,8.370459297888296
298,4730.0,8.363468065984698
299,4750.0,8.338196834081101
300,4770.0,8.279685602177503
301,4790.0,8.229614370273907
302,4810.0,8.17082313837031
303,4830.0,8.13902190646671
304,4850.0,7.977724674563113
305,4870.0,7.815879442659514
306,4890.0,7.9468282107559185
307,4910.0,7.910676978852321
308,4930.0,7.844795746948725
309,4950.0,7.838074515045125
310,4970.0,7.775193283141528
311,4990.0,7.662421051237931
312,5010.0,7.5665528193343325
313,5011.87234,7.566638363562214
314,5030.0,7.580044927422353
315,5050.0,7.5400392064513495
316,5070.0,7.5439204854803465
317,5090.0,7.461933764509341
318,5110.0,7.447006043538338
319,5130.0,7.380011322567335
320,5150.0,7.315466601596332
321,5170.0,7.227205880625328
322,5190.0,7.213370159654324
323,5210.0,7.23143243868332
324,5230.0,7.244861717712318
325,5250.0,7.245476996741313
326,5270.0,7.106233275770309
327,5290.0,7.183729554799306
328,5310.0,7.196615833828302
329,5330.0,7.051372112857298
330,5350.0,7.096158391886295
331,5370.0,7.056144670915292
332,5390.0,6.998960949944287
333,5410.0,6.948052228973285
334,5430.0,6.929583508002281
335,5450.0,6.922839787031278
336,5470.0,6.864566066060274
337,5490.0,6.83273234508927
338,5510.0,6.788910624118267
339,5530.0,6.781624903147263
340,5550.0,6.7596111821762594
341,5570.0,6.7056874612052555
342,5590.0,6.649331740234252
343,5610.0,6.647490019263248
344,5630.0,6.603666298292245
345,5650.0,6.5802925773212415
346,5670.0,6.522294856350237
347,5690.0,6.516635135379234
348,5710.0,6.45154641440823
349,5730.0,6.492237693437226
350,5750.0,6.416793972466223
351,5754.399369999999,6.4117096819348145
352,5770.0,6.401265828262875
353,5790.0,6.338275812983442
354,5810.0,6.351337797704008
355,5830.0,6.3540487824245755
356,5850.0,6.298139767145143
357,5870.0,6.272770751865709
358,5890.0,6.143242736586275
359,5910.0,6.2072927213068425
360,5930.0,6.189273706027409
361,5950.0,6.163624690747977
362,5970.0,6.154605675468543
363,5990.0,6.11151666018911
364,6010.0,6.073328644909678
365,6030.0,6.073308629630245
366,6050.0,6.064839614350812
367,6070.0,6.037820599071379
368,6090.0,5.976736583791945
369,6110.0,5.954633568512513
370,6130.0,5.87963955323308
371,6150.0,5.876074537953646
372,6170.0,5.811168522674214
373,6190.0,5.840593507394781
374,6210.0,5.807856492115347
375,6230.0,5.754128476835915
376,6250.0,5.698765461556482
377,6270.0,5.717283446277048
378,6290.0,5.708812430997616
379,6310.0,5.657538415718182
380,6330.0,5.645521400438749
381,6350.0,5.617421385159315
382,6370.0,5.588500369879883
383,6390.0,5.58466535460045
384,6410.0,5.5412953393210165
385,6430.0,5.525190324041585
386,6450.0,5.493544308762151
387,6470.0,5.468170293482718
388,6490.0,5.424529278203285
389,6510.0,5.428870262923851
390,6530.0,5.398588247644419
391,6550.0,5.336681232364986
392,6570.0,5.241515217085553
393,6590.0,5.30937920180612
394,6606.93448,5.3019754342126575
395,6610.0,5.301737849379354
396,6630.0,5.277013803492825
397,6650.0,5.260194757606296
398,6670.0,5.222930711719766
399,6690.0,5.219743665833237
400,6710.0,5.1693926199467075
401,6730.0,5.174930574060179
402,6750.0,5.1423015281736495
403,6770.0,5.130118482287121
404,6790.0,5.101576436400592
405,6810.0,5.088849390514063
406,6830.0,5.0807553446275335
407,6850.0,5.041036298741004
408,6870.0,5.038123252854475
409,6890.0,5.032756206967946
410,6910.0,5.011849161081416
411,6930.0,4.987397115194888
412,6950.0,4.9689430693083585
413,6970.0,4.96139702342183
414,6990.0,4.9396699775353
415,7010.0,4.906495931648771
416,7030.0,4.908216885762243
417,7050.0,4.896033839875712
418,7070.0,4.854678793989184
419,7090.0,4.814142748102654
420,7110.0,4.777422702216126
421,7130.0,4.745338656329596
422,7150.0,4.726612610443067
423,7170.0,4.717973564556538
424,7190.0,4.681526518670009
425,7210.0,4.68379347278348
426,7230.0,4.68169742689695
427,7250.0,4.669787381010421
428,7270.0,4.6567863351238925
429,7290.0,4.625791289237363
430,7310.0,4.630783243350834
431,7330.0,4.616147197464304
432,7350.0,4.606690151577776
433,7370.0,4.609229105691247
434,7390.0,4.574691059804717
435,7410.0,4.556239013918188
436,7430.0,4.557958968031659
437,7450.0,4.5416869221451295
438,7470.0,4.5365928762586005
439,7490.0,4.517320830372071
440,7510.0,4.510317784485543
441,7530.0,4.5068597385990135
442,7550.0,4.495766692712484
443,7570.0,4.474313646825955
444,7585.77575,4.447716484918734
445,7590.0,4.441665587042641
446,7610.0,4.415468197974313
447,7630.0,4.388453808905985
448,7650.0,4.361438419837657
449,7670.0,4.31152403076933
450,7690.0,4.319406641701002
451,7710.0,4.293210252632674
452,7730.0,4.282554863564347
453,7750.0,4.265081474496019
454,7770.0,4.262331085427691
455,7790.0,4.258762696359364
456,7810.0,4.244563307291036
457,7830.0,4.225999918222708
458,7850.0,4.203347529154381
459,7870.0,4.204959140086053
460,7890.0,4.180125751017726
461,7910.0,4.150930361949397
462,7930.0,4.14136497288107
463,7950.0,4.122801583812742
464,7970.0,4.137226194744414
465,7990.0,4.125480805676087
466,8010.0,4.12027741660776
467,8030.0,4.110710027539431
468,8050.0,4.098691638471104
469,8070.0,4.0956672494027755
470,8090.0,4.074651860334448
471,8110.0,4.070810471266121
472,8130.0,4.081419082197793
473,8150.0,4.077851693129466
474,8170.0,4.074009304061137
475,8190.0,4.037453914992811
476,8210.0,4.015075525924482
477,8230.0,4.008780136856155
478,8250.0,3.9970337477878264
479,8270.0,3.9951003587194993
480,8290.0,3.974356969651172
481,8310.0,3.9337105805828445
482,8330.0,3.9176031915145164
483,8350.0,3.9058558024461885
484,8370.0,3.9001064133778613
485,8390.0,3.8624600243095335
486,8410.0,3.8749756352412055
487,8430.0,3.827515246172878
488,8450.0,3.8010458571045502
489,8470.0,3.789299468036222
490,8490.0,3.7830040789678954
491,8510.0,3.7358156898995674
492,8530.0,3.758147300831239
493,8550.0,3.676333911762912
494,8570.0,3.760825522694584
495,8590.0,3.7338111336262565
496,8610.0,3.729425744557929
497,8630.0,3.740852355489601
498,8650.0,3.7255619664212736
499,8670.0,3.624664577352946
500,8690.0,3.686255188284618
501,8709.6359,3.7044327407242785
502,8710.0,3.704841270784528
503,8730.0,3.7005638124076543
504,8750.0,3.671204354030781
505,8770.0,3.6906468956539076
506,8790.0,3.695638437277033
507,8810.0,3.672277978900159
508,8830.0,3.6723645205232853
509,8850.0,3.657727062146412
510,8870.0,3.610647603769538
511,8890.0,3.629270145392664
512,8910.0,3.63453568701579
513,8930.0,3.610902228638917
514,8950.0,3.6066247702620426
515,8970.0,3.6009853118851693
516,8990.0,3.5923458535082955
517,9010.0,3.5471753951314215
518,9030.0,3.573977936754548
519,9050.0,3.599416478377674
520,9070.0,3.5907780200008
521,9090.0,3.5660535616239266
522,9110.0,3.569683103247053
523,9130.0,3.578491644870179
524,9150.0,3.564946186493305
525,9170.0,3.5560347281164315
526,9190.0,3.5566652697395575
527,9210.0,3.5128578113626836
528,9230.0,3.4725943529858103
529,9250.0,3.4745868946089358
530,9270.0,3.4763084362320624
531,9290.0,3.4619429778551885
532,9310.0,3.460392519478315
533,9330.0,3.453118061101441
534,9350.0,3.4431166027245674
535,9370.0,3.4227521443476934
536,9390.0,3.4277466859708197
537,9410.0,3.401386227593946
538,9430.0,3.416465769217072
539,9450.0,3.3961043108401987
540,9470.0,3.4073668524633245
541,9490.0,3.4011803940864507
542,9510.0,3.377819935709577
543,9530.0,3.370271477332704
544,9550.0,3.336006018955829
545,9570.0,3.348904560578956
546,9590.0,3.360439102202082
547,9610.0,3.342257643825208
548,9630.0,3.3379831854483344
549,9650.0,3.3178937270714606
550,9670.0,3.309525268694587
551,9690.0,3.3150648103177134
552,9710.0,3.296065351940839
553,9730.0,3.2814288935639655
554,9750.0,3.2703364351870916
555,9770.0,3.266603976810218
556,9790.0,3.248423518433344
557,9810.0,3.2596870600564705
558,9830.0,3.243413601679597
559,9850.0,3.241863143302723
560,9870.0,3.228589684925849
561,9890.0,3.2199492265489758
562,9910.0,3.2066777681721015
563,9930.0,3.2037623097952275
564,9950.0,3.1975778514183535
565,9970.0,3.19030139304148
566,9990.0,3.179481934664606
567,10000.0,3.1743444554761697
568,10030.0,3.1633231969802944
569,10070.0,3.1423591856524618
570,10130.0,3.1421261686607123
571,10170.0,3.1244341573328795
572,10220.0,3.1153336431730883
573,10280.0,3.103378626181339
574,10320.0,3.0843226148535057
575,10380.0,3.0650065978617564
576,10430.0,3.056182083701965
577,10480.0,3.033723569542174
578,10520.0,3.018756558214341
579,10580.0,2.9915345412225918
580,10630.0,2.9737110270628
581,10680.0,2.953435512903009
582,10720.0,2.948281501575176
583,10780.0,2.9297834845834267
584,10820.0,2.9099094732555937
585,10870.0,2.8959049590958026
586,10920.0,2.8772634449360117
587,10980.0,2.858493427944262
588,11020.0,2.8484324166164297
589,11080.0,2.8250273996246795
590,11130.0,2.811293885464889
591,11170.0,2.7971448741370555
592,11220.0,2.7853193599772643
593,11280.0,2.7621883429855147
594,11330.0,2.749817828825724
595,11380.0,2.734175314665933
596,11430.0,2.715806800506141
597,11470.0,2.714470789178309
598,11481.5362,2.711333708591305
599,11530.0,2.7035152896405723
600,11570.0,2.6910636259322103
601,11620.0,2.6757715462967573
602,11670.0,2.668659466661305
603,11730.0,2.664431971098762
604,11770.0,2.6457113073903997
605,11830.0,2.632485811827857
606,11870.0,2.617854148119495
607,11920.0,2.621101068484042
608,11980.0,2.5939725729214986
609,12030.0,2.5988554932860466
610,12070.0,2.5883138295776846
611,12120.0,2.582834749942232
612,12180.0,2.576972254379689
613,12230.0,2.5668611747442367
614,12270.0,2.5576805110358745
615,12320.0,2.5472974314004215
616,12370.0,2.5399123517649693
617,12430.0,2.5247788562024263
618,12480.0,2.5168477765669737
619,12530.0,2.505374696931521
620,12580.0,2.4971716172960687
621,12620.0,2.4893549535877066
622,12670.0,2.4778798739522543
623,12720.0,2.4721297943168015
624,12780.0,2.4638132987542587
625,12830.0,2.4357082191188058
626,12880.0,2.4419541394833537
627,12920.0,2.4316844757749916
628,12980.0,2.4296379802124486
629,13020.0,2.4174583165040864
630,13080.0,2.412140820941543
631,13130.0,2.3949417413060905
632,13180.0,2.387282661670638
633,13182.5674,2.3869734399255167
634,13230.0,2.3850136102536714
635,13280.0,2.373952700234143
636,13320.0,2.3728439722185213
637,13380.0,2.3646398801950874
638,13430.0,2.364481970175559
639,13470.0,2.3581962421599365
640,13520.0,2.3528573321404083
641,13570.0,2.3434304221208806
642,13630.0,2.338770330097447
643,13670.0,2.3387526020818243
644,13730.0,2.3368195100583904
645,13770.0,2.3338027820427683
646,13820.0,2.3317368720232405
647,13880.0,2.324624779999806
648,13930.0,2.3042928699802783
649,13970.0,2.2999131419646557
650,14020.0,2.292667231945128
651,14080.0,2.293459139921694
652,14120.0,2.2858094119060715
653,14180.0,2.287418319882638
654,14230.0,2.2801734098631097
655,14280.0,2.2710184998435814
656,14330.0,2.2765875898240533
657,14380.0,2.2772466798045254
658,14420.0,2.2638719517889028
659,14480.0,2.269298859765469
660,14520.0,2.263284131749847
661,14570.0,2.2639442217303185
662,14620.0,2.2528823117107906
663,14670.0,2.2486354016912626
664,14720.0,2.241934491671734
665,14770.0,2.2423215816522064
666,14830.0,2.2414794896287726
667,14880.0,2.2347785796092445
668,14920.0,2.244029851593622
669,14980.0,2.2369167595701884
670,15030.0,2.22885284955066
671,15070.0,2.227473121535038
672,15120.0,2.23276721151551
673,15135.6125,2.232548040111912
674,15170.0,2.233377050897966
675,15220.0,2.2321274464429375
