,lambda (Angstroms),Total Flux (erg/s/cm^2/Angstrom)
0,1017.9,13.795265768833808
1,1038.0,16.585264918348596
2,1058.1,12.555264067863378
3,1078.5,11.728563204684356
4,1096.4782,10.80425041014737
5,1098.6,10.695162162985952
6,1118.7,11.160159501121198
7,1138.8,10.953556839256443
8,1158.9,11.16015417739169
9,1179.3,13.485251475797611
10,1199.4,20.460248813932857
11,1219.5,38.3887461520681
12,1239.6,20.666943490203348
13,1258.92541,13.811708428430817
14,1259.7,13.53694093821482
15,1280.1,11.005141130377442
16,1300.2,10.953541319714143
17,1326.52,10.062841567641604
18,1345.73,9.97649174859474
19,1364.38,9.583521924272823
20,1383.02,10.022742099856709
21,1401.66,11.450042275440595
22,1420.87,9.62609245639373
23,1439.52,8.992692632071813
24,1445.43977,8.935013040441783
25,1458.16,8.811072788399201
26,1476.8,8.721462935764954
27,1495.45,8.961373083209766
28,1514.65,9.349723235002816
29,1533.3,11.35054338244763
30,1551.94,14.972543529813382
31,1570.59,9.709373677258194
32,1589.79,8.481623829051244
33,1608.44,8.278833976496058
34,1627.08,8.17855412386181
35,1645.73,8.058384271306622
36,1659.58691,7.9386157773116635
37,1664.37,7.897274657010556
38,1683.58,7.291185766104136
39,1702.22,7.072026842288641
40,1720.86,7.117757918473146
41,1739.51,7.075538995235004
42,1758.72,6.9237401043285836
43,1777.36,6.750951180513088
44,1796.0,6.667232256697593
45,1814.65,6.5856633334594505
46,1833.86,6.503414442553031
47,1852.5,6.733745518737536
48,1871.14,6.7848665949220415
49,1889.79,7.416807671683898
50,1905.46072,8.20527110107156
51,1908.43,8.354668355458568
52,1927.64,6.852496925824603
53,1946.28,6.149205538610802
54,1964.93,5.8047641506527885
55,1983.57,5.653382763438989
56,2002.78,5.652311333805023
57,2021.42,5.485849946591223
58,2040.07,5.426818558633209
59,2058.71,5.467647171419408
60,2077.35,5.512335784205607
61,2096.56,5.342474354571642
62,2115.21,5.181482966613629
63,2133.85,5.047141579399828
64,2152.49,4.942960192186027
65,2171.7,4.922878762552062
66,2187.7616199999998,4.831235905873554
67,2190.35,4.816467720807785
68,2208.99,4.75415882682297
69,2227.63,4.7882299328381555
70,2246.84,4.653781072674621
71,2265.49,4.681162179283162
72,2284.13,4.739143285298348
73,2302.77,4.816304391313533
74,2321.42,4.918775497922075
75,2340.62,4.819516637165185
76,2359.27,4.743377743773726
77,2377.91,4.679208849788912
78,2396.56,4.671089956397452
79,2415.76,4.733881095640562
80,2434.41,4.745492202249104
81,2453.05,4.63582330826429
82,2471.7,4.656574414872831
83,2490.34,4.592715520888017
84,2509.55,4.539236660724482
85,2511.88643,4.532731396085376
86,2528.19,4.487336424955697
87,2546.83,4.412335996898701
88,2565.48,4.323745568612061
89,2584.69,4.272025127465339
90,2603.33,4.233454699408343
91,2621.97,4.179314271351347
92,2640.62,4.0320038430647065
93,2659.83,3.9249234019179844
94,2678.47,3.9320129738609886
95,2697.11,3.975042545803992
96,2715.76,4.054452117517352
97,2734.4,4.189461689460355
98,2753.61,4.358631248313634
99,2772.25,4.579040820256638
100,2790.9,5.547290391969997
101,2809.54,5.255469963913001
102,2828.75,4.496949522766279
103,2847.39,4.1731290947092825
104,2866.04,3.9497286664226423
105,2884.0315,3.805053042152928
106,2884.68,3.7998382529533026
107,2903.32,3.6774082441930203
108,2922.53,3.666658235164853
109,2941.18,3.70932822639987
110,2959.82,3.6573282176395874
111,2978.46,3.5838382088793046
112,2997.67,3.4369681998511377
113,3016.32,3.2745581910861548
114,3034.96,3.242118182325872
115,3053.6,3.194598173565589
116,3072.81,3.207278164537422
117,3091.46,3.1556881557724394
118,3110.1,3.2013781470121563
119,3128.74,3.2756081382518736
120,3147.39,3.204958129486891
121,3166.59,3.2241281204634236
122,3185.24,3.2907681116984406
123,3203.88,3.235798102938158
124,3222.53,3.1687380941731753
125,3241.73,3.1009180851497082
126,3260.38,3.0958980763847253
127,3279.02,3.0645480676244423
128,3297.67,3.00454805885946
129,3311.31121,2.945036078349758
130,3316.31,2.9232280075390444
131,3335.52,2.9134978349552685
132,3354.16,2.8674476674924056
133,3372.8,2.822767500029543
134,3391.45,2.8031673324768396
135,3410.66,2.8219271598930633
136,3429.3,2.9173569924302005
137,3447.94,2.737726824967338
138,3466.59,2.7078166574146345
139,3485.8,2.697006484830858
140,3504.44,2.6438663173679955
141,3523.08,2.559796149905133
142,3541.73,2.4954159823524296
143,3560.37,2.472265814889567
144,3579.58,2.4764756423057905
145,3598.22,2.463805474842928
146,3616.87,2.4218753072902244
147,3635.51,2.416015139827362
148,3654.72,2.3880949672435854
149,3673.36,2.339574799780723
150,3692.01,2.3193746322280195
151,3710.65,2.319144464765157
152,3729.29,2.7195342973022942
153,3748.5,2.246414124718518
154,3767.15,2.2215939571658145
155,3785.79,2.160793789702952
156,3801.8939600000003,2.097820595431746
157,3804.43,2.087903626987393
158,3823.64,2.0938134903635017
159,3842.29,2.0807233577223996
160,3860.93,2.1951332251524183
161,3879.57,2.1393730925824372
162,3898.78,2.036312955958546
163,3917.43,1.9943128233174434
164,3936.07,1.9166226907474624
165,3954.71,1.9656125581774815
166,3973.36,1.9915824255363792
167,3992.56,1.878262288983609
168,4011.21,1.8611221563425067
169,4029.85,1.8442220237725255
170,4048.5,1.8275518911314232
171,4067.7,1.810611754578653
172,4086.35,1.7943916219375506
173,4104.99,1.7783914893675699
174,4123.64,1.7626013567264673
175,4142.28,1.7470212241564864
176,4161.49,1.7311910875325949
177,4180.13,1.716020954962614
178,4198.77,1.701070822392633
179,4217.42,1.6863006897515307
180,4236.63,1.6712805531276391
181,4255.27,1.6569104205576581
182,4273.91,1.6427102879876772
183,4292.56,1.6287001553465748
184,4311.77,1.6144600187226832
185,4330.41,1.6008098861527023
186,4349.05,1.5873297535827213
187,4365.15832,1.5758422043802913
188,4367.7,1.574029649357905
189,4386.34,1.5608897251853509
190,4405.55,1.5475198033315543
191,4424.19,1.5347098791590001
192,4442.84,1.522069955027126
193,4461.48,1.5095700308545719
194,4480.69,1.4968701090007757
195,4499.33,1.4846901848282212
196,4517.98,1.4726502606963472
197,4536.62,1.460770336523793
198,4555.83,1.4486804146699965
199,4574.47,1.4370804904974426
200,4593.12,1.4256305663655682
201,4611.76,1.4143006421930142
202,4630.4,1.40312071802046
203,4649.61,1.3917307961666636
204,4668.26,1.3808208720347892
205,4686.9,1.3700309478622352
206,4705.54,1.359371023689681
207,4724.75,1.3485111018358846
208,4743.4,1.3381111777040104
209,4762.04,1.3278212535314562
210,4780.68,1.317651329358902
211,4799.33,1.3075914052270279
212,4818.53,1.2973514833325515
213,4837.18,1.2875415592006774
214,4855.82,1.277821635028123
215,4874.47,1.2682317108962489
216,4893.67,1.2584417890017725
217,4912.32,1.2490718648698984
218,4930.96,1.239791940697344
219,4949.6,1.23061201652479
220,4968.81,1.2212720946709936
221,4987.46,1.2123021705391195
222,5006.1,1.2034422463665653
223,5011.87234,1.2007233242904818
224,5024.74,1.194662332712805
225,5043.39,1.1859924238265547
226,5062.6,1.1771525176761595
227,5081.24,1.1686726087410544
228,5099.88,1.1602826998059494
229,5118.53,1.1519727909196988
230,5137.74,1.143512884769304
231,5156.38,1.135392975834199
232,5175.02,1.127363066899094
233,5193.67,1.1194131580128435
234,5212.31,1.1115432490777384
235,5231.52,1.1035333429273435
236,5250.16,1.0958334339922384
237,5268.81,1.0882135251059881
238,5287.45,1.080673616170883
239,5306.66,1.0729937100204878
240,5325.3,1.0656138010853828
241,5343.95,1.0583038921991323
242,5362.59,1.0510839832640275
243,5381.8,1.0437140771136324
244,5400.44,1.0366341681785272
245,5419.09,1.0296242592922769
246,5437.73,1.0226943503571722
247,5456.37,1.015824441422067
248,5475.58,1.0088245352716718
249,5494.23,1.0021046263854214
250,5512.87,0.9954457174503165
251,5531.51,0.9888558085152115
252,5550.72,0.9821309023648164
253,5569.37,0.9756739934785659
254,5588.01,0.969278084543461
255,5606.65,0.962948175608356
256,5625.3,0.9566782667221055
257,5644.5,0.9502813605228558
258,5663.15,0.9441314516366054
259,5681.79,0.9380475427015005
260,5700.44,0.9320156338152501
261,5719.64,0.9258737276160003
262,5738.29,0.9199618187297499
263,5754.399369999999,0.9149043849184888
264,5756.93,0.9141099289201836
265,5775.58,0.9083091609835372
266,5794.78,0.902397399890582
267,5813.43,0.8967096319539355
268,5832.07,0.8910808638928582
269,5850.71,0.8854970958317809
270,5869.36,0.8799723278951345
271,5888.57,0.8743365669266101
272,5907.21,0.8689167988655329
273,5925.85,0.8635420308044556
274,5944.5,0.8582182628678091
275,5963.71,0.8527915018992848
276,5982.35,0.8475657338382074
277,6000.99,0.8423989657771302
278,6019.64,0.8372701978404836
279,6038.28,0.8321924297794063
280,6057.49,0.827003668810882
281,6076.13,0.8220169007498048
282,6094.78,0.8170811328131582
283,6113.42,0.812183364752081
284,6132.63,0.8071886037835566
285,6151.27,0.8023798357224793
286,6169.92,0.7976170677858329
287,6188.56,0.7928982997247556
288,6207.77,0.7880745387562312
289,6226.41,0.783437770695154
290,6245.06,0.7788450027585074
291,6263.7,0.7742902346974302
292,6282.34,0.7697724666363529
293,6301.55,0.7651657056678286
294,6320.2,0.7607299377311821
295,6338.84,0.7563311696701048
296,6357.48,0.7519774016090276
297,6376.69,0.7475266406405032
298,6395.33,0.7432418725794259
299,6413.98,0.7389971046427795
300,6432.62,0.7347883365817022
301,6451.27,0.7306155686450556
302,6470.47,0.7263538075521005
303,6489.12,0.722254039615454
304,6507.76,0.7181882715543767
305,6526.41,0.7141565036177302
306,6545.61,0.7100397425247751
307,6564.26,0.7060759745881285
308,6582.9,0.7021472065270513
309,6601.54,0.698250438465974
310,6606.93448,0.6971328569485621
311,6620.75,0.6942705065791637
312,6639.4,0.6904395079146086
313,6658.04,0.6866405092493376
314,6676.68,0.6828725105840665
315,6695.33,0.6791365119195116
316,6714.54,0.6753195132950557
317,6733.18,0.6716455146297847
318,6751.82,0.6680005159645136
319,6770.47,0.6643855172999585
320,6789.68,0.6606925186755028
321,6808.32,0.6571365200102317
322,6826.96,0.6536105213449607
323,6845.61,0.6501125226804056
324,6864.25,0.6466425240151347
325,6883.46,0.6430965253906787
326,6902.1,0.6396825267254078
327,6920.75,0.6362965280608528
328,6939.39,0.6329375293955818
329,6958.6,0.6295045307711259
330,6977.24,0.6261985321058547
331,6995.89,0.6229185334412999
332,7014.53,0.6196655347760287
333,7033.74,0.616339536151573
334,7052.38,0.6131375374863018
335,7071.03,0.6099605388217468
336,7089.67,0.6068085401564758
337,7108.31,0.6036805414912049
338,7127.52,0.600483542866749
339,7146.17,0.5974045442021939
340,7164.81,0.5943505455369229
341,7183.45,0.5913185468716518
342,7202.66,0.588219548247196
343,7221.3,0.5852355495819249
344,7239.95,0.58227355091737
345,7258.59,0.5793345522520988
346,7277.24,0.5764175535875439
347,7296.44,0.5734345549623721
348,7315.09,0.5705625562978169
349,7333.73,0.567712557632546
350,7352.38,0.5648835589679909
351,7371.58,0.5619905603428191
352,7390.23,0.559203561678264
353,7408.87,0.5564385630129931
354,7427.51,0.5536945643477219
355,7446.72,0.5508875657232661
356,7465.37,0.5481845670587111
357,7484.01,0.5455005683934401
358,7502.65,0.5428365697281691
359,7521.3,0.540192571063614
360,7540.51,0.5374875724391582
361,7559.15,0.5348825737738871
362,7577.79,0.5322965751086162
363,7585.77575,0.5311969828654274
364,7596.44,0.5297286296717922
365,7615.65,0.5271027269288767
366,7634.29,0.5245728213001444
367,7652.93,0.5220619156714122
368,7671.58,0.5195680100933082
369,7690.22,0.517092104464576
370,7709.43,0.5145602017216604
371,7728.07,0.5121212960929281
372,7746.72,0.5096983905148242
373,7765.36,0.5072934848860919
374,7784.57,0.5048335821431764
375,7803.21,0.5024626765144441
376,7821.86,0.5001097709363402
377,7840.5,0.4977718653076079
378,7859.71,0.4953809625646924
379,7878.35,0.49307805693596013
380,7897.0,0.4907901513578562
381,7915.64,0.48851824572912395
382,7934.28,0.4862623401003917
383,7953.49,0.48395443735747606
384,7972.13,0.48172953172874383
385,7990.78,0.4795206261506399
386,8000.0,0.47843367282999016
387,8167.98,0.4592675232852238
388,8339.48,0.44106539156164104
389,8514.59,0.42355827811489716
390,8693.37,0.4067181832487623
391,8709.6359,0.4052750713281762
392,8875.9,0.3905256763617567
393,9062.27,0.3749543786504846
394,9252.55,0.35997913763261224
395,9446.83,0.3455809546131029
396,9645.19,0.33173983075192387
397,9847.71,0.31843076720904234
398,10000.0,0.3090093918128616
399,10054.5,0.305637767669491
400,10265.6,0.293339836628794
401,10481.1,0.2821389695550364
402,10701.2,0.2742741693558065
403,10925.9,0.2669184360311043
404,11155.3,0.26004577103472387
405,11389.6,0.2536271772742533
406,11481.5362,0.25132453345083716
407,11628.7,0.24764062390740496
408,11872.9,0.24206044405694555
409,12122.2,0.23686640664204167
410,12376.7,0.23203651445554735
411,12636.6,0.2275547730831706
412,12901.9,0.22340418252491145
413,13172.8,0.219569748366478
414,13182.5674,0.21944501538563743
415,13449.4,0.2160410262056093
416,13731.8,0.21280267330605238
417,14020.1,0.2098415637418092
418,14314.5,0.20631270576153452
419,14615.1,0.20278610348955572
420,14922.0,0.1994107610502001
421,15135.6125,0.197209128342499
422,15235.3,0.19618475869165408
423,15555.2,0.19310582378310517
424,15881.8,0.19016337195086988
425,16215.3,0.18735141761513663
426,16555.7,0.1846679607759055
427,16903.3,0.1821060230634591
428,17258.3,0.17966261889798596
429,17378.0083,0.17889312950861608
430,17620.6,0.17734919513621558
431,17990.6,0.17515444297275803
432,18368.4,0.17306675008801678
433,18754.1,0.17108613006248818
434,19147.8,0.1690905964766686
435,19549.9,0.16701620365254352
436,19952.6231,0.16504795992547056
437,19960.4,0.1650108865970743
438,20379.5,0.16312019032621436
439,20807.4,0.16129374715202927
440,21244.3,0.15953060828126164
441,21690.4,0.15782982492065412
442,22145.8,0.15618842267357796
443,22610.8,0.15460547835014712
444,22908.6765,0.1536478347680484
445,23085.6,0.15311453289478377
446,23570.3,0.15174286019695232
447,24065.2,0.15042684509863014
448,24570.5,0.14916657892529772
449,25086.4,0.14796015300243565
450,25613.2,0.14680770431826481
451,26151.0,0.14570827853552548
452,26302.679900000003,0.14519717282502312
453,26700.1,0.1439274553615015
454,27260.7,0.14171239644448333
455,27833.1,0.1394397875895044
456,28417.5,0.1371177550688026
457,29014.2,0.13474948829073496
458,29623.4,0.13234311352753936
459,30199.5172,0.13008283223139752
460,30245.4,0.1299069366086829
461,30880.5,0.12749589272948528
462,31528.9,0.1250634391768609
463,32190.9,0.1227677922739656
464,32866.8,0.12060416834395511
465,33556.9,0.11856678370998523
466,34261.5,0.11665085469521175
467,34673.685,0.1156199584255482
468,34980.9,0.11484355724749132
469,35715.4,0.11313696523970168
470,36465.3,0.11153907477456695
471,37231.0,0.11004546381423404
472,38012.7,0.10865217133977635
473,38810.9,0.10735574480387752
474,39625.8,0.10615302318761097
475,39810.7171,0.10590597689035247
476,40457.8,0.10493853358300177
477,41307.3,0.10377940026773601
478,42174.7,0.10270285786907617
479,43060.2,0.10170611354810166
480,43964.4,0.10078678878805067
481,44887.5,0.0999426907500026
482,45708.818999999996,0.0992707311910143
483,45830.0,0.09914907002275902
484,46792.3,0.09827036525463284
485,47774.8,0.09745703028146027
486,48777.9,0.09670740509918095
487,49802.1,0.09553626470271953
488,50847.8,0.09437634908801565
489,51915.5,0.0932475332499939
490,52480.746,0.09267846256284314
491,53005.6,0.0920328229250643
492,54118.5,0.09071794319849008
493,55254.9,0.08942873914486535
494,56415.1,0.08816534875150439
495,57599.6,0.08692763533059758
496,58809.1,0.08571498751921153
497,60043.9,0.08452764330466048
498,60255.9586,0.08433215904418404
499,61304.6,0.08322884338113008
500,62591.8,0.08192381543097267
501,63906.1,0.08063988794115612
502,65247.9,0.07937695944246034
503,66617.9,0.07813482736375024
504,67000.0,0.07780112145348281
505,68016.7,0.07686984674775607
506,69242.2916,0.07578659335363876
507,69444.9,0.07558529792517041
508,70903.0,0.07418198988762995
509,71559.6261,0.07356977863873905
510,72391.8,0.0727110349601629
511,73911.8,0.07118622775163821
512,73954.515,0.07114531040904477
513,75463.8,0.06917775918273714
514,76429.5536,0.06794822814889072
515,77048.3,0.0669157843372683
516,78666.1,0.06425918765974355
517,78987.42450000001,0.06373974471961687
518,80317.8,0.06145279953074858
519,81630.8998,0.059227606900622634
520,82004.3,0.05862704106105321
521,83726.1,0.055898267689653676
522,84362.84430000001,0.0549035478963379
523,85484.1,0.05365215498001065
524,87186.21900000001,0.051789390166990995
525,87279.1,0.0517095032492634
526,89111.7,0.0501716214687526
527,90104.0836,0.04935872510567313
528,90982.8,0.048719546833491036
529,92893.1,0.0473669698907231
530,93119.6005,0.047210776096690416
531,94843.6,0.046449495818226195
532,96236.03790000001,0.04585937798587842
533,96835.1,0.04568172898026666
534,98868.3,0.04511356725713866
535,99456.7731,0.044958845060279584
536,100944.0,0.044664181441252115
537,102785.297,0.044328292824876554
538,103064.0,0.04427358797945353
539,105228.0,0.04388172485207906
540,106225.216,0.04371567891833457
541,107437.0,0.04356783226343941
542,109693.0,0.04332422392067313
543,109780.26,0.043315971456156746
544,111996.0,0.04310152613297392
545,113454.28,0.042979362362169635
546,114348.0,0.04290025970468725
547,116749.0,0.042734111037190464
548,117251.259,0.04270829108030136
549,119200.0,0.042612044424762116
550,121175.312,0.0425376617439585
551,121703.0,0.042497437149215514
552,124259.0,0.04233131858665335
553,125230.691,0.042278604267908006
554,126868.0,0.04214252983336093
555,129421.79100000001,0.041956493645637354
556,129532.0,0.041942209064678895
557,132252.0,0.04161646288111091
558,133753.155,0.041450718367401156
559,135028.0,0.041247556354131534
560,137864.0,0.04082107754665695
561,138229.477,0.04076926517981337
562,140758.0,0.040320960932328426
563,142855.609,0.03996623242234987
564,143714.0,0.03977632279480754
565,146731.0,0.03913255510571517
566,147636.563,0.03894613429511015
567,149812.0,0.0385057896863389
568,152577.522,0.03796591517966513
569,152958.0,0.037889912878298876
570,156170.0,0.037270448058970916
571,157683.84,0.03698839182975673
572,159449.0,0.03667266985826607
573,162797.0,0.03609504519995489
574,162961.05099999998,0.036067726403045425
575,166215.0,0.03550518286532767
576,168414.875,0.035137518093213034
577,169705.0,0.03495011063205644
578,173268.0,0.03445232468890613
579,174051.222,0.03433940517739977
580,176907.0,0.03393629535971314
581,179876.201,0.03349452415499454
582,180621.0,0.033375583027086105
583,184414.0,0.032785948276126964
584,185896.125,0.03256173092861008
585,188286.0,0.032248594740156
586,192117.51799999998,0.0317621560806218
587,192239.0,0.03174523604677889
588,196276.0,0.03119909333609717
589,198547.123,0.030900826768027613
590,200397.0,0.030660207637690166
591,204605.0,0.030128976070402026
592,205191.907,0.030057095704609942
593,208901.0,0.02954117540982458
594,212059.073,0.029113552937636712
595,213287.0,0.028949903746108847
596,217766.0,0.028369145542305275
597,219156.062,0.028193812210763256
598,222338.0,0.02779507202666432
599,226490.56699999998,0.02728884618748173
600,227006.0,0.0272162144387028
601,231773.0,0.026560540298369746
602,234070.535,0.02625072647626841
603,236639.0,0.02591291826378697
604,241608.0,0.02526570870261049
605,241904.18300000002,0.02522802300338515
606,246681.0,0.024601016871410322
607,250000.0,0.024175052167741906
608,251861.0,0.023934355420327853
609,257149.0,0.023265609879726513
610,262549.0,0.02259799801905192
611,268061.0,0.02193171983830408
612,273690.0,0.02126654023390829
613,275422.87,0.02106631850346589
614,279437.0,0.02061226156398071
615,285304.0,0.019963840594242086
616,291295.0,0.019316690222722723
617,297411.0,0.018671065857472777
618,303656.0,0.01802668913069287
619,310032.0,0.017383670858483313
620,316227.766,0.016772804881487052
621,316541.0,0.016744279801026687
622,323188.0,0.016153513997576203
623,329974.0,0.015565796268944497
624,336902.0,0.014982535422501749
625,343976.0,0.014401203201408218
626,351199.0,0.01382172841303409
627,358573.0,0.01324403692895949
628,363078.055,0.012899287767642749
629,366102.0,0.012697620146815384
630,373789.0,0.012198467063009616
631,381638.0,0.011702102801946588
632,389651.0,0.011208442904647821
