,lambda (Angstroms),Total Flux (erg/s/cm^2/Angstrom)
0,1017.9,22.14581920629653
1,1038.0,24.723793012535126
2,1058.1,20.481766818773714
3,1078.5,19.43987605495617
4,1096.4782,18.325919776514308
5,1098.6,18.198506555776003
6,1118.7,18.48990979036927
7,1138.8,18.109713024962545
8,1158.9,18.14271625955581
9,1179.3,20.291628497650475
10,1199.4,27.093031732243745
11,1219.5,44.847934966837016
12,1239.6,26.952538201430283
13,1258.92541,19.93039880012884
14,1259.7,19.650862208083055
15,1280.1,16.99346088547316
16,1300.2,16.818106641136936
17,1326.52,15.76535630725985
18,1345.73,15.560731728468863
19,1364.38,15.052935029122068
20,1383.02,15.377389899051064
21,1401.66,16.689924768980056
22,1420.87,14.747700190189072
23,1439.52,13.999473490842277
24,1445.43977,13.90534624827573
25,1458.16,13.726739331614745
26,1476.8,13.557021915792799
27,1495.45,13.716781523889406
28,1514.65,14.022617447506285
29,1533.3,15.94328705560289
30,1551.94,19.485179639780945
31,1570.59,14.141859247877548
32,1589.79,12.831595171494428
33,1608.44,12.548654779591033
34,1627.08,12.368267363769089
35,1645.73,12.167946971865693
36,1659.58691,11.988626799039658
37,1664.37,11.932888408185079
38,1683.58,11.268976735910925
39,1702.22,10.993710750945269
40,1720.86,10.983334765979617
41,1739.51,10.88497868123662
42,1758.72,10.675357008962465
43,1777.36,10.446461023996811
44,1796.0,10.306635039031157
45,1814.65,10.168928954288159
46,1833.86,10.028857282014005
47,1852.5,10.203081297048353
48,1871.14,10.198095312082696
49,1889.79,10.773899227339701
50,1905.46072,11.51519323369587
51,1908.43,11.65804118259771
52,1927.64,10.113498485057024
53,1946.28,9.369093072138835
54,1964.93,8.983515601595691
55,1983.57,8.791020188677505
56,2002.78,8.747577491136818
57,2021.42,8.540002078218631
58,2040.07,8.439834607675486
59,2058.71,8.439549194757298
60,2077.35,8.44312378183911
61,2096.56,8.230891084298424
62,2115.21,8.028763613755281
63,2133.85,7.853308200837093
64,2152.49,7.708012787918904
65,2171.7,7.6455600903782175
66,2187.7616199999998,7.518490310012258
67,2190.35,7.499859317647067
68,2208.99,7.409732743081642
69,2227.63,7.415986168516218
70,2246.84,7.252868979814405
71,2265.49,7.252417482193957
72,2284.13,7.282580907628533
73,2302.77,7.3319243330631085
74,2321.42,7.406562835442661
75,2340.62,7.2786505697958725
76,2359.27,7.174679072175424
77,2377.91,7.082692497610001
78,2396.56,7.046740999989552
79,2415.76,7.080878734342764
80,2434.41,7.064657236722317
81,2453.05,6.927170662156891
82,2471.7,6.920089164536444
83,2490.34,6.82841258997102
84,2509.55,6.746265401269207
85,2511.88643,6.736273330651617
86,2528.19,6.6727508888636535
87,2546.83,6.577025180817647
88,2565.48,6.467698353829556
89,2584.69,6.394618866084718
90,2603.33,6.335323158038712
91,2621.97,6.260457449992707
92,2640.62,6.092410623004615
93,2659.83,5.963971135259777
94,2678.47,5.950335427213771
95,2697.11,5.9726397191677645
96,2715.76,6.031312892179673
97,2734.4,6.145597184133667
98,2753.61,6.293407696388829
99,2772.25,6.493091988342822
100,2790.9,7.440605161354732
101,2809.54,7.128059453308725
102,2828.75,6.3481799655638875
103,2847.39,6.003634257517881
104,2866.04,5.75949743052979
105,2884.0315,5.594817574772829
106,2884.68,5.589093541902292
107,2903.32,5.45202621313306
108,2922.53,5.426191283645025
109,2941.18,5.454216102231603
110,2959.82,5.38757877346237
111,2978.46,5.299451444693138
112,2997.67,5.137496515205104
113,3016.32,4.960441333791682
114,3034.96,4.913364005022449
115,3053.6,4.851206676253216
116,3072.81,4.848801746765182
117,3091.46,4.78256656535176
118,3110.1,4.813619236582528
119,3128.74,4.873211907813295
120,3147.39,4.787916726399873
121,3166.59,4.792009649556028
122,3185.24,4.8440044681426055
123,3203.88,4.774397139373374
124,3222.53,4.692691957959951
125,3241.73,4.609794881116107
126,3260.38,4.590129699702684
127,3279.02,4.544142370933452
128,3297.67,4.46949718952003
129,3311.31121,4.3992732585768906
130,3316.31,4.374684824029165
131,3335.52,4.354269908259942
132,3354.16,4.297852035800894
133,3372.8,4.242804163341845
134,3391.45,4.21283072871946
135,3410.66,4.220905812950238
136,3429.3,4.305967940491189
137,3447.94,4.115970068032141
138,3466.59,4.075686633409756
139,3485.8,4.054191717640532
140,3504.44,3.9906838451814837
141,3523.08,3.8962459727224354
142,3541.73,3.8214925381000504
143,3560.37,3.787974665641002
144,3579.58,3.781499749871779
145,3598.22,3.7584618774127305
146,3616.87,3.7061584427903456
147,3635.51,3.6899305703312972
148,3654.72,3.651325654562074
149,3673.36,3.5924377821030253
150,3692.01,3.56186434748064
151,3710.65,3.551266475021592
152,3729.29,3.9412886025625435
153,3748.5,3.4574836867933203
154,3767.15,3.4222902521709355
155,3785.79,3.351122379711887
156,3801.8939600000003,3.2791920445313263
157,3804.43,3.268273619465549
158,3823.64,3.266597647563998
159,3842.29,3.246142817997942
160,3860.93,3.353191937402163
161,3879.57,3.290071056806384
162,3898.78,3.1794250849048327
163,3917.43,3.130060255338777
164,3936.07,3.045009374742998
165,3954.71,3.086638494147219
166,3973.36,3.105243664581163
167,3992.56,2.9843416416498885
168,4011.21,2.959836812083833
169,4029.85,2.935575931488054
170,4048.5,2.911541101921998
171,4067.7,2.8870190789907237
172,4086.35,2.8634342494246674
173,4104.99,2.8400733688288886
174,4123.64,2.816918539262833
175,4142.28,2.793977658667054
176,4161.49,2.770561686765503
177,4180.13,2.748030806169724
178,4198.77,2.7257199255739444
179,4217.42,2.703585096007889
180,4236.63,2.6809791241063374
181,4255.27,2.659248243510558
182,4273.91,2.6376873629147797
183,4292.56,2.6163125333487236
184,4311.77,2.594486561447172
185,4330.41,2.573475680851394
186,4349.05,2.5526348002556145
187,4365.15832,2.5347862379287793
188,4367.7,2.5322664782919797
189,4386.34,2.513940104994179
190,4405.55,2.495225135517207
191,4424.19,2.477228762219406
192,4442.84,2.459399606532497
193,4461.48,2.4417132332346965
194,4480.69,2.4236682637577247
195,4499.33,2.4063018904599236
196,4517.98,2.3890727347730145
197,4536.62,2.372006361475214
198,4555.83,2.354571391998242
199,4574.47,2.337785018700441
200,4593.12,2.3211458630135318
201,4611.76,2.304629489715731
202,4630.4,2.28826311641793
203,4649.61,2.2715281469409585
204,4668.26,2.255428991254049
205,4686.9,2.2394526179562484
206,4705.54,2.2236062446584475
207,4724.75,2.2074012751814758
208,4743.4,2.191812119494567
209,4762.04,2.1763357461967656
210,4780.68,2.1609793728989644
211,4799.33,2.1457302172120554
212,4818.53,2.130148030124192
213,4837.18,2.115148874437283
214,4855.82,2.100242501139482
215,4874.47,2.085463345452573
216,4893.67,2.0703311583647093
217,4912.32,2.0557720026778004
218,4930.96,2.041305629379999
219,4949.6,2.0269392560821986
220,4968.81,2.0122542866052266
221,4987.46,1.9980951309183175
222,5006.1,1.9840487576205166
223,5011.87234,1.9797237224680584
224,5024.74,1.971131901292094
225,5043.39,1.9587938839845718
226,5062.6,1.946175727819558
227,5081.24,1.9340296772773482
228,5099.88,1.921973626735138
229,5118.53,1.9099956094276156
230,5137.74,1.897757453262602
231,5156.38,1.8859714027203922
232,5175.02,1.874275352178182
233,5193.67,1.8626573348706597
234,5212.31,1.8511212843284497
235,5231.52,1.8393331281634362
236,5250.16,1.8279670776212265
237,5268.81,1.816679060313704
238,5287.45,1.805473009771494
239,5306.66,1.7940148536064804
240,5325.3,1.78296880306427
241,5343.95,1.7719907857567478
242,5362.59,1.7611047352145381
243,5381.8,1.7499565790495244
244,5400.44,1.7392105285073143
245,5419.09,1.728532511199792
246,5437.73,1.7179364606575822
247,5456.37,1.7074004101153721
248,5475.58,1.6966222539503586
249,5494.23,1.6862342366428362
250,5512.87,1.6759091861006263
251,5531.51,1.6656531355584163
252,5550.72,1.6551499793934026
253,5569.37,1.6450249620858803
254,5588.01,1.6349629115436701
255,5606.65,1.6249668610014605
256,5625.3,1.615028843693938
257,5644.5,1.6048556542942367
258,5663.15,1.5950376369867145
259,5681.79,1.5852875864445046
260,5700.44,1.575587569136982
261,5719.64,1.565669379737281
262,5738.29,1.5560893624297585
263,5754.399369999999,1.5478635149049111
264,5756.93,1.5467159502274952
265,5775.58,1.5383128750134465
266,5794.78,1.5297220629968384
267,5813.43,1.5214319877827895
268,5832.07,1.5132023077833328
269,5850.71,1.5050176277838756
270,5869.36,1.4968905525698268
271,5888.57,1.4885743453386269
272,5907.21,1.48055366533917
273,5925.85,1.4725779853397127
274,5944.5,1.464651910125664
275,5963.71,1.456544702894464
276,5982.35,1.448718022895007
277,6000.99,1.4409503428955501
278,6019.64,1.4332192676815012
279,6038.28,1.4255405876820442
280,6057.49,1.4176713804508443
281,6076.13,1.4100837004513873
282,6094.78,1.4025456252373385
283,6113.42,1.3950469452378815
284,6132.63,1.3873717380066817
285,6151.27,1.3799620580072247
286,6169.92,1.3725969827931757
287,6188.56,1.3652773027937186
288,6207.77,1.3577730955625187
289,6226.41,1.350535415563062
290,6245.06,1.343340340349013
291,6263.7,1.3361846603495562
292,6282.34,1.3290659803500993
293,6301.55,1.3217787731188992
294,6320.2,1.3147406979048504
295,6338.84,1.3077410179053932
296,6357.48,1.3007863379059366
297,6376.69,1.2936551306747366
298,6395.33,1.2867694506752794
299,6413.98,1.2799223754612306
300,6432.62,1.2731126954617737
301,6451.27,1.2663376202477248
302,6470.47,1.2593968082311169
303,6489.12,1.252694733017068
304,6507.76,1.2460280530176107
305,6526.41,1.2393939778035619
306,6545.61,1.2325981657869538
307,6564.26,1.226032090572905
308,6582.9,1.2195024105734482
309,6601.54,1.2130047305739913
310,6606.93448,1.2111344362114425
311,6620.75,1.2069286595566373
312,6639.4,1.201284127979616
313,6658.04,1.1956725688055854
314,6676.68,1.1900920096315546
315,6695.33,1.1845424780545333
316,6714.54,1.178857491910052
317,6733.18,1.1733709327360213
318,6751.82,1.1679133735619907
319,6770.47,1.1624848419849694
320,6789.68,1.1569238558404882
321,6808.32,1.1515552966664573
322,6826.96,1.1462167374924266
323,6845.61,1.1409052059154055
324,6864.25,1.1356226467413746
325,6883.46,1.1302086605968933
326,6902.1,1.1249821014228625
327,6920.75,1.1197825698458415
328,6939.39,1.1146110106718106
329,6958.6,1.1093100245273293
330,6977.24,1.1041914653532985
331,6995.89,1.0990979337762772
332,7014.53,1.0940323746022464
333,7033.74,1.0888383884577653
334,7052.38,1.0838238292837343
335,7071.03,1.0788332977067134
336,7089.67,1.0738687385326826
337,7108.31,1.0689281793586516
338,7127.52,1.0638631932141704
339,7146.17,1.0589706616371493
340,7164.81,1.0541041024631184
341,7183.45,1.0492595432890877
342,7202.66,1.0442925571446064
343,7221.3,1.0394959979705756
344,7239.95,1.0347204663935545
345,7258.59,1.0299689072195235
346,7277.24,1.0252383756425025
347,7296.44,1.0203883619010117
348,7315.09,1.0157028303239903
349,7333.73,1.0110402711499598
350,7352.38,1.0063977395729384
351,7371.58,1.0016377258314475
352,7390.23,0.9970371942544263
353,7408.87,0.9924596350803956
354,7427.51,0.9879030759063646
355,7446.72,0.9832280897618835
356,7465.37,0.9787115581848622
357,7484.01,0.9742149990108315
358,7502.65,0.9697384398368007
359,7521.3,0.9652809082597795
360,7540.51,0.9607079221152981
361,7559.15,0.9562903629412676
362,7577.79,0.9518918037672366
363,7585.77575,0.9500156742341967
364,7596.44,0.9478280860595916
365,7615.65,0.9439065925358489
366,7634.29,0.9401195389552885
367,7652.93,0.9363514853747282
368,7671.58,0.9325997574091998
369,7690.22,0.9288667038286395
370,7709.43,0.9250392103048969
371,7728.07,0.9213431567243365
372,7746.72,0.9176624287588082
373,7765.36,0.914000375178248
374,7784.57,0.9102448816545052
375,7803.21,0.9066168280739448
376,7821.86,0.9030061001084164
377,7840.5,0.8994110465278562
378,7859.71,0.8957245530041134
379,7878.35,0.8921644994235531
380,7897.0,0.8886187714580247
381,7915.64,0.8850897178774644
382,7934.28,0.8815766642969042
383,7953.49,0.8779731707731615
384,7972.13,0.8744911171926011
385,7990.78,0.8710243892270728
386,8000.0,0.8693156062864738
387,8167.98,0.8388202875921325
388,8339.48,0.809051585389016
389,8514.59,0.7797344302124112
390,8693.37,0.7508367757525092
391,8709.6359,0.748296633635054
392,8875.9,0.7261685875451158
393,9062.27,0.7023263569632467
394,9252.55,0.6789066607937021
395,9446.83,0.6558865062224432
396,9645.19,0.6332423440814359
397,9847.71,0.6109456252026457
398,10000.0,0.5947657566645259
399,10054.5,0.5899131711742357
400,10265.6,0.5718788926044611
401,10481.1,0.5548221141497647
402,10701.2,0.5409764039971954
403,10925.9,0.5275147621467533
404,11155.3,0.5144084726919627
405,11389.6,0.5016231038198727
406,11481.5362,0.4968222222242975
407,11628.7,0.4910507396272706
408,11872.9,0.4820064922568923
409,12122.2,0.4732760419316044
410,12376.7,0.4648359729071929
411,12636.6,0.4566674536952302
412,12901.9,0.448753484295716
413,13172.8,0.4410762332202227
414,13182.5674,0.4408129460498077
415,13449.4,0.4361020007904722
416,13731.8,0.43148044210273034
417,14020.1,0.42710722832909015
418,14314.5,0.42213638811070775
419,14615.1,0.417137435768161
420,14922.0,0.4122588856220279
421,15135.6125,0.4090109708802311
422,15235.3,0.40794224351035263
423,15555.2,0.40472096342995356
424,15881.8,0.4016331851421814
425,16215.3,0.3986728340736816
426,16555.7,0.39583791022445425
427,16903.3,0.3931213017344676
428,17258.3,0.39051993403036733
429,17378.0083,0.3896971783123467
430,17620.6,0.3883725778891594
431,17990.6,0.38651235308673226
432,18368.4,0.38476623976144314
433,18754.1,0.3831343419065887
434,19147.8,0.3814947635154655
435,19549.9,0.37978392056126026
436,19952.6231,0.3781797900662656
437,19960.4,0.3781376899474342
438,20379.5,0.3759760980920358
439,20807.4,0.3738730712370491
440,21244.3,0.37182753131430146
441,21690.4,0.36983840025562054
442,22145.8,0.36790263902692
443,22610.8,0.3660191305259412
444,22908.6765,0.36486894714764173
445,23085.6,0.36398692780582254
446,23570.3,0.3616599079833389
447,24065.2,0.3593684414882963
448,24570.5,0.3571122254447622
449,25086.4,0.354888956976804
450,25613.2,0.35269818177052314
451,26151.0,0.35053874838795307
452,26302.679900000003,0.349728680522855
453,26700.1,0.34694362644982735
454,27260.7,0.3425910367353255
455,27833.1,0.33813590446172415
456,28417.5,0.33358559331446247
457,29014.2,0.3289421488216988
458,29623.4,0.32421293466887235
459,30199.5172,0.3197559565158627
460,30245.4,0.31937048256437933
461,30880.5,0.31405849984533213
462,31528.9,0.3086643571984573
463,32190.9,0.3033449006404204
464,32866.8,0.29809397618788697
465,33556.9,0.2929044298575225
466,34261.5,0.28777010766599265
467,34673.685,0.2848564787940564
468,34980.9,0.28263283326115424
469,35715.4,0.27746612056057995
470,36465.3,0.2723355622839827
471,37231.0,0.2672348520527645
472,38012.7,0.2621590866776264
473,38810.9,0.25710245818532085
474,39625.8,0.2520608633865489
475,39810.7171,0.25094270002440305
476,40457.8,0.24722089391762847
477,41307.3,0.24244579238853628
478,42174.7,0.23767708892022016
479,43060.2,0.23291113935693455
480,43964.4,0.22814301123144293
481,44887.5,0.22336966038799977
482,45708.818999999996,0.2192016874123997
483,45830.0,0.21861597292390994
484,46792.3,0.2140522143102003
485,47774.8,0.20947647114489876
486,48777.9,0.20488555165470643
487,49802.1,0.19979231612299975
488,50847.8,0.1946279727764798
489,51915.5,0.1894104818985231
490,52480.746,0.18667684512387298
491,53005.6,0.18442884382202618
492,54118.5,0.1797163177100929
493,55254.9,0.17495772255904515
494,56415.1,0.17015228046625608
495,57599.6,0.16529832826068053
496,58809.1,0.16039311750285568
497,60043.9,0.15543597029015438
498,60255.9586,0.15459307823403207
499,61304.6,0.1512868286812168
500,62591.8,0.14727771475571952
501,63906.1,0.14323277095345022
502,65247.9,0.13915105550501
503,66617.9,0.1350308953139509
504,67000.0,0.1338944926578962
505,68016.7,0.13127447228001346
506,69242.2916,0.1281555028336381
507,69444.9,0.12768130422270133
508,70903.0,0.12431400984324595
509,71559.6261,0.1228173567233278
510,72391.8,0.12143633371405751
511,73911.8,0.11895756173608368
512,73954.515,0.11888983610064352
513,75463.8,0.11773568057069246
514,76429.5536,0.11702662103293913
515,77048.3,0.11725676694132026
516,78666.1,0.11790138971173364
517,78987.42450000001,0.11803762898726958
518,80317.8,0.11931074433457006
519,81630.8998,0.12059938278298632
520,82004.3,0.12105058017615355
521,83726.1,0.12317163263271545
522,84362.84430000001,0.12397044225741989
523,85484.1,0.12412100141276036
524,87186.21900000001,0.12438646592180791
525,87279.1,0.1243728675534082
526,89111.7,0.12414290015256928
527,90104.0836,0.12403826133646709
528,90982.8,0.12365382544381476
529,92893.1,0.12285504989546231
530,93119.6005,0.12276451923954185
531,94843.6,0.1198443466294773
532,96236.03790000001,0.11751053716349523
533,96835.1,0.11623950185365314
534,98868.3,0.11196041761721456
535,99456.7731,0.1107316357728699
536,100944.0,0.10794821780226936
537,102785.297,0.10453106705885154
538,103064.0,0.10397104717895483
539,105228.0,0.09965564632647131
540,106225.216,0.09768155298233758
541,107437.0,0.09571366002757094
542,109693.0,0.0920816388550346
543,109780.26,0.09194232570633129
544,111996.0,0.08856975331762468
545,113454.28,0.08636908144699282
546,114348.0,0.08514194627309389
547,116749.0,0.08189158099198648
548,117251.259,0.08122058171309177
549,119200.0,0.07894954900727044
550,121175.312,0.07667072716161381
551,121703.0,0.07613891410844875
552,124259.0,0.07359165347002578
553,125230.691,0.07263372227927914
554,126868.0,0.07107748993607232
555,129421.79100000001,0.06867636393591009
556,129532.0,0.06858874272449977
557,132252.0,0.06645302063307412
558,133753.155,0.06528835906643786
559,135028.0,0.06451231849713263
560,137864.0,0.06281142312535651
561,138229.477,0.06259537594092787
562,140758.0,0.06129005132073663
563,142855.609,0.060224356904190465
564,143714.0,0.05999674313064458
565,146731.0,0.05922045610188912
566,147636.563,0.05899425915247623
567,149812.0,0.05848860808014006
568,152577.522,0.05786571280029244
569,152958.0,0.05778934736860751
570,156170.0,0.05716681699862066
571,157683.84,0.05688331595209345
572,159449.0,0.05652469712275067
573,162797.0,0.055865709483129675
574,162961.05099999998,0.05583440392443799
575,166215.0,0.05512127368272528
576,168414.875,0.05465180278966317
577,169705.0,0.054381357610324824
578,173268.0,0.05365424242397591
579,174051.222,0.05349091154325358
580,176907.0,0.05272397188466946
581,179876.201,0.051903920600959184
582,180621.0,0.051697769718539524
583,184414.0,0.05066400628472627
584,185896.125,0.05026624445419457
585,188286.0,0.04954845659114577
586,192117.51799999998,0.04841326844683107
587,192239.0,0.048374944603409686
588,196276.0,0.04711752631882995
589,198547.123,0.04641911253371357
590,200397.0,0.045834332966895194
591,204605.0,0.04452022388033862
592,205191.907,0.044339152379517716
593,208901.0,0.043299889277905665
594,212059.073,0.04242667140328826
595,213287.0,0.042077044821694026
596,217766.0,0.04081791344903981
597,219156.062,0.040432046345709696
598,222338.0,0.039614149481460685
599,226490.56699999998,0.038560906007798504
600,227006.0,0.03843288699657231
601,231773.0,0.03726496183605608
602,234070.535,0.03670826010800623
603,236639.0,0.0360991839064861
604,241608.0,0.0349271742652878
605,241904.18300000002,0.03485820724947942
606,246681.0,0.03379540831835927
607,250000.0,0.033066648615350636
608,251861.0,0.032681878269748076
609,257149.0,0.03160375003853909
610,262549.0,0.030518084749483018
611,268061.0,0.029425082402579853
612,273690.0,0.02832412080774714
613,275422.87,0.027989744957964115
614,279437.0,0.027319487572875098
615,285304.0,0.026355070854529004
616,291295.0,0.02538524611281919
617,297411.0,0.02441021489594434
618,303656.0,0.023429483396699178
619,310032.0,0.02244305471148106
620,316227.766,0.021498485697947094
621,316541.0,0.02145893258047566
622,323188.0,0.02063414568732059
623,329974.0,0.019807513092623685
624,336902.0,0.018980337982682605
625,343976.0,0.018149951272560895
626,351199.0,0.01731617614855622
627,358573.0,0.016478868068200342
628,363078.055,0.01597550932657984
629,366102.0,0.01570527823229621
630,373789.0,0.015031833810368128
631,381638.0,0.014357505101156012
632,389651.0,0.013682162298644015
633,397832.0,0.013005525790800429
634,406186.0,0.012327216062585624
