,lambda (Angstroms),Total Flux (erg/s/cm^2/Angstrom)
0,1005.0,0.04962603439412342
1,1015.0,0.05007589767879053
2,1025.0,0.03974086096345765
3,1035.0,0.045116924248124766
4,1045.0,0.053088087532791886
5,1055.0,0.051020350817459
6,1065.0,0.04564281410212612
7,1075.0,0.04752227738679324
8,1085.0,0.04282834067146035
9,1095.0,0.04710100395612747
10,1096.4782,0.04679305990486696
11,1105.0,0.045016248611564696
12,1115.0,0.04394142984404814
13,1125.0,0.03997611107653158
14,1135.0,0.043873992309015016
15,1145.0,0.04197557354149846
16,1155.0,0.0414756547739819
17,1165.0,0.040680436006465336
18,1175.0,0.031851117238948776
19,1185.0,0.03845299847143222
20,1195.0,0.03450327970391566
21,1205.0,0.030786560936399098
22,1215.0,0.02640164216888254
23,1225.0,0.03326772340136598
24,1235.0,0.036435204633849416
25,1245.0,0.036743385866332856
26,1255.0,0.035730667098816296
27,1258.92541,0.03525996381869657
28,1265.0,0.0345332522773272
29,1275.0,0.03639813854854983
30,1285.0,0.03628962481977245
31,1295.0,0.03248251109099508
32,1305.0,0.03229619736221769
33,1315.0,0.03479838363344032
34,1325.0,0.03350866990466294
35,1335.0,0.031286656175885566
36,1345.0,0.0332604424471082
37,1355.0,0.032421428718330814
38,1365.0,0.03046361498955344
39,1375.0,0.030261801260776062
40,1385.0,0.029935587531998684
41,1395.0,0.02504067380322131
42,1405.0,0.024496960074443932
43,1415.0,0.027978046345666557
44,1425.0,0.02724793261688918
45,1435.0,0.027574518888111802
46,1442.0,0.02776114927796764
47,1445.43977,0.02768636395578399
48,1447.0,0.02765243774292164
49,1455.0,0.02687556281134184
50,1465.0,0.025710119146867088
51,1475.0,0.02555487548239234
52,1485.0,0.025555031817917587
53,1495.0,0.025151188153442836
54,1505.0,0.024234444488968086
55,1512.0,0.02277385392383576
56,1517.0,0.023240132091598385
57,1525.0,0.022960557160018585
58,1535.0,0.02076951349554383
59,1545.0,0.01969746983106908
60,1555.0,0.019355726166594332
61,1565.0,0.02036598250211958
62,1575.0,0.02100323883764483
63,1585.0,0.021283095173170077
64,1595.0,0.021298851508695326
65,1605.0,0.020615207844220575
66,1615.0,0.020366764179745825
67,1625.0,0.01988522051527107
68,1635.0,0.020367076850796324
69,1645.0,0.02039833318632157
70,1655.0,0.019668089521846822
71,1659.58691,0.02003882942864523
72,1665.0,0.020476879238114455
73,1672.0,0.01886147842046401
74,1677.0,0.021317349264999404
75,1685.0,0.02142706261625604
76,1695.0,0.020557904305326835
77,1705.0,0.020326045994397628
78,1715.0,0.02007858768346842
79,1725.0,0.020095229372539214
80,1735.0,0.021168571061610006
81,1745.0,0.020890012750680798
82,1755.0,0.02182355443975159
83,1765.0,0.020239696128822385
84,1775.0,0.02072243781789318
85,1785.0,0.02132967950696397
86,1795.0,0.022574021196034764
87,1805.0,0.02411366288510556
88,1815.0,0.023493204574176352
89,1825.0,0.023012646263247144
90,1835.0,0.023138087952317938
91,1845.0,0.02040422964138873
92,1855.0,0.021586271330459525
93,1865.0,0.023188113019530318
94,1875.0,0.02359335470860111
95,1885.0,0.022988396397671904
96,1895.0,0.023517938086742695
97,1905.0,0.02358117977581349
98,1905.46072,0.023605576820512363
99,1915.0,0.024108228527652518
100,1925.0,0.023516256877737805
101,1935.0,0.021416785227823094
102,1945.0,0.025533413577908382
103,1955.0,0.025158941927993672
104,1967.0,0.027643675948096018
105,1976.0,0.02708295146317278
106,1984.0,0.027004074143241012
107,1995.0,0.026940255328334828
108,2005.0,0.026115083678420116
109,2015.0,0.026844012028505403
110,2025.0,0.024666940378590692
111,2035.0,0.02763366872867598
112,2045.0,0.029636797078761268
113,2055.0,0.02845422542884656
114,2065.0,0.028141953778931847
115,2074.0,0.03177702929400861
116,2078.0,0.03709114063404272
117,2085.0,0.039763010479102426
118,2095.0,0.03758593882918771
119,2105.0,0.036434467179273
120,2115.0,0.03978969552935829
121,2125.0,0.037208523879443574
122,2135.0,0.03518695222952887
123,2145.0,0.040997380579614155
124,2155.0,0.04052970892969945
125,2165.0,0.03676753727978473
126,2175.0,0.03704576562987002
127,2185.0,0.04280959397995531
128,2187.7616199999998,0.04331561344177152
129,2195.0,0.044643836870969865
130,2205.0,0.0431531102064376
131,2215.0,0.03703158354190533
132,2225.0,0.04096435687737308
133,2235.0,0.05000983021284082
134,2245.0,0.04721380354830856
135,2255.0,0.0395536768837763
136,2265.0,0.03737935021924404
137,2275.0,0.03992902355471177
138,2285.0,0.04830629689017952
139,2295.0,0.04201377022564726
140,2305.0,0.04852624356111499
141,2315.0,0.044720116896582736
142,2325.0,0.03817899023205047
143,2335.0,0.036392963567518206
144,2345.0,0.02840653690298595
145,2355.0,0.04366801023845369
146,2365.0,0.03061568357392143
147,2375.0,0.03712805690938917
148,2385.0,0.025598530244856907
149,2395.0,0.030588103580324648
150,2405.0,0.030402776915792386
151,2415.0,0.03323225025126013
152,2425.0,0.048928823586727864
153,2435.0,0.04830839692219561
154,2445.0,0.05528697025766335
155,2455.0,0.05702864359313108
156,2465.0,0.05238331692859882
157,2475.0,0.046463790264066565
158,2485.0,0.0337998635995343
159,2495.0,0.037872536935002046
160,2505.0,0.05286981027046978
161,2511.88643,0.035213123116726246
162,2513.0,0.03235776771120774
163,2518.0,0.026436840655348855
164,2525.0,0.027539822777146426
165,2535.0,0.03812206866542866
166,2545.0,0.03993981455371091
167,2555.0,0.060965060441993145
168,2565.0,0.04982240633027538
169,2575.0,0.060948552218557626
170,2585.0,0.05588199810683987
171,2595.0,0.05171684399512211
172,2605.0,0.04591998988340435
173,2615.0,0.04169263577168658
174,2625.0,0.05417078165996883
175,2635.0,0.08178492754825108
176,2645.0,0.10666427343653331
177,2655.0,0.14114681932481554
178,2665.0,0.09775876521309779
179,2675.0,0.10882291110138002
180,2685.0,0.12400545698966227
181,2695.0,0.09222510287794451
182,2705.0,0.11009554876622675
183,2715.0,0.08263599465450899
184,2725.0,0.06913124054279123
185,2735.0,0.08482618643107347
186,2745.0,0.05394783231935571
187,2755.0,0.06996907820763794
188,2765.0,0.08895852409592019
189,2775.0,0.09425716998420243
190,2785.0,0.06353421587248467
191,2795.0,0.028786261760766912
192,2805.0,0.03534380764904915
193,2815.0,0.0867340535373314
194,2825.0,0.11409909942561364
195,2835.0,0.10611164531389587
196,2845.0,0.07944439120217812
197,2855.0,0.050057837090460355
198,2865.0,0.10248928297874259
199,2875.0,0.13431482886702484
200,2884.0315,0.1268200800360269
201,2885.0,0.1260164178359516
202,2895.0,0.15115940854245297
203,2910.0,0.200251394602205
204,2930.0,0.17725137601520774
205,2950.0,0.16357635742821044
206,2970.0,0.16761633884121319
207,2990.0,0.17072432025421588
208,3010.0,0.1696363016672186
209,3030.0,0.18206828308022133
210,3050.0,0.19108226449322405
211,3070.0,0.20662124590622677
212,3090.0,0.1990072273192295
213,3110.0,0.23117520873223224
214,3130.0,0.21377019014523496
215,3150.0,0.21423617155823768
216,3170.0,0.23692515297124042
217,3190.0,0.20848613438424313
218,3210.0,0.22853311579724586
219,3230.0,0.19838609721024858
220,3250.0,0.2728220786232513
221,3270.0,0.317577060036254
222,3290.0,0.31322604144925675
223,3310.0,0.2914700228622595
224,3311.31121,0.2920099779216866
225,3330.0,0.29970568962631755
226,3350.0,0.28882733431453006
227,3370.0,0.21656597900274252
228,3390.0,0.248422623690955
229,3410.0,0.25588126837916747
230,3430.0,0.27561791306738
231,3450.0,0.2838525577555924
232,3470.0,0.29504120244380494
233,3490.0,0.33062784713201737
234,3510.0,0.3540924918202299
235,3530.0,0.31974813650844236
236,3550.0,0.36994278119665486
237,3570.0,0.26069642588486736
238,3590.0,0.2625610705730798
239,3610.0,0.3254967152612923
240,3630.0,0.3419693599495048
241,3640.0,0.358130182293611
242,3650.0,0.39884500463771727
243,3670.0,0.4235536493259297
244,3690.0,0.38548029401414224
245,3710.0,0.4081679387023547
246,3730.0,0.2836925833905672
247,3750.0,0.32269722807877965
248,3770.0,0.40847787276699216
249,3790.0,0.4218425174552046
250,3801.8939600000003,0.41019752461399484
251,3810.0,0.4022611921493192
252,3830.0,0.24996891087097375
253,3850.0,0.3323306295926283
254,3870.0,0.3265803483142828
255,3890.0,0.38252506703593736
256,3910.0,0.4617787857575919
257,3930.0,0.24763650447924643
258,3950.0,0.41313722320090096
259,3970.0,0.2908369419225555
260,3990.0,0.5831436606442101
261,4010.0,0.6372233793658646
262,4030.0,0.6271220980875191
263,4050.0,0.6042778168091737
264,4070.0,0.5722655355308282
265,4090.0,0.6928552542524826
266,4110.0,0.6496529729741373
267,4130.0,0.6406406916957917
268,4150.0,0.6250994104174462
269,4170.0,0.6378421291391009
270,4190.0,0.6196598478607553
271,4210.0,0.6249435665824098
272,4230.0,0.5947962853040645
273,4250.0,0.626186004025719
274,4270.0,0.5915317227473734
275,4290.0,0.552992441469028
276,4310.0,0.47886616019068257
277,4330.0,0.6908308789123371
278,4350.0,0.6841495976339916
279,4365.15832,0.7276098037206319
280,4370.0,0.7414914233964948
281,4390.0,0.6633255842822273
282,4410.0,0.7057497451679599
283,4430.0,0.7679099060536924
284,4450.0,0.7713290669394248
285,4470.0,0.8221452278251572
286,4490.0,0.8437453887108898
287,4510.0,0.9500385495966223
288,4530.0,0.8362867104823548
289,4550.0,0.8766908713680873
290,4570.0,0.9411820322538198
291,4590.0,0.8950281931395523
292,4610.0,0.9183383540252847
293,4630.0,0.9035765149110172
294,4650.0,0.9119666757967497
295,4670.0,0.9509728366824822
296,4690.0,0.9386969975682148
297,4710.0,0.9124341584539473
298,4730.0,0.9377643193396797
299,4750.0,0.9644934802254123
300,4770.0,0.9495746411111448
301,4790.0,0.9529938019968772
302,4810.0,0.9568789628826098
303,4830.0,0.9832981237683422
304,4850.0,0.9404072846540746
305,4870.0,0.8648834455398072
306,4890.0,0.9539266064255397
307,4910.0,0.9553257673112722
308,4930.0,0.9343479281970047
309,4950.0,0.9713330890827372
310,4970.0,0.9575022499684698
311,4990.0,0.8945654108542022
312,5010.0,0.8482565717399346
313,5011.87234,0.853188423978574
314,5030.0,0.9009377619288724
315,5050.0,0.8942549551444315
316,5070.0,0.9303081483599906
317,5090.0,0.8829113415755496
318,5110.0,0.9038905347911087
319,5130.0,0.8746747280066678
320,5150.0,0.8398659212222268
321,5170.0,0.7780171144377859
322,5190.0,0.808009307653345
323,5210.0,0.8717245008689042
324,5230.0,0.9413436940844632
325,5250.0,0.9837668873000223
326,5270.0,0.8720350805155813
327,5290.0,0.9960442737311405
328,5310.0,1.0555564669466995
329,5330.0,0.9345066601622586
330,5350.0,1.0184168533778175
331,5370.0,1.0108070465933767
332,5390.0,0.9913832398089357
333,5410.0,0.9759994330244949
334,5430.0,0.987964626240054
335,5450.0,1.012827819455613
336,5470.0,0.9983770126711721
337,5490.0,1.006458205886731
338,5510.0,0.9937153991022903
339,5530.0,1.0297685923178492
340,5550.0,1.0440587855334085
341,5570.0,1.0199789787489675
342,5590.0,0.9949591719645265
343,5610.0,1.0283693651800858
344,5630.0,1.0275895583956447
345,5650.0,1.0432897516112036
346,5670.0,1.0176499448267629
347,5690.0,1.047640138042322
348,5710.0,1.012210331257881
349,5730.0,1.09240052447344
350,5750.0,1.0580507176889993
351,5754.399369999999,1.0598962959053355
352,5770.0,1.0664411440538912
353,5790.0,1.0289916361667806
354,5810.0,1.06644212827967
355,5830.0,1.0928626203925598
356,5850.0,1.060073112505449
357,5870.0,1.0580536046183386
358,5890.0,0.9357570967312282
359,5910.0,1.0389445888441178
360,5930.0,1.048885080957007
361,5950.0,1.0498155730698966
362,5970.0,1.066446065182786
363,5990.0,1.0518465572956757
364,6010.0,1.0384770494085651
365,6030.0,1.0630275415214545
366,6050.0,1.081838033634344
367,6070.0,1.0771785257472335
368,6090.0,1.044699017860123
369,6110.0,1.0485795099730126
370,6130.0,0.993105002085902
371,6150.0,1.0207604941987913
372,6170.0,0.964512986311681
373,6190.0,1.0220114784245706
374,6210.0,1.0136219705374598
375,6230.0,0.9837834626503494
376,6250.0,0.955501954763239
377,6270.0,0.9977704468761284
378,6290.0,1.014083938989018
379,6310.0,0.9917114311019074
380,6330.0,1.0053849232147969
381,6350.0,1.0117554153276862
382,6370.0,1.0067859074405758
383,6390.0,1.0195263995534654
384,6410.0,1.000726891666355
385,6430.0,1.0097373837792443
386,6450.0,1.0035178758921337
387,6470.0,1.0002583680050234
388,6490.0,0.9820818601179128
389,6510.0,1.0167293522308023
390,6530.0,1.0193798443436917
391,6550.0,0.9928043364565812
392,6570.0,0.9356188285694708
393,6590.0,0.9997993206823602
394,6606.93448,1.0071679296141542
395,6610.0,1.008501737800223
396,6630.0,0.9999547406321639
397,6650.0,0.9982457434641048
398,6670.0,0.9764897462960457
399,6690.0,0.9889207491279867
400,6710.0,0.9530237519599274
401,6730.0,0.9754017547918683
402,6750.0,0.9593957576238092
403,6770.0,0.9645237604557502
404,6790.0,0.9547327632876911
405,6810.0,0.9584627661196319
406,6830.0,0.9693407689515728
407,6850.0,0.9466517717835138
408,6870.0,0.9603277746154546
409,6890.0,0.9730707774473955
410,6910.0,0.9710507802793363
411,6930.0,0.9653007831112772
412,6950.0,0.9649897859432182
413,6970.0,0.977266788775159
414,6990.0,0.9732267916070999
415,7010.0,0.9623477944390408
416,7030.0,0.9811517972709818
417,7050.0,0.9830168001029227
418,7070.0,0.9534898029348634
419,7090.0,0.9255178057668043
420,7110.0,0.9056278085987453
421,7130.0,0.8869788114306861
422,7150.0,0.8829388142626271
423,7170.0,0.894748817094568
424,7190.0,0.8748578199265089
425,7210.0,0.8924178227584498
426,7230.0,0.9135518255903907
427,7250.0,0.9193018284223314
428,7270.0,0.9272278312542724
429,7290.0,0.9168158340862133
430,7310.0,0.9418358369181542
431,7330.0,0.9446328397500952
432,7350.0,0.953955842582036
433,7370.0,0.9772668454139769
434,7390.0,0.9615708482459178
435,7410.0,0.9586188510778587
436,7430.0,0.9823948539097995
437,7450.0,0.9820848567417404
438,7470.0,0.9966918595736813
439,7490.0,0.9949818624056223
440,7510.0,1.003521865237563
441,7530.0,1.017511868069504
442,7550.0,1.0245018709014448
443,7570.0,1.0200018737333858
444,7585.77575,1.0028410151171856
445,7590.0,0.9982459182584342
446,7610.0,0.9811521184892396
447,7630.0,0.9603283187200446
448,7650.0,0.9404375189508498
449,7670.0,0.8961487191816551
450,7690.0,0.9180599194124601
451,7710.0,0.9005001196432655
452,7730.0,0.9050073198740706
453,7750.0,0.8984805201048758
454,7770.0,0.9104467203356809
455,7790.0,0.9152639205664861
456,7810.0,0.9160411207972913
457,7830.0,0.9088923210280965
458,7850.0,0.8994145212589016
459,7870.0,0.9137107214897068
460,7890.0,0.904387921720512
461,7910.0,0.8855841219513171
462,7930.0,0.8886923221821222
463,7950.0,0.8832535224129275
464,7970.0,0.9102937226437328
465,7990.0,0.9107589228745379
466,8010.0,0.922725123105343
467,8030.0,0.9267663233361482
468,8050.0,0.9264555235669535
469,8070.0,0.9393537237977586
470,8090.0,0.9328279240285637
471,8110.0,0.942618124259369
472,8130.0,0.9656173244901741
473,8150.0,0.9761845247209793
474,8170.0,0.9827117249517845
475,8190.0,0.9500769251825897
476,8210.0,0.9444841254133949
477,8230.0,0.9485233256442
478,8250.0,0.9479025258750051
479,8270.0,0.9550507261058103
480,8290.0,0.9455729263366156
481,8310.0,0.9196201265674208
482,8330.0,0.909830326798226
483,8350.0,0.911850527029031
484,8370.0,0.9148037272598363
485,8390.0,0.8837239274906413
486,8410.0,0.9126281277214466
487,8430.0,0.8723793279522518
488,8450.0,0.858083528183057
489,8470.0,0.8563747284138621
490,8490.0,0.8608809286446673
491,8510.0,0.8266931288754725
492,8530.0,0.8601043291062778
493,8550.0,0.7903305293370829
494,8570.0,0.883880729567888
495,8590.0,0.8756449297986932
496,8610.0,0.8832601300294983
497,8630.0,0.8975573302603036
498,8650.0,0.8991115304911088
499,8670.0,0.8134857307219139
500,8690.0,0.8782879309527191
501,8709.6359,0.9074297667283214
502,8710.0,0.9079701379779124
503,8730.0,0.9141857114242152
504,8750.0,0.9067282848705179
505,8770.0,0.9200918583168207
506,8790.0,0.9286404317631235
507,8810.0,0.9118570052094263
508,8830.0,0.9188505786557291
509,8850.0,0.9186961521020319
510,8870.0,0.8876167255483347
511,8890.0,0.8984952989946375
512,8910.0,0.9061108724409402
513,8930.0,0.8927464458872431
514,8950.0,0.8929030193335459
515,8970.0,0.8964775927798486
516,8990.0,0.8980321662261513
517,9010.0,0.8722367396724542
518,9030.0,0.9020733131187569
519,9050.0,0.9246068865650597
520,9070.0,0.9233644600113625
521,9090.0,0.9067380334576653
522,9110.0,0.9176156069039682
523,9130.0,0.929582180350271
524,9150.0,0.9242987537965737
525,9170.0,0.9235223272428765
526,9190.0,0.9309829006891792
527,9210.0,0.901457474135482
528,9230.0,0.8818770475817849
529,9250.0,0.8786146210280876
530,9270.0,0.8826551944743903
531,9290.0,0.8711567679206932
532,9310.0,0.8758183413669959
533,9330.0,0.8769069148132987
534,9350.0,0.8728684882596016
535,9370.0,0.8591930617059044
536,9390.0,0.8736456351522072
537,9410.0,0.8593492085985099
538,9430.0,0.8773757820448127
539,9450.0,0.8657223554911154
540,9470.0,0.8825059289374182
541,9490.0,0.883283502383721
542,9510.0,0.8708520758300238
543,9530.0,0.8748926492763266
544,9550.0,0.8601302227226294
545,9570.0,0.8675907961689321
546,9590.0,0.8804883696152349
547,9610.0,0.8686799430615378
548,9630.0,0.8731855165078406
549,9650.0,0.8560930899541433
550,9670.0,0.8568706634004462
551,9690.0,0.8689922368467489
552,9710.0,0.8567158102930517
553,9730.0,0.8484803837393544
554,9750.0,0.8463049571856572
555,9770.0,0.84988053063196
556,9790.0,0.8372931040782627
557,9810.0,0.8567186775245655
558,9830.0,0.8495712509708683
559,9850.0,0.8539228244171712
560,9870.0,0.847862397863474
561,9890.0,0.8466199713097767
562,9910.0,0.8366745447560795
563,9930.0,0.8416481182023823
564,9950.0,0.8435136916486851
565,9970.0,0.8428932650949879
566,9990.0,0.8407178385412907
567,10000.0,0.8399798752644421
568,10030.0,0.8377659877089634
569,10070.0,0.8275121376349919
570,10130.0,0.8327968625240345
571,10170.0,0.8223860124500629
572,10220.0,0.8228534498575985
573,10280.0,0.8230111747466412
574,10320.0,0.8118233246726696
575,10380.0,0.8056090495617123
576,10430.0,0.8076304869692479
577,10480.0,0.7965989243767835
578,10520.0,0.790228074302812
579,10580.0,0.7762437991918545
580,10630.0,0.7692522365993901
581,10680.0,0.7603956740069258
582,10720.0,0.7627278239329541
583,10780.0,0.7560485488219969
584,10820.0,0.7450156987480253
585,10870.0,0.7423751361555608
586,10920.0,0.7409775735630963
587,10980.0,0.7311892984521391
588,11020.0,0.7268394483781676
589,11080.0,0.7170511732672102
590,11130.0,0.7128566106747457
591,11170.0,0.7067967606007742
592,11220.0,0.7057111980083098
593,11280.0,0.6957669228973525
594,11330.0,0.694214360304888
595,11380.0,0.6869127977124236
596,11430.0,0.6788332351199592
597,11470.0,0.6858273850459876
598,11481.5362,0.6852001474104038
599,11530.0,0.6825663932241185
600,11570.0,0.6743326023234584
601,11620.0,0.6631463636976331
602,11670.0,0.662061125071808
603,11730.0,0.6639294387208178
604,11770.0,0.6493246478201576
605,11830.0,0.6434229614691674
606,11870.0,0.6325461705685073
607,11920.0,0.6407859319426821
608,11980.0,0.6196542455916918
609,12030.0,0.6294470069658668
610,12070.0,0.6236992160652065
611,12120.0,0.6232359774393814
612,12180.0,0.6232392910883912
613,12230.0,0.6188910524625659
614,12270.0,0.6137642615619058
615,12320.0,0.6091060229360806
616,12370.0,0.6066227843102554
617,12430.0,0.5977680979592651
618,12480.0,0.5957508593334401
619,12530.0,0.5898476207076148
620,12580.0,0.5876753820817897
621,12620.0,0.5836365911811294
622,12670.0,0.5782003525553043
623,12720.0,0.5774261139294791
624,12780.0,0.576342427578489
625,12830.0,0.5584741889526638
626,12880.0,0.5656249503268386
627,12920.0,0.5592561594261783
628,12980.0,0.5631444730751882
629,13020.0,0.556463682174528
630,13080.0,0.5564669958235378
631,13130.0,0.5443487571977126
632,13180.0,0.5426415185718874
633,13182.5674,0.5426177321949285
634,13230.0,0.5421795288137158
635,13280.0,0.532704606653416
636,13320.0,0.5313098689251762
637,13380.0,0.5257197623328164
638,13430.0,0.5265008401725166
639,13470.0,0.5219981024442768
640,13520.0,0.517495180283977
641,13570.0,0.5108172581236772
642,13630.0,0.5074031515313174
643,13670.0,0.5091154138030776
644,13730.0,0.5095863072107177
645,13770.0,0.507880569482478
646,13820.0,0.5075736473221782
647,13880.0,0.5022945407298184
648,13930.0,0.4844286185695186
649,13970.0,0.4811678808412787
650,14020.0,0.47619895868097895
651,14080.0,0.4790018520886192
652,14120.0,0.4730991143603793
653,14180.0,0.4763680077680196
