,lambda (Angstroms),Total Flux (erg/s/cm^2/Angstrom)
0,1005.0,0.04971345732353903
1,1015.0,0.05016276279798422
2,1025.0,0.039827168272429415
3,1035.0,0.045202673746874616
4,1045.0,0.05317327922131981
5,1055.0,0.051104984695765
6,1065.0,0.0457268901702102
7,1075.0,0.04760579564465539
8,1085.0,0.04291130111910059
9,1095.0,0.04718340659354578
10,1096.4782,0.046875380086778266
11,1105.0,0.045097081019274496
12,1115.0,0.0440205164067469
13,1125.0,0.0400534517942193
14,1135.0,0.043949587181691695
15,1145.0,0.0420494225691641
16,1155.0,0.0415477579566365
17,1165.0,0.040750793344108895
18,1175.0,0.0319197287315813
19,1185.0,0.0385198641190537
20,1195.0,0.0345683995065261
21,1205.0,0.030849934893998496
22,1215.0,0.0264632702814709
23,1225.0,0.0333276056689433
24,1235.0,0.0364933410564157
25,1245.0,0.03679977644388809
26,1255.0,0.035785311831360495
27,1258.92541,0.03531392323549429
28,1265.0,0.03458728712887867
29,1275.0,0.03645229758091638
30,1285.0,0.036343908032954085
31,1295.0,0.032536918484991795
32,1305.0,0.03235072893702949
33,1315.0,0.034853039389067204
34,1325.0,0.0335634498411049
35,1335.0,0.03134156029314261
36,1345.0,0.03331547074518033
37,1355.0,0.032476581197218024
38,1365.0,0.030518891649255732
39,1375.0,0.030317202101293437
40,1385.0,0.02999111255333114
41,1395.0,0.025096323005368848
42,1405.0,0.024552733457406554
43,1415.0,0.02803394390944426
44,1425.0,0.027303954361481968
45,1435.0,0.027630664813519674
46,1442.0,0.02781738212994607
47,1445.43977,0.027742639523106644
48,1447.0,0.027708729571536066
49,1455.0,0.026931938018903066
50,1465.0,0.025766598578111814
51,1475.0,0.025611459137320564
52,1485.0,0.02561171969652931
53,1495.0,0.02520798025573806
54,1505.0,0.02429134081494681
55,1512.0,0.022830823206392934
56,1517.0,0.023297153485997306
57,1525.0,0.023017661933364304
58,1535.0,0.020826722492573054
59,1545.0,0.019754783051781803
60,1555.0,0.01941314361099055
61,1565.0,0.0204235041701993
62,1575.0,0.021060864729408046
63,1585.0,0.021340825288616794
64,1595.0,0.021356685847825543
65,1605.0,0.02067314640703429
66,1615.0,0.02042480696624304
67,1625.0,0.019943367525451786
68,1635.0,0.02042532808466054
69,1645.0,0.020456688643869285
70,1655.0,0.019726549203078033
71,1659.58691,0.02009733691634205
72,1665.0,0.020535798730190756
73,1672.0,0.018920930700773348
74,1677.0,0.02137718210833234
75,1685.0,0.02148750436042673
76,1695.0,0.020619107175544722
77,1705.0,0.02038800999066271
78,1715.0,0.020141312805780697
79,1725.0,0.020158715620898687
80,1735.0,0.021232818436016675
81,1745.0,0.020955021251134662
82,1755.0,0.02188932406625265
83,1765.0,0.02030622688137064
84,1775.0,0.02078972969648863
85,1785.0,0.021397732511606617
86,1795.0,0.022642835326724606
87,1805.0,0.024183238141842596
88,1815.0,0.023563540956960585
89,1825.0,0.02308374377207857
90,1835.0,0.02320994658719656
91,1845.0,0.020476849402314548
92,1855.0,0.02165965221743254
93,1865.0,0.023262255032550527
94,1875.0,0.023668257847668513
95,1885.0,0.023064060662786504
96,1895.0,0.02359436347790449
97,1905.0,0.023658366293022485
98,1905.46072,0.0236827984043206
99,1915.0,0.024184514212754197
100,1925.0,0.023591561462896343
101,1935.0,0.02149110871303849
102,1945.0,0.025606755963180638
103,1955.0,0.025231303213322787
104,1967.0,0.027714859913493366
105,1976.0,0.027153252438621298
106,1984.0,0.027073590238735016
107,1995.0,0.027008692213891378
108,2005.0,0.026182539464033525
109,2015.0,0.02691048671417567
110,2025.0,0.024732433964317818
111,2035.0,0.02769818121445997
112,2045.0,0.029700328464602115
113,2055.0,0.028516775714744265
114,2065.0,0.028203522964886412
115,2074.0,0.031837715490014344
116,2078.0,0.0371514343900712
117,2085.0,0.03982261746517071
118,2095.0,0.03764456471531285
119,2105.0,0.036492111965455
120,2115.0,0.03984635921559715
121,2125.0,0.037264206465739295
122,2135.0,0.03524165371588145
123,2145.0,0.041051100966023595
124,2155.0,0.040582448216165745
125,2165.0,0.03681929546630788
126,2175.0,0.037096542716450034
127,2185.0,0.04285938996659218
128,2187.7616199999998,0.0433651384858859
129,2195.0,0.044693928118283106
130,2205.0,0.043203983677395995
131,2215.0,0.03708323923650889
132,2225.0,0.04101679479562179
133,2235.0,0.0500630503547347
134,2245.0,0.0472678059138476
135,2255.0,0.039608461472960495
136,2265.0,0.0374349170320734
137,2275.0,0.03998537259118629
138,2285.0,0.0483634281502992
139,2295.0,0.04207168370941209
140,2305.0,0.04858493926852499
141,2315.0,0.04477959482763789
142,2325.0,0.03823925038675079
143,2335.0,0.036454005945863684
144,2345.0,0.028468361504976586
145,2355.0,0.04373061706408948
146,2365.0,0.03067907262320238
147,2375.0,0.037192228182315275
148,2385.0,0.02566348374142818
149,2395.0,0.030653839300541077
150,2405.0,0.030469294859653977
151,2415.0,0.03329955041876688
152,2425.0,0.04899690597787978
153,2435.0,0.04837726153699268
154,2445.0,0.05535661709610558
155,2455.0,0.05709907265521847
156,2465.0,0.052454528214331365
157,2475.0,0.04653578377344427
158,2485.0,0.033872639332557165
159,2495.0,0.03794609489167007
160,2505.0,0.05294415045078297
161,2511.88643,0.03528800196987711
162,2513.0,0.0324326128520129
163,2518.0,0.026511534425581424
164,2525.0,0.027614304628577373
165,2535.0,0.03819624777571444
166,2545.0,0.04001369092285151
167,2555.0,0.06103863406998857
168,2565.0,0.04989567721712564
169,2575.0,0.06102152036426271
170,2585.0,0.05595466351139978
171,2595.0,0.05178920665853685
172,2605.0,0.04599204980567392
173,2615.0,0.04176439295281097
174,2625.0,0.05424223609994805
175,2635.0,0.08185607924708511
176,2645.0,0.10673512239422218
177,2655.0,0.14121736554135925
178,2665.0,0.09782900868849631
179,2675.0,0.10889285183563338
180,2685.0,0.12407509498277045
181,2695.0,0.09229443812990751
182,2705.0,0.1101645812770446
183,2715.0,0.08270472442418166
184,2725.0,0.06919966757131871
185,2735.0,0.08489431071845578
186,2745.0,0.05401565386559285
187,2755.0,0.0700365970127299
188,2765.0,0.08902574015986699
189,2775.0,0.09432408330700405
190,2785.0,0.06360082645414113
191,2795.0,0.028852569601278185
192,2805.0,0.03540981274841525
193,2815.0,0.08679975589555233
194,2825.0,0.1141644990426894
195,2835.0,0.10617674218982645
196,2845.0,0.07950918533696354
197,2855.0,0.050122328484100594
198,2865.0,0.10255347163123765
199,2875.0,0.13437871477837474
200,2884.0315,0.12688369252671153
201,2885.0,0.126080029726586
202,2895.0,0.1512230142374216
203,2910.0,0.200314991003675
204,2930.0,0.17731496002534622
205,2950.0,0.1636399290470174
206,2970.0,0.16767989806868863
207,2990.0,0.1707878670903598
208,3010.0,0.16969983611203102
209,3030.0,0.18213180513370222
210,3050.0,0.19114577415537343
211,3070.0,0.20668474317704463
212,3090.0,0.19907071219871586
213,3110.0,0.23123868122038707
214,3130.0,0.21383365024205828
215,3150.0,0.21429961926372945
216,3170.0,0.23698858828540068
217,3190.0,0.20854955730707186
218,3210.0,0.22859652632874308
219,3230.0,0.19844949535041428
220,3250.0,0.2728854643720855
221,3270.0,0.3176404333937567
222,3290.0,0.3132894024154279
223,3310.0,0.2915333714370991
224,3311.31121,0.29207332568414435
225,3330.0,0.29976881604386263
226,3350.0,0.2888902238575501
227,3370.0,0.21662863167123753
228,3390.0,0.24848503948492498
229,3410.0,0.25594344729861246
230,3430.0,0.2756798551123
231,3450.0,0.2839142629259874
232,3470.0,0.2951026707396749
233,3490.0,0.3306890785533623
234,3510.0,0.3541534863670498
235,3530.0,0.31980889418073727
236,3550.0,0.37000330199442477
237,3570.0,0.2607567098081122
238,3590.0,0.2626211176217997
239,3610.0,0.32555652543548713
240,3630.0,0.3420289332491746
241,3640.0,0.35818963715601837
242,3650.0,0.3989043410628621
243,3670.0,0.42361274887654954
244,3690.0,0.38553915669023703
245,3710.0,0.40822656450392447
246,3730.0,0.2837509723176119
247,3750.0,0.32275538013129945
248,3770.0,0.4085357879449869
249,3790.0,0.4219001957586744
250,3801.8939600000003,0.4102550620486583
251,3810.0,0.4023186535821987
252,3830.0,0.25002618478495625
253,3850.0,0.3323877159877138
254,3870.0,0.3266372471904714
255,3890.0,0.38258177839322893
256,3910.0,0.46183530959598645
257,3930.0,0.24769284079874404
258,3950.0,0.4131933720015016
259,3970.0,0.29089290320425915
260,3990.0,0.5831994344070167
261,4010.0,0.6372789656097743
262,4030.0,0.6271774968125319
263,4050.0,0.6043330280152894
264,4070.0,0.5723205592180469
265,4090.0,0.6929100904208044
266,4110.0,0.6497076216235621
267,4130.0,0.6406951528263196
268,4150.0,0.6251536840290771
269,4170.0,0.6378962152318347
270,4190.0,0.6197137464345922
271,4210.0,0.6249972776373498
272,4230.0,0.5948498088401074
273,4250.0,0.626239340042865
274,4270.0,0.5915848712456224
275,4290.0,0.5530454024483801
276,4310.0,0.47891893365113763
277,4330.0,0.6908834648538952
278,4350.0,0.6842019960566527
279,4365.15832,0.7276620600197206
280,4370.0,0.7415437056608246
281,4390.0,0.6633779738037122
282,4410.0,0.7058022419465997
283,4430.0,0.7679625100894872
284,4450.0,0.7713817782323746
285,4470.0,0.8221980463752621
286,4490.0,0.8437983145181497
287,4510.0,0.9500915826610371
288,4530.0,0.8363398508039247
289,4550.0,0.8767441189468121
290,4570.0,0.9412353870896996
291,4590.0,0.8950816552325871
292,4610.0,0.9183919233754746
293,4630.0,0.9036301915183621
294,4650.0,0.9120204596612496
295,4670.0,0.951026727804137
296,4690.0,0.9387509959470246
297,4710.0,0.912488264089912
298,4730.0,0.9378185322327997
299,4750.0,0.9645478003756871
300,4770.0,0.9496290685185745
301,4790.0,0.953048336661462
302,4810.0,0.9569336048043495
303,4830.0,0.9833528729472371
304,4850.0,0.9404621410901245
305,4870.0,0.8649384092330121
306,4890.0,0.9539816773758996
307,4910.0,0.9553809455187869
308,4930.0,0.9344032136616746
309,4950.0,0.9713884818045619
310,4970.0,0.9575577499474496
311,4990.0,0.894621018090337
312,5010.0,0.8483122862332244
313,5011.87234,0.8532441485129569
314,5030.0,0.9009936032147874
315,5050.0,0.8943109252407192
316,5070.0,0.930364247266651
317,5090.0,0.8829675692925828
318,5110.0,0.9039468913185145
319,5130.0,0.8747312133444463
320,5150.0,0.8399225353703781
321,5170.0,0.7780738573963099
322,5190.0,0.8080661794222417
323,5210.0,0.8717815014481736
324,5230.0,0.9414008234741054
325,5250.0,0.9838241455000372
326,5270.0,0.8720924675259688
327,5290.0,0.9961017895519007
328,5310.0,1.0556141115778324
329,5330.0,0.9345644336037643
330,5350.0,1.018474755629696
331,5370.0,1.0108650776556278
332,5390.0,0.9914413996815596
333,5410.0,0.9760577217074915
334,5430.0,0.9880230437334232
335,5450.0,1.012886365759355
336,5470.0,0.9984356877852868
337,5490.0,1.0065170098112186
338,5510.0,0.9937743318371505
339,5530.0,1.0298276538630822
340,5550.0,1.044117975889014
341,5570.0,1.0200382979149458
342,5590.0,0.9950186199408776
343,5610.0,1.0284289419668096
344,5630.0,1.0276492639927413
345,5650.0,1.043349586018673
346,5670.0,1.0177099080446048
347,5690.0,1.0477002300705365
348,5710.0,1.0122705520964683
349,5730.0,1.0924608741224
350,5750.0,1.058111196148332
351,5754.399369999999,1.0599568026988928
352,5770.0,1.0665019067564854
353,5790.0,1.0290527269446346
354,5810.0,1.0665035471327835
355,5830.0,1.0929243673209328
356,5850.0,1.0601351875090819
357,5870.0,1.0581160076972311
358,5890.0,0.9358198278853803
359,5910.0,1.0390076480735295
360,5930.0,1.0489484682616785
361,5950.0,1.0498792884498276
362,5970.0,1.0665101086379767
363,5990.0,1.051910928826126
364,6010.0,1.0385417490142752
365,6030.0,1.0630925692024242
366,6050.0,1.0819033893905734
367,6070.0,1.0772442095787227
368,6090.0,1.0447650297668716
369,6110.0,1.0486458499550209
370,6130.0,0.99317167014317
371,6150.0,1.020827490331319
372,6170.0,0.9645803105194684
373,6190.0,1.0220791307076176
374,6210.0,1.0136899508957666
375,6230.0,0.9838517710839157
376,6250.0,0.9555705912720649
377,6270.0,0.9978394114602139
378,6290.0,1.0141532316483632
379,6310.0,0.9917810518365123
380,6330.0,1.0054548720246614
381,6350.0,1.0118256922128106
382,6370.0,1.0068565124009599
383,6390.0,1.0195973325891088
384,6410.0,1.000798152777258
385,6430.0,1.0098089729654072
386,6450.0,1.0035897931535562
387,6470.0,1.0003306133417056
388,6490.0,0.9821544335298545
389,6510.0,1.016802253718004
390,6530.0,1.0194530739061527
391,6550.0,0.992877894094302
392,6570.0,0.9356927142824512
393,6590.0,0.9998735344706003
394,6606.93448,1.0072424211915907
395,6610.0,1.0085762296670382
396,6630.0,1.00002923438694
397,6650.0,0.9983202391068413
398,6670.0,0.9765642438267428
399,6690.0,0.9889952485466443
400,6710.0,0.9530982532665457
401,6730.0,0.9754762579864472
402,6750.0,0.9594702627063487
403,6770.0,0.9645982674262503
404,6790.0,0.9548072721461518
405,6810.0,0.9585372768660532
406,6830.0,0.9694152815859547
407,6850.0,0.9467262863058562
408,6870.0,0.9604022910257576
409,6890.0,0.9731452957456591
410,6910.0,0.9711253004655607
411,6930.0,0.9653753051854621
412,6950.0,0.9650643099053636
413,6970.0,0.9773413146252651
414,6990.0,0.9733013193451665
415,7010.0,0.962422324065068
416,7030.0,0.9812263287849695
417,7050.0,0.9830913335048711
418,7070.0,0.9535643382247725
419,7090.0,0.925592342944674
420,7110.0,0.9057023476645755
421,7130.0,0.8870533523844769
422,7150.0,0.8830133571043784
423,7170.0,0.89482336182428
424,7190.0,0.8749323665441815
425,7210.0,0.892492371264083
426,7230.0,0.9136263759839844
427,7250.0,0.9193763807038858
428,7270.0,0.9273023854237874
429,7290.0,0.9168903901436888
430,7310.0,0.9419103948635904
431,7330.0,0.9447073995834919
432,7350.0,0.9540304043033934
433,7370.0,0.9773414090232948
434,7390.0,0.9616454137431962
435,7410.0,0.9586934184630977
436,7430.0,0.9824694231829992
437,7450.0,0.9821594279029008
438,7470.0,0.9967664326228023
439,7490.0,0.9950564373427038
440,7510.0,1.0035964420626051
441,7530.0,1.0175864467825069
442,7550.0,1.024576451502408
443,7570.0,1.0200764562223097
444,7585.77575,1.0029155990953091
445,7590.0,0.9983205304307238
446,7610.0,0.9812268641487325
447,7630.0,0.9604031978667411
448,7650.0,0.9405125315847497
449,7670.0,0.8962238653027584
450,7690.0,0.918135199020767
451,7710.0,0.9005755327387757
452,7730.0,0.9050828664567843
453,7750.0,0.8985562001747929
454,7770.0,0.9105225338928015
455,7790.0,0.9153398676108102
456,7810.0,0.9161172013288188
457,7830.0,0.9089685350468274
458,7850.0,0.8994908687648361
459,7870.0,0.9137872024828446
460,7890.0,0.9044645362008533
461,7910.0,0.8856608699188618
462,7930.0,0.8887692036368705
463,7950.0,0.8833305373548792
464,7970.0,0.9103708710728878
465,7990.0,0.9108362047908964
466,8010.0,0.9228025385089051
467,8030.0,0.9268438722269137
468,8050.0,0.9265332059449224
469,8070.0,0.9394315396629309
470,8090.0,0.9329058733809396
471,8110.0,0.9426962070989483
472,8130.0,0.9656955408169569
473,8150.0,0.9762628745349655
474,8170.0,0.9827902082529741
475,8190.0,0.9501555419709827
476,8210.0,0.9445628756889914
477,8230.0,0.948602209407
478,8250.0,0.9479815431250086
479,8270.0,0.9551298768430173
480,8290.0,0.9456522105610259
481,8310.0,0.9196995442790346
482,8330.0,0.9099098779970433
483,8350.0,0.9119302117150517
484,8370.0,0.9148835454330605
485,8390.0,0.883803879151069
486,8410.0,0.9127082128690777
487,8430.0,0.8724595465870864
488,8450.0,0.8581638803050949
489,8470.0,0.8564552140231035
490,8490.0,0.8609615477411122
491,8510.0,0.8267738814591208
492,8530.0,0.8601852151771295
493,8550.0,0.7904115488951381
494,8570.0,0.8839618826131467
495,8590.0,0.8757262163311554
496,8610.0,0.8833415500491639
497,8630.0,0.8976388837671726
498,8650.0,0.8991932174851813
499,8670.0,0.8135675512031898
500,8690.0,0.8783698849211985
501,8709.6359,0.9075118517538697
502,8710.0,0.9080522299631874
503,8730.0,0.9142681857070254
504,8750.0,0.9068111414508633
505,8770.0,0.9201750971947013
506,8790.0,0.9287240529385392
507,8810.0,0.9119410086823772
508,8830.0,0.9189349644262151
509,8850.0,0.9187809201700532
510,8870.0,0.8877018759138912
511,8890.0,0.8985808316577292
512,8910.0,0.9061967874015671
513,8930.0,0.8928327431454051
514,8950.0,0.8929896988892431
515,8970.0,0.896564654633081
516,8990.0,0.898119610376919
517,9010.0,0.872324566120757
518,9030.0,0.902161521864595
519,9050.0,0.924695477608433
520,9070.0,0.9234534333522709
521,9090.0,0.9068273890961088
522,9110.0,0.9177053448399468
523,9130.0,0.9296723005837848
524,9150.0,0.9243892563276228
525,9170.0,0.9236132120714609
526,9190.0,0.9310741678152987
527,9210.0,0.9015491235591367
528,9230.0,0.8819690793029747
529,9250.0,0.8787070350468127
530,9270.0,0.8827479907906506
531,9290.0,0.8712499465344886
532,9310.0,0.8759119022783266
533,9330.0,0.8770008580221647
534,9350.0,0.8729628137660026
535,9370.0,0.8592877695098405
536,9390.0,0.8737407252536785
537,9410.0,0.8594446809975165
538,9430.0,0.8774716367413544
539,9450.0,0.8658185924851924
540,9470.0,0.8826025482290304
541,9490.0,0.8833805039728684
542,9510.0,0.8709494597167063
543,9530.0,0.8749904154605443
544,9550.0,0.8602283712043823
545,9570.0,0.8676893269482202
546,9590.0,0.8805872826920582
547,9610.0,0.8687792384358963
548,9630.0,0.8732851941797343
549,9650.0,0.8561931499235722
550,9670.0,0.8569711056674102
551,9690.0,0.8690930614112481
552,9710.0,0.8568170171550861
553,9730.0,0.848581972898924
554,9750.0,0.846406928642762
555,9770.0,0.8499828843866001
556,9790.0,0.837395840130438
557,9810.0,0.856821795874276
558,9830.0,0.8496747516181139
559,9850.0,0.854026707361952
560,9870.0,0.8479666631057898
561,9890.0,0.8467246188496278
562,9910.0,0.8367795745934657
563,9930.0,0.8417535303373038
564,9950.0,0.8436194860811418
565,9970.0,0.8429994418249798
566,9990.0,0.8408243975688178
567,10000.0,0.8400866254407368
568,10030.0,0.8378733128482724
569,10070.0,0.827620229391653
570,10130.0,0.8329061042067242
571,10170.0,0.8224960207501049
572,10220.0,0.8229644164293308
573,10280.0,0.823123291244402
574,10320.0,0.8119362077877827
575,10380.0,0.8057230826028539
576,10430.0,0.8077454782820798
577,10480.0,0.7967148739613058
578,10520.0,0.7903447905046865
579,10580.0,0.7763616653197576
580,10630.0,0.7693710609989836
581,10680.0,0.7605154566782095
582,10720.0,0.7628483732215903
583,10780.0,0.7561702480366614
584,10820.0,0.7451381645800422
585,10870.0,0.7424985602592681
586,10920.0,0.741101955938494
587,10980.0,0.7313148307535652
588,11020.0,0.726965747296946
589,11080.0,0.7171786221120171
590,11130.0,0.7129850177912429
591,11170.0,0.7069259343346237
592,11220.0,0.7058413300138496
593,11280.0,0.6958982048289208
594,11330.0,0.6943466005081467
595,11380.0,0.6870459961873727
596,11430.0,0.6789673918665986
597,11470.0,0.6859623084099794
598,11481.5362,0.685335291870673
599,11530.0,0.6827033220401976
600,11570.0,0.6744710038724305
601,11620.0,0.663286606162722
602,11670.0,0.6622032084530133
603,11730.0,0.6640737312013629
604,11770.0,0.649470413033596
605,11830.0,0.6435709357819457
606,11870.0,0.6326956176141788
607,11920.0,0.6409372199044702
608,11980.0,0.6198077426528197
609,12030.0,0.6296023449431112
610,12070.0,0.6238560267753442
611,12120.0,0.6233946290656356
612,12180.0,0.6234001518139852
613,12230.0,0.6190537541042765
614,12270.0,0.6139284359365097
615,12320.0,0.609272038226801
616,12370.0,0.6067906405170923
617,12430.0,0.5979381632654419
618,12480.0,0.5959227655557334
619,12530.0,0.5900213678460247
620,12580.0,0.5878509701363162
621,12620.0,0.5838136519685492
622,12670.0,0.5783792542588405
623,12720.0,0.5776068565491319
624,12780.0,0.5765253792974815
625,12830.0,0.5586589815877729
626,12880.0,0.5658115838780642
627,12920.0,0.5594442657102973
628,12980.0,0.5633347884586469
629,13020.0,0.55665547029088
630,13080.0,0.5566609930392297
631,13130.0,0.544544595329521
632,13180.0,0.5428391976198124
633,13182.5674,0.5428155057702142
634,13230.0,0.5423798813561931
635,13280.0,0.5329076777556934
636,13320.0,0.5315151148752936
637,13380.0,0.525928270554694
638,13430.0,0.5267120669541944
639,13470.0,0.5222115040737946
640,13520.0,0.517711300473295
641,13570.0,0.5110360968727953
642,13630.0,0.5076252525521957
643,13670.0,0.5093396896717959
644,13730.0,0.5098138453511962
645,13770.0,0.5081102824707966
646,13820.0,0.5078060788702969
647,13880.0,0.5025302345496973
648,13930.0,0.4846670309491976
649,13970.0,0.4814084680687979
650,14020.0,0.47644226446829824
651,14080.0,0.47924842014769864
652,14120.0,0.4733478572672989
653,14180.0,0.4766200129466993
654,14230.0,0.4716538093461996
