,lambda (Angstroms),Total Flux (erg/s/cm^2/Angstrom)
0,1005.0,1.7914100398771693
1,1015.0,1.770209547333371
2,1025.0,1.738224154789573
3,1035.0,1.7219498622457747
4,1045.0,1.7082706697019765
5,1055.0,1.6845525771581784
6,1065.0,1.65752468461438
7,1075.0,1.6377537920705818
8,1085.0,1.6114094995267838
9,1095.0,1.5940318069829855
10,1096.4782,1.5905235073331612
11,1105.0,1.5736423784352245
12,1115.0,1.5548432319380798
13,1125.0,1.5331535854409353
14,1135.0,1.5193271389437903
15,1145.0,1.499704392446646
16,1155.0,1.4814801459495013
17,1165.0,1.4629605994523567
18,1175.0,1.436406952955212
19,1185.0,1.4252845064580673
20,1195.0,1.4036104599609225
21,1205.0,1.3821694134637783
22,1215.0,1.3600601669666335
23,1225.0,1.349201920469489
24,1235.0,1.334645073972344
25,1245.0,1.3172289274751996
26,1255.0,1.298491880978055
27,1258.92541,1.2910636523666192
28,1265.0,1.2826602194189574
29,1275.0,1.2718876743470064
30,1285.0,1.2591417292750555
31,1295.0,1.242697184203105
32,1305.0,1.2298734391311539
33,1315.0,1.2197381940592034
34,1325.0,1.2058110489872527
35,1335.0,1.1909516039153019
36,1345.0,1.180287958843351
37,1355.0,1.1668115137714004
38,1365.0,1.1522162686994497
39,1375.0,1.139377023627499
40,1385.0,1.1264133785555481
41,1395.0,1.1088810334835975
42,1405.0,1.0956998884116467
43,1415.0,1.086543543339696
44,1425.0,1.0731759982677451
45,1435.0,1.0608651531957942
46,1442.0,1.052205581645429
47,1445.43977,1.0477838106021145
48,1447.0,1.0463735894977066
49,1455.0,1.0385398324831239
50,1465.0,1.0285532862148954
51,1475.0,1.019576939946667
52,1485.0,1.0107559936784383
53,1495.0,1.0015310474102097
54,1505.0,0.9917932011419812
55,1512.0,0.9841578387542214
56,1517.0,0.9802135656201071
57,1525.0,0.9728771086055242
58,1535.0,0.9618649623372957
59,1545.0,0.9519718160690673
60,1555.0,0.9428089698008387
61,1565.0,0.9349981235326101
62,1575.0,0.9268142772643816
63,1585.0,0.9182730309961532
64,1595.0,0.9094676847279246
65,1605.0,0.8999629384596961
66,1615.0,0.8908933921914676
67,1625.0,0.8815907459232392
68,1635.0,0.8732514996550106
69,1645.0,0.8644616533867819
70,1655.0,0.8549103071185536
71,1659.58691,0.8512348866509336
72,1665.0,0.8483280826403723
73,1672.0,0.8423872453824974
74,1677.0,0.8417535187697297
75,1685.0,0.8369198761893015
76,1695.0,0.8298715229637661
77,1705.0,0.8234604697382307
78,1715.0,0.8170338165126952
79,1725.0,0.8108712632871599
80,1735.0,0.8057654100616245
81,1745.0,0.7993076568360891
82,1755.0,0.7940620036105538
83,1765.0,0.7862989503850183
84,1775.0,0.7806024971594828
85,1785.0,0.7750305439339475
86,1795.0,0.7700956907084121
87,1805.0,0.7654561374828769
88,1815.0,0.7586564842573414
89,1825.0,0.751996731031806
90,1835.0,0.7459429778062706
91,1845.0,0.7370299245807352
92,1855.0,0.7320327713552
93,1865.0,0.7274554181296644
94,1875.0,0.721681464904129
95,1885.0,0.7148973116785937
96,1895.0,0.7092476584530583
97,1905.0,0.7031317052275229
98,1905.46072,0.702871414404116
99,1915.0,0.6990566737923232
100,1925.0,0.6939387920958086
101,1935.0,0.687313410399294
102,1945.0,0.6869041287027792
103,1955.0,0.6820037470062646
104,1967.0,0.679057388970447
105,1976.0,0.6744233454435838
106,1984.0,0.670723740086372
107,1995.0,0.665681420220206
108,2005.0,0.6603303385236913
109,2015.0,0.6565333568271767
110,2025.0,0.649830375130662
111,2035.0,0.6482711934341474
112,2045.0,0.6457484117376326
113,2055.0,0.640039930041118
114,2065.0,0.6352017483446034
115,2074.0,0.6347635048177402
116,2078.0,0.6382672521391343
117,2085.0,0.637770984951574
118,2095.0,0.6310680032550595
119,2105.0,0.6253906215585447
120,2115.0,0.6242199398620302
121,2125.0,0.6171128581655154
122,2135.0,0.6105653764690009
123,2145.0,0.6118498947724861
124,2155.0,0.6068563130759715
125,2165.0,0.5985682313794569
126,2175.0,0.5943205496829422
127,2185.0,0.5955584679864276
128,2187.7616199999998,0.5948146030779546
129,2195.0,0.5939248659719508
130,2205.0,0.589369972276671
131,2215.0,0.5801842785813912
132,2225.0,0.5810528848861114
133,2235.0,0.5870341911908317
134,2245.0,0.5811739974955518
135,2255.0,0.570449703800272
136,2265.0,0.5652112101049923
137,2275.0,0.5646967164097124
138,2285.0,0.5700098227144328
139,2295.0,0.560653129019153
140,2305.0,0.5641014353238731
141,2315.0,0.5572311416285934
142,2325.0,0.5476258479333136
143,2335.0,0.5427756542380338
144,2345.0,0.5317250605427539
145,2355.0,0.5439223668474742
146,2365.0,0.5278058731521944
147,2375.0,0.5312540794569146
148,2385.0,0.516660385761635
149,2395.0,0.518585792066355
150,2405.0,0.5153362983710753
151,2415.0,0.5151016046757956
152,2425.0,0.5277340109805158
153,2435.0,0.5240494172852359
154,2445.0,0.5279638235899561
155,2455.0,0.5266413298946764
156,2465.0,0.5189318361993965
157,2475.0,0.5099481425041168
158,2485.0,0.494220048808837
159,2495.0,0.4952285551135573
160,2505.0,0.5071616614182775
161,2511.88643,0.48739485708797886
162,2513.0,0.4842854144000627
163,2518.0,0.47722361931436447
164,2525.0,0.476729386194387
165,2535.0,0.4850298960229905
166,2545.0,0.48456590585159404
167,2555.0,0.5033094156801976
168,2565.0,0.48988502550880114
169,2575.0,0.4987294353374047
170,2585.0,0.4913811451660083
171,2595.0,0.4849342549946118
172,2605.0,0.4768556648232154
173,2615.0,0.4703465746518189
174,2625.0,0.4805429844804225
175,2635.0,0.5058753943090261
176,2645.0,0.5284730041376295
177,2655.0,0.5606738139662332
178,2665.0,0.5150040237948367
179,2675.0,0.5237864336234402
180,2685.0,0.5366872434520438
181,2695.0,0.5026251532806473
182,2705.0,0.5182138631092509
183,2715.0,0.4884725729378544
184,2725.0,0.4726860827664579
185,2735.0,0.48609929259506146
186,2745.0,0.45293920242366503
187,2755.0,0.4666787122522686
188,2765.0,0.4833864220808721
189,2775.0,0.4864033319094757
190,2785.0,0.45339864173807926
191,2795.0,0.4163689515666828
192,2805.0,0.4206447613952864
193,2815.0,0.4697532712238899
194,2825.0,0.4948365810524935
195,2835.0,0.484567390881097
196,2845.0,0.45561840070970056
197,2855.0,0.4239501105383041
198,2865.0,0.4740998203669077
199,2875.0,0.5036436301955113
200,2884.0315,0.4940881314422144
201,2885.0,0.4931283697812837
202,2895.0,0.5166595952750285
203,2910.0,0.5633339335156458
204,2930.0,0.5371103845031353
205,2950.0,0.5202118354906249
206,2970.0,0.5210282864781145
207,2990.0,0.5209127374656042
208,3010.0,0.5166011884530937
209,3030.0,0.5258096394405833
210,3050.0,0.531600090428073
211,3070.0,0.5439155414155625
212,3090.0,0.5330779924030522
213,3110.0,0.5620224433905417
214,3130.0,0.5413938943780314
215,3150.0,0.538636345365521
216,3170.0,0.5581017963530106
217,3190.0,0.5264392473405002
218,3210.0,0.5432626983279899
219,3230.0,0.5098921493154794
220,3250.0,0.5811046003029691
221,3270.0,0.6226360512904586
222,3290.0,0.6150615022779482
223,3310.0,0.5900819532654379
224,3311.31121,0.5904105720584032
225,3330.0,0.5959730143952797
226,3350.0,0.582811719023965
227,3370.0,0.5082674236526503
228,3390.0,0.5378411282813357
229,3410.0,0.5430168329100211
230,3430.0,0.5604705375387065
231,3450.0,0.5664222421673918
232,3470.0,0.5753279467960772
233,3490.0,0.6086316514247625
234,3510.0,0.6298133560534479
235,3530.0,0.5931860606821332
236,3550.0,0.6410977653108185
237,3570.0,0.5295684699395039
238,3590.0,0.5291501745681892
239,3610.0,0.5898028791968746
240,3630.0,0.60399258382556
241,3640.0,0.6190119361399027
242,3650.0,0.6585852884542454
243,3670.0,0.6810109930829307
244,3690.0,0.6406546977116161
245,3710.0,0.6610594023403014
246,3730.0,0.5343011069689868
247,3750.0,0.5710228115976722
248,3770.0,0.6545205162263574
249,3790.0,0.6656022208550428
250,3801.8939600000003,0.6525995681263124
251,3810.0,0.6440063260637008
252,3830.0,0.49009325436750395
253,3850.0,0.5708341826713071
254,3870.0,0.5634631109751104
255,3890.0,0.6177870392789135
256,3910.0,0.6954199675827167
257,3930.0,0.4796568958865199
258,3950.0,0.6435368241903231
259,3970.0,0.5196157524941263
260,3990.0,0.8103016807979294
261,4010.0,0.8627606091017326
262,4030.0,0.8510385374055358
263,4050.0,0.826573465709339
264,4070.0,0.7929403940131421
265,4090.0,0.9119093223169452
266,4110.0,0.8670862506207485
267,4130.0,0.8564531789245516
268,4150.0,0.8392911072283548
269,4170.0,0.850413035532158
270,4190.0,0.8306099638359612
271,4210.0,0.8342728921397643
272,4230.0,0.8025048204435676
273,4250.0,0.8322737487473708
274,4270.0,0.7959986770511739
275,4290.0,0.755838605354977
276,4310.0,0.6800915336587803
277,4330.0,0.8904354619625834
278,4350.0,0.8821333902663866
279,4365.15832,0.9243651733626906
280,4370.0,0.9379702495233161
281,4390.0,0.8586620651270909
282,4410.0,0.8999438807308657
283,4430.0,0.9609616963346405
284,4450.0,0.9632385119384151
285,4470.0,1.0129123275421898
286,4490.0,1.0333701431459648
287,4510.0,1.1385209587497394
288,4530.0,1.0236267743535143
289,4550.0,1.0628885899572889
290,4570.0,1.1262374055610638
291,4590.0,1.0789412211648384
292,4610.0,1.1011090367686132
293,4630.0,1.0852048523723878
294,4650.0,1.0924526679761628
295,4670.0,1.1303164835799375
296,4690.0,1.1168982991837122
297,4710.0,1.0894931147874871
298,4730.0,1.1136809303912618
299,4750.0,1.1392677459950367
300,4770.0,1.1232065615988114
301,4790.0,1.125483377202586
302,4810.0,1.1282261928063608
303,4830.0,1.1535030084101356
304,4850.0,1.1094698240139103
305,4870.0,1.0328036396176852
306,4890.0,1.12070445522146
307,4910.0,1.1209612708252346
308,4930.0,1.0988410864290095
309,4950.0,1.1346839020327841
310,4970.0,1.119710717636559
311,4990.0,1.0556315332403337
312,5010.0,1.0081803488441083
313,5011.87234,1.0130052581444868
314,5030.0,1.0600226374056232
315,5050.0,1.0525322705840217
316,5070.0,1.08777790376242
317,5090.0,1.039573536940818
318,5110.0,1.0597451701192164
319,5130.0,1.0297218032976148
320,5150.0,0.9941054364760131
321,5170.0,0.9314490696544114
322,5190.0,0.9606337028328098
323,5210.0,1.0235413360112082
324,5230.0,1.0923529691896063
325,5250.0,1.1339686023680047
326,5270.0,1.021429235546403
327,5290.0,1.1446308687248012
328,5310.0,1.2033355019031995
329,5330.0,1.081478135081598
330,5350.0,1.1645807682599962
331,5370.0,1.1561634014383948
332,5390.0,1.135932034616793
333,5410.0,1.1197406677951913
334,5430.0,1.1308983009735896
335,5450.0,1.1549539341519879
336,5470.0,1.1396955673303861
337,5490.0,1.1469692005087846
338,5510.0,1.1334188336871829
339,5530.0,1.168664466865581
340,5550.0,1.1821471000439796
341,5570.0,1.1572597332223777
342,5590.0,1.1314323664007762
343,5610.0,1.1640349995791746
344,5630.0,1.1624476327575728
345,5650.0,1.177340265935971
346,5670.0,1.1508928991143694
347,5690.0,1.1800755322927676
348,5710.0,1.143838165471166
349,5730.0,1.2232207986495642
350,5750.0,1.1880634318279626
351,5754.399369999999,1.1897313722742648
352,5770.0,1.1958290794120279
353,5790.0,1.1578063369686302
354,5810.0,1.1946835945252328
355,5830.0,1.2205308520818352
356,5850.0,1.1871681096384374
357,5870.0,1.1845753671950399
358,5890.0,1.061705624751642
359,5910.0,1.1643198823082446
360,5930.0,1.1736871398648467
361,5950.0,1.1740443974214492
362,5970.0,1.1901016549780514
363,5990.0,1.1749289125346538
364,6010.0,1.1609861700912565
365,6030.0,1.1849634276478587
366,6050.0,1.203200685204461
367,6070.0,1.1979679427610634
368,6090.0,1.1649152003176657
369,6110.0,1.1682224578742681
370,6130.0,1.1121747154308705
371,6150.0,1.1392569729874726
372,6170.0,1.0824362305440751
373,6190.0,1.1393614881006775
374,6210.0,1.13039874565728
375,6230.0,1.0999870032138823
376,6250.0,1.0711322607704845
377,6270.0,1.1128275183270868
378,6290.0,1.1285677758836894
379,6310.0,1.1056220334402918
380,6330.0,1.118722290996894
381,6350.0,1.1245195485534962
382,6370.0,1.1189768061100986
383,6390.0,1.131144063666701
384,6410.0,1.1117713212233036
385,6430.0,1.1202085787799059
386,6450.0,1.113415836336508
387,6470.0,1.1095830938931106
388,6490.0,1.0908333514497128
389,6510.0,1.1249076090063153
390,6530.0,1.1269848665629174
391,6550.0,1.0998361241195198
392,6570.0,1.0420773816761222
393,6590.0,1.1056846392327246
394,6606.93448,1.112567876708081
395,6610.0,1.1138405003282288
396,6630.0,1.1048943241241769
397,6650.0,1.1027861479201249
398,6670.0,1.080630971716073
399,6690.0,1.092662795512021
400,6710.0,1.0563666193079688
401,6730.0,1.0783454431039168
402,6750.0,1.0619402668998648
403,6770.0,1.0666690906958127
404,6790.0,1.0564789144917608
405,6810.0,1.0598097382877087
406,6830.0,1.0702885620836566
407,6850.0,1.0472003858796048
408,6870.0,1.0604772096755526
409,6890.0,1.0728210334715007
410,6910.0,1.0704018572674487
411,6930.0,1.0642526810633965
412,6950.0,1.0635425048593448
413,6970.0,1.0754203286552926
414,6990.0,1.0709811524512405
415,7010.0,1.0597029762471886
416,7030.0,1.0781078000431366
417,7050.0,1.0795736238390845
418,7070.0,1.0496474476350326
419,7090.0,1.0212762714309804
420,7110.0,1.0009870952269286
421,7130.0,0.9819389190228764
422,7150.0,0.9774997428188246
423,7170.0,0.9889105666147725
424,7190.0,0.9686203904107205
425,7210.0,0.9857812142066685
426,7230.0,1.0065160380026166
427,7250.0,1.0118668617985644
428,7270.0,1.0193936855945125
429,7290.0,1.0085825093904603
430,7310.0,1.0332033331864083
431,7330.0,1.0356011569823564
432,7350.0,1.0445249807783044
433,7370.0,1.0674368045742524
434,7390.0,1.0513416283702002
435,7410.0,1.0479904521661483
436,7430.0,1.0713672759620962
437,7450.0,1.0706580997580444
438,7470.0,1.0848659235539924
439,7490.0,1.0827567473499402
440,7510.0,1.0908975711458881
441,7530.0,1.1044883949418363
442,7550.0,1.111079218737784
443,7570.0,1.1061800425337323
444,7585.77575,1.0887043164836787
445,7590.0,1.0840507056153617
446,7610.0,1.066679867273327
447,7630.0,1.0455790289312925
448,7650.0,1.0254111905892582
449,7670.0,0.9808453522472237
450,7690.0,1.0024795139051892
451,7710.0,0.9846426755631548
452,7730.0,0.9888728372211203
453,7750.0,0.9820689988790858
454,7770.0,0.9937581605370512
455,7790.0,0.9982983221950169
456,7810.0,0.9987984838529824
457,7830.0,0.991372645510948
458,7850.0,0.9816178071689134
459,7870.0,0.9956369688268789
460,7890.0,0.9860371304848445
461,7910.0,0.96695629214281
462,7930.0,0.9697874538007755
463,7950.0,0.9640716154587411
464,7970.0,0.9908347771167066
465,7990.0,0.9910229387746721
466,8010.0,1.0027121004326376
467,8030.0,1.0064762620906031
468,8050.0,1.0058884237485688
469,8070.0,1.0185095854065342
470,8090.0,1.0117067470644998
471,8110.0,1.0212199087224654
472,8130.0,1.043942070380431
473,8150.0,1.0542322320383963
474,8170.0,1.0604823936963619
475,8190.0,1.0275705553543275
476,8210.0,1.021700717012293
477,8230.0,1.0254628786702584
478,8250.0,1.024565040328224
479,8270.0,1.0314362019861896
480,8290.0,1.021681363644155
481,8310.0,0.9954515253021207
482,8330.0,0.9853846869600862
483,8350.0,0.9871278486180516
484,8370.0,0.9898040102760173
485,8390.0,0.9584471719339827
486,8410.0,0.9870743335919483
487,8430.0,0.9465484952499138
488,8450.0,0.9319756569078793
489,8470.0,0.9299898185658448
490,8490.0,0.9342189802238103
491,8510.0,0.8997541418817758
492,8530.0,0.9328883035397415
493,8550.0,0.862837465197707
494,8570.0,0.9561106268556725
495,8590.0,0.9475977885136381
496,8610.0,0.9549359501716035
497,8630.0,0.9689561118295691
498,8650.0,0.9702332734875346
499,8670.0,0.8843304351455
500,8690.0,0.9488555968034657
501,8709.6359,0.9777254374934469
502,8710.0,0.9782624828295291
503,8730.0,0.9842953639655508
504,8750.0,0.9766552451015724
505,8770.0,0.989836126237594
506,8790.0,0.9982020073736155
507,8810.0,0.9812358885096372
508,8830.0,0.9880467696456589
509,8850.0,0.9877096507816804
510,8870.0,0.956447531917702
511,8890.0,0.9671434130537236
512,8910.0,0.9745762941897452
513,8930.0,0.9610291753257668
514,8950.0,0.9610030564617885
515,8970.0,0.96439493759781
516,8990.0,0.9657668187338316
517,9010.0,0.9397886998698533
518,9030.0,0.9694425810058749
519,9050.0,0.9917934621418965
520,9070.0,0.9903683432779181
521,9090.0,0.9735592244139396
522,9110.0,0.9842541055499613
523,9130.0,0.996037986685983
524,9150.0,0.9905718678220045
525,9170.0,0.9896127489580261
526,9190.0,0.9968906300940477
527,9210.0,0.9671825112300694
528,9230.0,0.947419392366091
529,9250.0,0.9439742735021126
530,9270.0,0.9478321546381341
531,9290.0,0.9361510357741558
532,9310.0,0.9406299169101773
533,9330.0,0.941535798046199
534,9350.0,0.9373146791822206
535,9370.0,0.9234565603182422
536,9390.0,0.9377264414542638
537,9410.0,0.9232473225902854
538,9430.0,0.941091203726307
539,9450.0,0.9292550848623286
540,9470.0,0.9458559659983501
541,9490.0,0.9464508471343718
542,9510.0,0.9338367282703933
543,9530.0,0.937694609406415
544,9550.0,0.9227494905424366
545,9570.0,0.9300273716784582
546,9590.0,0.9427422528144798
547,9610.0,0.9307511339505015
548,9630.0,0.935074015086523
549,9650.0,0.9177988962225446
550,9670.0,0.9183937773585662
551,9690.0,0.9303326584945878
552,9710.0,0.9178735396306095
553,9730.0,0.909455420766631
554,9750.0,0.9070973019026527
555,9770.0,0.9104901830386742
556,9790.0,0.8977200641746959
557,9810.0,0.9169629453107174
558,9830.0,0.909632826446739
559,9850.0,0.9138017075827607
560,9870.0,0.9075585887187823
561,9890.0,0.9061334698548038
562,9910.0,0.8960053509908255
563,9930.0,0.900796232126847
564,9950.0,0.9024791132628687
565,9970.0,0.9016759943988902
566,9990.0,0.8993178755349119
567,10000.0,0.8984885661029227
568,10030.0,0.8961065821605866
569,10070.0,0.885628603570805
570,10130.0,0.8905771356861325
571,10170.0,0.8799421570963509
572,10220.0,0.8801294338591239
573,10280.0,0.8799509659744515
574,10320.0,0.86853898738467
575,10380.0,0.8619885194999976
576,10430.0,0.8637297962627706
577,10480.0,0.8524180730255436
578,10520.0,0.845823094435762
579,10580.0,0.8315026265510895
580,10630.0,0.8242309033138626
581,10680.0,0.8150941800766356
582,10720.0,0.817202201486854
583,10780.0,0.8101867336021816
584,10820.0,0.7989297550124
585,10870.0,0.796009031775173
586,10920.0,0.794331308537946
587,10980.0,0.7842068406532736
588,11020.0,0.779632862063492
589,11080.0,0.7695083941788197
590,11130.0,0.7650336709415926
591,11170.0,0.758749692351811
592,11220.0,0.757383969114584
593,11280.0,0.7471035012299116
594,11330.0,0.7452707779926846
595,11380.0,0.7376890547554577
596,11430.0,0.7293293315182307
597,11470.0,0.7360993529284491
598,11481.5362,0.735407475508263
599,11530.0,0.7326302162661693
600,11570.0,0.7242779822753607
601,11620.0,0.7129436897868499
602,11670.0,0.7117103972983391
603,11730.0,0.7134010463121262
604,11770.0,0.6986778123213175
605,11830.0,0.6925984613351046
606,11870.0,0.681603227344296
607,11920.0,0.6896949348557851
608,11980.0,0.6683855838695723
609,12030.0,0.6780302913810615
610,12070.0,0.6721640573902529
611,12120.0,0.6715527649017421
612,12180.0,0.6713784139155292
613,12230.0,0.6668821214270183
614,12270.0,0.6616368874362097
615,12320.0,0.6568305949476989
616,12370.0,0.6541993024591881
617,12430.0,0.6451669514729752
618,12480.0,0.6430016589844645
619,12530.0,0.6369503664959536
620,12580.0,0.6346300740074429
621,12620.0,0.6304728400166342
622,12670.0,0.6248885475281235
623,12720.0,0.6239662550396127
624,12780.0,0.6227049040533997
625,12830.0,0.6046886115648891
626,12880.0,0.6116913190763782
627,12920.0,0.6052040850855696
628,12980.0,0.6089147340993566
629,13020.0,0.602115500108548
630,13080.0,0.6019411491223351
631,13130.0,0.5896748566338242
632,13180.0,0.5878195641453134
633,13182.5674,0.5877881754986134
634,13230.0,0.5872988195808296
635,13280.0,0.5777699761337238
636,13320.0,0.5763321013760392
637,13380.0,0.5706772892395122
638,13430.0,0.5714044457924065
639,13470.0,0.5668585710347218
640,13520.0,0.562301727587616
641,13570.0,0.5555698841405101
642,13630.0,0.5520910720039832
643,13670.0,0.5537601972462985
644,13730.0,0.5541663851097716
645,13770.0,0.552417510352087
646,13820.0,0.5520566669049812
647,13880.0,0.5467128547684542
648,13930.0,0.5287930113213484
649,13970.0,0.5254891365636638
650,14020.0,0.520466293116558
651,14080.0,0.523204480980031
652,14120.0,0.5172586062223463
653,14180.0,0.5204627940858194
654,14230.0,0.5154399506387136
655,14280.0,0.5082411071916079
656,14330.0,0.5144072637445021
657,14380.0,0.5174664202973962
658,14420.0,0.5070145455397116
659,14480.0,0.5131707334031846
660,14520.0,0.5090898586454999
661,14570.0,0.5105940151983942
662,14620.0,0.5024641717512884
663,14670.0,0.4994613283041826
664,14720.0,0.49537148485707677
