,lambda (Angstroms),Total Flux (erg/s/cm^2/Angstrom)
0,1005.0,0.04966974585883122
1,1015.0,0.050119330238387376
2,1025.0,0.03978401461794353
3,1035.0,0.045159798997499695
4,1045.0,0.05313068337705585
5,1055.0,0.051062667756612
6,1065.0,0.04568485213616816
7,1075.0,0.047564036515724314
8,1085.0,0.04286982089528047
9,1095.0,0.047142205274836625
10,1096.4782,0.04683421999582261
11,1105.0,0.045056664815419596
12,1115.0,0.04398097312539752
13,1125.0,0.04001478143537544
14,1135.0,0.043911789745353355
15,1145.0,0.04201249805533128
16,1155.0,0.0415117063653092
17,1165.0,0.040715614675287115
18,1175.0,0.03188542298526503
19,1185.0,0.038486431295242964
20,1195.0,0.03453583960522088
21,1205.0,0.0308182479151988
22,1215.0,0.026432456225176718
23,1225.0,0.03329766453515464
24,1235.0,0.03646427284513255
25,1245.0,0.03677158115511048
26,1255.0,0.035757989465088395
27,1258.92541,0.03528694352709543
28,1265.0,0.03456026970310294
29,1275.0,0.0364252180647331
30,1285.0,0.03631676642636327
31,1295.0,0.032509714787993436
32,1305.0,0.032323463149623595
33,1315.0,0.034825711511253764
34,1325.0,0.033536059872883925
35,1335.0,0.03131410823451409
36,1345.0,0.03328795659614426
37,1355.0,0.03244900495777442
38,1365.0,0.030491253319404586
39,1375.0,0.03028950168103475
40,1385.0,0.029963350042664913
41,1395.0,0.025068498404295078
42,1405.0,0.024524846765925243
43,1415.0,0.02800599512755541
44,1425.0,0.027275943489185574
45,1435.0,0.027602591850815737
46,1442.0,0.027789265703956855
47,1445.43977,0.027714501739445317
48,1447.0,0.027680583657228853
49,1455.0,0.026903750415122454
50,1465.0,0.02573835886248945
51,1475.0,0.02558316730985645
52,1485.0,0.02558337575722345
53,1495.0,0.02517958420459045
54,1505.0,0.024262892651957448
55,1512.0,0.022802338565114346
56,1517.0,0.023268642788797846
57,1525.0,0.022989109546691443
58,1535.0,0.02079811799405844
59,1545.0,0.01972612644142544
60,1555.0,0.01938443488879244
61,1565.0,0.02039474333615944
62,1575.0,0.021032051783526438
63,1585.0,0.021311960230893438
64,1595.0,0.021327768678260434
65,1605.0,0.020644177125627432
66,1615.0,0.020395785572994433
67,1625.0,0.01991429402036143
68,1635.0,0.02039620246772843
69,1645.0,0.02042751091509543
70,1655.0,0.019697319362462426
71,1659.58691,0.02006808317249364
72,1665.0,0.020506338984152606
73,1672.0,0.018891204560618678
74,1677.0,0.021347265686665874
75,1685.0,0.021457283488341385
76,1695.0,0.02058850574043578
77,1705.0,0.02035702799253017
78,1715.0,0.020109950244624558
79,1725.0,0.02012697249671895
80,1735.0,0.02120069474881334
81,1745.0,0.02092251700090773
82,1755.0,0.02185643925300212
83,1765.0,0.020272961505096512
84,1775.0,0.020756083757190905
85,1785.0,0.021363706009285294
86,1795.0,0.022608428261379685
87,1805.0,0.024148450513474078
88,1815.0,0.02352837276556847
89,1825.0,0.023048195017662858
90,1835.0,0.02317401726975725
91,1845.0,0.02044053952185164
92,1855.0,0.021622961773946032
93,1865.0,0.023225184026040423
94,1875.0,0.02363080627813481
95,1885.0,0.023026228530229204
96,1895.0,0.023556150782323593
97,1905.0,0.023619773034417986
98,1905.46072,0.023644187612416483
99,1915.0,0.024146371370203357
100,1925.0,0.023553909170317074
101,1935.0,0.021453946970430793
102,1945.0,0.02557008477054451
103,1955.0,0.02519512257065823
104,1967.0,0.027679267930794692
105,1976.0,0.02711810195089704
106,1984.0,0.027038832190988012
107,1995.0,0.026974473771113103
108,2005.0,0.02614881157122682
109,2015.0,0.026877249371340537
110,2025.0,0.024699687171454255
111,2035.0,0.027665924971567973
112,2045.0,0.02966856277168169
113,2055.0,0.02848550057179541
114,2065.0,0.02817273837190913
115,2074.0,0.03180737239201147
116,2078.0,0.03712128751205696
117,2085.0,0.03979281397213657
118,2095.0,0.03761525177225028
119,2105.0,0.036463289572364
120,2115.0,0.03981802737247772
121,2125.0,0.037236365172591435
122,2135.0,0.035214302972705155
123,2145.0,0.041024240772818875
124,2155.0,0.04055607857293259
125,2165.0,0.036793416373046305
126,2175.0,0.03707115417316002
127,2185.0,0.04283449197327375
128,2187.7616199999998,0.04334037596382871
129,2195.0,0.044668882494626486
130,2205.0,0.0431785469419168
131,2215.0,0.037057411389207116
132,2225.0,0.040990575836497435
133,2235.0,0.05003644028378776
134,2245.0,0.04724080473107808
135,2255.0,0.03958106917836839
136,2265.0,0.037407133625658714
137,2275.0,0.039957198072949035
138,2285.0,0.04833486252023936
139,2295.0,0.04204272696752968
140,2305.0,0.04855559141481999
141,2315.0,0.04474985586211031
142,2325.0,0.03820912030940063
143,2335.0,0.036423484756690945
144,2345.0,0.028437449203981266
145,2355.0,0.04369931365127158
146,2365.0,0.030647378098561905
147,2375.0,0.037160142545852225
148,2385.0,0.025631006993142542
149,2395.0,0.03062097144043286
150,2405.0,0.030436035887723183
151,2415.0,0.033265900335013504
152,2425.0,0.04896286478230382
153,2435.0,0.04834282922959414
154,2445.0,0.05532179367688446
155,2455.0,0.05706385812417478
156,2465.0,0.05241892257146509
157,2475.0,0.04649978701875542
158,2485.0,0.033836251466045734
159,2495.0,0.03790931591333606
160,2505.0,0.052906980360626375
161,2511.88643,0.035250562543301674
162,2513.0,0.032395190281610316
163,2518.0,0.02647418754046514
164,2525.0,0.0275770637028619
165,2535.0,0.03815915822057155
166,2545.0,0.03997675273828121
167,2555.0,0.06100184725599086
168,2565.0,0.04985904177370051
169,2575.0,0.060985036291410166
170,2585.0,0.05591833080911982
171,2595.0,0.05175302532682948
172,2605.0,0.045956019844539134
173,2615.0,0.04172851436224878
174,2625.0,0.05420650887995844
175,2635.0,0.0818205033976681
176,2645.0,0.10669969791537774
177,2655.0,0.1411820924330874
178,2665.0,0.09779388695079705
179,2675.0,0.1088578814685067
180,2685.0,0.12404027598621635
181,2695.0,0.09225977050392602
182,2705.0,0.11013006502163568
183,2715.0,0.08267035953934533
184,2725.0,0.06916545405705497
185,2735.0,0.08486024857476462
186,2745.0,0.053981743092474284
187,2755.0,0.07000283761018393
188,2765.0,0.08899213212789359
189,2775.0,0.09429062664560324
190,2785.0,0.06356752116331289
191,2795.0,0.02881941568102255
192,2805.0,0.035376810198732206
193,2815.0,0.08676690471644186
194,2825.0,0.11413179923415152
195,2835.0,0.10614419375186117
196,2845.0,0.07947678826957083
197,2855.0,0.05009008278728047
198,2865.0,0.10252137730499013
199,2875.0,0.13434677182269977
200,2884.0315,0.1268518862813692
201,2885.0,0.12604822378126881
202,2895.0,0.1511912113899373
203,2910.0,0.20028319280294
204,2930.0,0.17728316802027697
205,2950.0,0.1636081432376139
206,2970.0,0.1676481184549509
207,2990.0,0.17075609367228786
208,3010.0,0.16966806888962482
209,3030.0,0.1821000441069618
210,3050.0,0.19111401932429875
211,3070.0,0.20665299454163572
212,3090.0,0.19903896975897267
213,3110.0,0.23120694497630964
214,3130.0,0.2138019201936466
215,3150.0,0.21426789541098357
216,3170.0,0.23695687062832055
217,3190.0,0.2085178458456575
218,3210.0,0.22856482106299447
219,3230.0,0.19841779628033143
220,3250.0,0.2728537714976684
221,3270.0,0.31760874671500533
222,3290.0,0.3132577219323423
223,3310.0,0.2915016971496793
224,3311.31121,0.29204165180291547
225,3330.0,0.29973725283509006
226,3350.0,0.2888587790860401
227,3370.0,0.21659730533699
228,3390.0,0.24845383158794
229,3410.0,0.25591235783889
230,3430.0,0.27564888408983995
231,3450.0,0.28388341034078995
232,3470.0,0.2950719365917399
233,3490.0,0.33065846284268985
234,3510.0,0.3541229890936399
235,3530.0,0.31977851534458984
236,3550.0,0.3699730415955398
237,3570.0,0.2607265678464898
238,3590.0,0.26259109409743975
239,3610.0,0.3255266203483897
240,3630.0,0.3419991465993397
241,3640.0,0.35815990972481465
242,3650.0,0.39887467285028966
243,3670.0,0.4235831991012396
244,3690.0,0.38550972535218964
245,3710.0,0.4081972516031396
246,3730.0,0.28372177785408953
247,3750.0,0.32272630410503955
248,3770.0,0.4085068303559895
249,3790.0,0.42187135660693953
250,3801.8939600000003,0.4102262933313266
251,3810.0,0.402289922865759
252,3830.0,0.24999754782796502
253,3850.0,0.3323591727901711
254,3870.0,0.32660879775237706
255,3890.0,0.38255342271458315
256,3910.0,0.4618070476767892
257,3930.0,0.24766467263899522
258,3950.0,0.4131652976012013
259,3970.0,0.2908649225634073
260,3990.0,0.5831715475256134
261,4010.0,0.6372511724878195
262,4030.0,0.6271497974500254
263,4050.0,0.6043054224122315
264,4070.0,0.5722930473744375
265,4090.0,0.6928826723366436
266,4110.0,0.6496802972988497
267,4130.0,0.6406679222610556
268,4150.0,0.6251265472232617
269,4170.0,0.6378691721854678
270,4190.0,0.6196867971476738
271,4210.0,0.6249704221098799
272,4230.0,0.5948230470720859
273,4250.0,0.626212672034292
274,4270.0,0.591558296996498
275,4290.0,0.5530189219587041
276,4310.0,0.4788925469209101
277,4330.0,0.6908571718831161
278,4350.0,0.6841757968453221
279,4365.15832,0.7276359318701763
280,4370.0,0.7415175645286597
281,4390.0,0.6633517790429697
282,4410.0,0.7057759935572798
283,4430.0,0.7679362080715898
284,4450.0,0.7713554225858997
285,4470.0,0.8221716371002097
286,4490.0,0.8437718516145197
287,4510.0,0.9500650661288297
288,4530.0,0.8363132806431397
289,4550.0,0.8767174951574497
290,4570.0,0.9412087096717597
291,4590.0,0.8950549241860697
292,4610.0,0.9183651387003797
293,4630.0,0.9036033532146897
294,4650.0,0.9119935677289996
295,4670.0,0.9509997822433096
296,4690.0,0.9387239967576196
297,4710.0,0.9124612112719296
298,4730.0,0.9377914257862398
299,4750.0,0.9645206403005497
300,4770.0,0.9496018548148597
301,4790.0,0.9530210693291696
302,4810.0,0.9569062838434796
303,4830.0,0.9833254983577896
304,4850.0,0.9404347128720996
305,4870.0,0.8649109273864096
306,4890.0,0.9539541419007197
307,4910.0,0.9553533564150296
308,4930.0,0.9343755709293396
309,4950.0,0.9713607854436496
310,4970.0,0.9575299999579596
311,4990.0,0.8945932144722696
312,5010.0,0.8482844289865795
313,5011.87234,0.8532162862457654
314,5030.0,0.90096568257183
315,5050.0,0.8942829401925754
316,5070.0,0.9303361978133208
317,5090.0,0.8829394554340662
318,5110.0,0.9039187130548116
319,5130.0,0.874702970675557
320,5150.0,0.8398942282963024
321,5170.0,0.7780454859170479
322,5190.0,0.8080377435377933
323,5210.0,0.8717530011585388
324,5230.0,0.9413722587792843
325,5250.0,0.9837955164000297
326,5270.0,0.8720637740207751
327,5290.0,0.9960730316415205
328,5310.0,1.055585289262266
329,5330.0,0.9345355468830114
330,5350.0,1.0184458045037568
331,5370.0,1.0108360621245023
332,5390.0,0.9914123197452477
333,5410.0,0.9760285773659931
334,5430.0,0.9879938349867387
335,5450.0,1.012857092607484
336,5470.0,0.9984063502282294
337,5490.0,1.0064876078489748
338,5510.0,0.9937448654697204
339,5530.0,1.0297981230904658
340,5550.0,1.0440883807112114
341,5570.0,1.0200086383319567
342,5590.0,0.9949888959527021
343,5610.0,1.0283991535734476
344,5630.0,1.027619411194193
345,5650.0,1.0433196688149382
346,5670.0,1.017679926435684
347,5690.0,1.0476701840564293
348,5710.0,1.0122404416771746
349,5730.0,1.09243069929792
350,5750.0,1.0580809569186655
351,5754.399369999999,1.0599265493021142
352,5770.0,1.0664715254051882
353,5790.0,1.0290221815557075
354,5810.0,1.066472837706227
355,5830.0,1.0928934938567463
356,5850.0,1.0601041500072654
357,5870.0,1.058084806157785
358,5890.0,0.9357884623083043
359,5910.0,1.0389761184588235
360,5930.0,1.0489167746093426
361,5950.0,1.0498474307598622
362,5970.0,1.0664780869103814
363,5990.0,1.0518787430609007
364,6010.0,1.0385093992114203
365,6030.0,1.0630600553619394
366,6050.0,1.0818707115124586
367,6070.0,1.0772113676629782
368,6090.0,1.0447320238134974
369,6110.0,1.0486126799640167
370,6130.0,0.9931383361145361
371,6150.0,1.0207939922650553
372,6170.0,0.9645466484155747
373,6190.0,1.022045304566094
374,6210.0,1.0136559607166133
375,6230.0,0.9838176168671326
376,6250.0,0.9555362730176519
377,6270.0,0.9978049291681712
378,6290.0,1.0141185853186907
379,6310.0,0.9917462414692099
380,6330.0,1.005419897619729
381,6350.0,1.0117905537702485
382,6370.0,1.0068212099207678
383,6390.0,1.019561866071287
384,6410.0,1.0007625222218064
385,6430.0,1.0097731783723258
386,6450.0,1.003553834522845
387,6470.0,1.0002944906733644
388,6490.0,0.9821181468238837
389,6510.0,1.016765802974403
390,6530.0,1.0194164591249222
391,6550.0,0.9928411152754416
392,6570.0,0.9356557714259609
393,6590.0,0.9998364275764803
394,6606.93448,1.0072051754028726
395,6610.0,1.0085389837336305
396,6630.0,0.9999919875095519
397,6650.0,0.998282991285473
398,6670.0,0.9765269950613942
399,6690.0,0.9889579988373155
400,6710.0,0.9530610026132366
401,6730.0,0.9754390063891578
402,6750.0,0.959433010165079
403,6770.0,0.9645610139410002
404,6790.0,0.9547700177169214
405,6810.0,0.9585000214928425
406,6830.0,0.9693780252687637
407,6850.0,0.946689029044685
408,6870.0,0.960365032820606
409,6890.0,0.9731080365965273
410,6910.0,0.9710880403724484
411,6930.0,0.9653380441483697
412,6950.0,0.965027047924291
413,6970.0,0.9773040517002121
414,6990.0,0.9732640554761333
415,7010.0,0.9623850592520544
416,7030.0,0.9811890630279757
417,7050.0,0.9830540668038968
418,7070.0,0.953527070579818
419,7090.0,0.9255550743557391
420,7110.0,0.9056650781316604
421,7130.0,0.8870160819075815
422,7150.0,0.8829760856835028
423,7170.0,0.894786089459424
424,7190.0,0.8748950932353452
425,7210.0,0.8924550970112664
426,7230.0,0.9135891007871876
427,7250.0,0.9193391045631086
428,7270.0,0.92726510833903
429,7290.0,0.916853112114951
430,7310.0,0.9418731158908723
431,7330.0,0.9446701196667935
432,7350.0,0.9539931234427147
433,7370.0,0.9773041272186358
434,7390.0,0.961608130994557
435,7410.0,0.9586561347704782
436,7430.0,0.9824321385463994
437,7450.0,0.9821221423223205
438,7470.0,0.9967291460982418
439,7490.0,0.995019149874163
440,7510.0,1.003559153650084
441,7530.0,1.0175491574260054
442,7550.0,1.0245391612019266
443,7570.0,1.0200391649778477
444,7585.77575,1.0028783071062473
445,7590.0,0.9982832243445791
446,7610.0,0.981189491318986
447,7630.0,0.9603657582933929
448,7650.0,0.9404750252677998
449,7670.0,0.8961862922422068
450,7690.0,0.9180975592166135
451,7710.0,0.9005378261910205
452,7730.0,0.9050450931654274
453,7750.0,0.8985183601398343
454,7770.0,0.9104846271142412
455,7790.0,0.9153018940886481
456,7810.0,0.9160791610630551
457,7830.0,0.9089304280374619
458,7850.0,0.8994526950118689
459,7870.0,0.9137489619862758
460,7890.0,0.9044262289606826
461,7910.0,0.8856224959350895
462,7930.0,0.8887307629094964
463,7950.0,0.8832920298839033
464,7970.0,0.9103322968583103
465,7990.0,0.9107975638327171
466,8010.0,0.9227638308071241
467,8030.0,0.926805097781531
468,8050.0,0.9264943647559379
469,8070.0,0.9393926317303448
470,8090.0,0.9328668987047516
471,8110.0,0.9426571656791586
472,8130.0,0.9656564326535655
473,8150.0,0.9762236996279724
474,8170.0,0.9827509666023793
475,8190.0,0.9501162335767862
476,8210.0,0.9445235005511932
477,8230.0,0.9485627675256001
478,8250.0,0.9479420345000069
479,8270.0,0.9550903014744139
480,8290.0,0.9456125684488207
481,8310.0,0.9196598354232276
482,8330.0,0.9098701023976346
483,8350.0,0.9118903693720414
484,8370.0,0.9148436363464484
485,8390.0,0.8837639033208552
486,8410.0,0.9126681702952621
487,8430.0,0.8724194372696691
488,8450.0,0.858123704244076
489,8470.0,0.8564149712184829
490,8490.0,0.8609212381928897
491,8510.0,0.8267335051672966
492,8530.0,0.8601447721417036
493,8550.0,0.7903710391161105
494,8570.0,0.8839213060905173
495,8590.0,0.8756855730649243
496,8610.0,0.8833008400393312
497,8630.0,0.8975981070137381
498,8650.0,0.8991523739881451
499,8670.0,0.8135266409625519
500,8690.0,0.8783289079369587
501,8709.6359,0.9074708092410956
502,8710.0,0.9080111839705498
503,8730.0,0.9142269485656203
504,8750.0,0.9067697131606907
505,8770.0,0.920133477755761
506,8790.0,0.9286822423508314
507,8810.0,0.9118990069459018
508,8830.0,0.9188927715409722
509,8850.0,0.9187385361360425
510,8870.0,0.8876593007311129
511,8890.0,0.8985380653261833
512,8910.0,0.9061538299212536
513,8930.0,0.8927895945163241
514,8950.0,0.8929463591113945
515,8970.0,0.8965211237064649
516,8990.0,0.8980758883015352
517,9010.0,0.8722806528966056
518,9030.0,0.902117417491676
519,9050.0,0.9246511820867463
520,9070.0,0.9234089466818167
521,9090.0,0.906782711276887
522,9110.0,0.9176604758719574
523,9130.0,0.9296272404670279
524,9150.0,0.9243440050620982
525,9170.0,0.9235677696571687
526,9190.0,0.931028534252239
527,9210.0,0.9015032988473094
528,9230.0,0.8819230634423798
529,9250.0,0.8786608280374502
530,9270.0,0.8827015926325205
531,9290.0,0.8712033572275909
532,9310.0,0.8758651218226612
533,9330.0,0.8769538864177318
534,9350.0,0.8729156510128021
535,9370.0,0.8592404156078725
536,9390.0,0.8736931802029428
537,9410.0,0.8593969447980132
538,9430.0,0.8774237093930836
539,9450.0,0.8657704739881539
540,9470.0,0.8825542385832242
541,9490.0,0.8833320031782946
542,9510.0,0.8709007677733651
543,9530.0,0.8749415323684355
544,9550.0,0.8601792969635059
545,9570.0,0.8676400615585762
546,9590.0,0.8805378261536466
547,9610.0,0.868729590748717
548,9630.0,0.8732353553437874
549,9650.0,0.8561431199388577
550,9670.0,0.8569208845339281
551,9690.0,0.8690426491289984
552,9710.0,0.8567664137240689
553,9730.0,0.8485311783191393
554,9750.0,0.8463559429142097
555,9770.0,0.84993170750928
556,9790.0,0.8373444721043504
557,9810.0,0.8567702366994208
558,9830.0,0.8496230012944911
559,9850.0,0.8539747658895616
560,9870.0,0.8479145304846318
561,9890.0,0.8466722950797022
562,9910.0,0.8367270596747727
563,9930.0,0.841700824269843
564,9950.0,0.8435665888649134
565,9970.0,0.8429463534599838
566,9990.0,0.8407711180550542
567,10000.0,0.8400332503525894
568,10030.0,0.8378196502786179
569,10070.0,0.8275661835133225
570,10130.0,0.8328514833653793
571,10170.0,0.822441016600084
572,10220.0,0.8229089331434647
573,10280.0,0.8230672329955215
574,10320.0,0.8118797662302262
575,10380.0,0.8056660660822831
576,10430.0,0.8076879826256639
577,10480.0,0.7966568991690447
578,10520.0,0.7902864324037492
579,10580.0,0.776302732255806
580,10630.0,0.7693116487991869
581,10680.0,0.7604555653425676
582,10720.0,0.7627880985772721
583,10780.0,0.7561093984293291
584,10820.0,0.7450769316640338
585,10870.0,0.7424368482074145
586,10920.0,0.7410397647507951
587,10980.0,0.7312520646028521
588,11020.0,0.7269025978375567
589,11080.0,0.7171148976896137
590,11130.0,0.7129208142329944
591,11170.0,0.7068613474676989
592,11220.0,0.7057762640110797
593,11280.0,0.6958325638631366
594,11330.0,0.6942804804065174
595,11380.0,0.6869793969498982
596,11430.0,0.6789003134932788
597,11470.0,0.6858948467279835
598,11481.5362,0.6852677196405385
599,11530.0,0.682634857632158
600,11570.0,0.6744018030979445
601,11620.0,0.6632164849301776
602,11670.0,0.6621321667624106
603,11730.0,0.6640015849610904
604,11770.0,0.6493975304268768
605,11830.0,0.6434969486255566
606,11870.0,0.632620894091343
607,11920.0,0.6408615759235761
608,11980.0,0.6197309941222557
609,12030.0,0.6295246759544889
610,12070.0,0.6237776214202754
611,12120.0,0.6233153032525085
612,12180.0,0.6233197214511882
613,12230.0,0.6189724032834212
614,12270.0,0.6138463487492077
615,12320.0,0.6091890305814408
616,12370.0,0.6067067124136739
617,12430.0,0.5978531306123536
618,12480.0,0.5958368124445867
619,12530.0,0.5899344942768198
620,12580.0,0.5877631761090529
621,12620.0,0.5837251215748394
622,12670.0,0.5782898034070724
623,12720.0,0.5775164852393054
624,12780.0,0.5764339034379853
625,12830.0,0.5585665852702184
626,12880.0,0.5657182671024513
627,12920.0,0.5593502125682378
628,12980.0,0.5632396307669175
629,13020.0,0.556559576232704
630,13080.0,0.5565639944313837
631,13130.0,0.5444466762636168
632,13180.0,0.5427403580958499
633,13182.5674,0.5427166189825714
634,13230.0,0.5422797050849545
635,13280.0,0.5328061422045547
636,13320.0,0.5314124919002349
637,13380.0,0.5258240164437552
638,13430.0,0.5266064535633554
639,13470.0,0.5221048032590356
640,13520.0,0.517603240378636
641,13570.0,0.5109266774982362
642,13630.0,0.5075142020417566
643,13670.0,0.5092275517374367
644,13730.0,0.509700076280957
645,13770.0,0.5079954259766373
646,13820.0,0.5076898630962375
647,13880.0,0.5024123876397578
648,13930.0,0.4845478247593581
649,13970.0,0.4812881744550383
650,14020.0,0.47632061157463856
651,14080.0,0.4791251361181589
652,14120.0,0.4732234858138391
653,14180.0,0.47649401035735944
