,lambda (Angstroms),Total Flux (erg/s/cm^2/Angstrom)
0,1005.0,1.4430270119017354
1,1015.0,1.426156757866697
2,1025.0,1.3985016038316584
3,1035.0,1.3865575497966198
4,1045.0,1.3772085957615814
5,1055.0,1.3578207417265429
6,1065.0,1.3351230876915041
7,1075.0,1.3196824336564654
8,1085.0,1.2976683796214272
9,1095.0,1.2846209255863885
10,1096.4782,1.281752721792929
11,1105.0,1.2678929027481796
12,1115.0,1.252639145550464
13,1125.0,1.2344948883527482
14,1135.0,1.2242138311550324
15,1145.0,1.2081364739573168
16,1155.0,1.1934576167596012
17,1165.0,1.1784834595618854
18,1175.0,1.1554752023641697
19,1185.0,1.1478981451664538
20,1195.0,1.129769487968738
21,1205.0,1.1118738307710228
22,1215.0,1.0933099735733067
23,1225.0,1.0859971163755913
24,1235.0,1.0749856591778753
25,1245.0,1.0611149019801598
26,1255.0,1.045923244782444
27,1258.92541,1.0398867268319953
28,1265.0,1.033018615535166
29,1275.0,1.024773519477605
30,1285.0,1.0145550234200444
31,1295.0,1.000637927362484
32,1305.0,0.9903416313049231
33,1315.0,0.9827338352473627
34,1325.0,0.9713341391898022
35,1335.0,0.9590021431322415
36,1345.0,0.9508659470746808
37,1355.0,0.9399169510171204
38,1365.0,0.9278491549595598
39,1375.0,0.9175373589019992
40,1385.0,0.9071011628444385
41,1395.0,0.892096266786878
42,1405.0,0.8814425707293174
43,1415.0,0.8748136746717567
44,1425.0,0.8639735786141962
45,1435.0,0.8541901825566354
46,1442.0,0.8472998253163433
47,1445.43977,0.8437474386026516
48,1447.0,0.8426124715981653
49,1455.0,0.8361900659864991
50,1465.0,0.8279677089719164
51,1475.0,0.8207555519573335
52,1485.0,0.8136987949427507
53,1495.0,0.806238037928168
54,1505.0,0.798264380913585
55,1512.0,0.7918639510033771
56,1517.0,0.7888017724960857
57,1525.0,0.7828766668844195
58,1535.0,0.7736287098698366
59,1545.0,0.765499752855254
60,1555.0,0.758101095840671
61,1565.0,0.7520544388260881
62,1575.0,0.7456347818115053
63,1585.0,0.7388577247969226
64,1595.0,0.7318165677823397
65,1605.0,0.7240760107677569
66,1615.0,0.7167706537531741
67,1625.0,0.7092321967385914
68,1635.0,0.7026571397240086
69,1645.0,0.6956314827094255
70,1655.0,0.687844325694843
71,1659.58691,0.6849781229601669
72,1665.0,0.6827401661122979
73,1672.0,0.677664256305998
74,1677.0,0.6776483350157838
75,1685.0,0.6738031809514413
76,1695.0,0.6679904383710129
77,1705.0,0.6628149957905847
78,1715.0,0.6576239532101562
79,1725.0,0.652697010629728
80,1735.0,0.6488267680492996
81,1745.0,0.6436046254688713
82,1755.0,0.6395945828884431
83,1765.0,0.6330671403080147
84,1775.0,0.6286062977275862
85,1785.0,0.6242699551471581
86,1795.0,0.6205707125667297
87,1805.0,0.6171667699863015
88,1815.0,0.6116027274058732
89,1825.0,0.6061785848254448
90,1835.0,0.6013604422450165
91,1845.0,0.5936829996645883
92,1855.0,0.58992145708416
93,1865.0,0.5865797145037316
94,1875.0,0.5820413719233032
95,1885.0,0.576492829342875
96,1895.0,0.5720787867624466
97,1905.0,0.5671984441820184
98,1905.46072,0.5669950804122529
99,1915.0,0.5640440990338585
100,1925.0,0.5598316936766469
101,1935.0,0.5541117883194352
102,1945.0,0.5546079829622234
103,1955.0,0.5506130776050118
104,1967.0,0.5487532911763576
105,1976.0,0.5449341763548671
106,1984.0,0.5419589520690976
107,1995.0,0.5379126561761649
108,2005.0,0.5334670508189531
109,2015.0,0.5305755454617413
110,2025.0,0.5247780401045297
111,2035.0,0.524124334747318
112,2045.0,0.5225070293901062
113,2055.0,0.5177040240328945
114,2065.0,0.5137713186756827
115,2074.0,0.5141480038541922
116,2078.0,0.5180139417113074
117,2085.0,0.5181515079612593
118,2095.0,0.5123540026040476
119,2105.0,0.5075820972468358
120,2115.0,0.5073168918896241
121,2125.0,0.5011152865324123
122,2135.0,0.49547328117520073
123,2145.0,0.49766327581798886
124,2155.0,0.49357517046077726
125,2165.0,0.4861925651035655
126,2175.0,0.48285035974635376
127,2185.0,0.48499375438914216
128,2187.7616199999998,0.4844999476374838
129,2195.0,0.4840536327775607
130,2205.0,0.48011133782133675
131,2215.0,0.471538242865113
132,2225.0,0.47301944790888917
133,2235.0,0.4796133529526654
134,2245.0,0.47436575799644143
135,2255.0,0.46425406304021766
136,2265.0,0.45962816808399387
137,2275.0,0.45972627312777
138,2285.0,0.4656519781715462
139,2295.0,0.4569078832153224
140,2305.0,0.46096878825909854
141,2315.0,0.45471109330287474
142,2325.0,0.44571839834665083
143,2335.0,0.441480803390427
144,2345.0,0.43104280843420323
145,2355.0,0.44385271347797944
146,2365.0,0.42834881852175555
147,2375.0,0.43240962356553175
148,2385.0,0.41842852860930796
149,2395.0,0.42096653365308406
150,2405.0,0.4183296386968603
151,2415.0,0.41870754374063646
152,2425.0,0.4319525487844126
153,2435.0,0.4288805538281888
154,2445.0,0.4334075588719649
155,2455.0,0.4326976639157411
156,2465.0,0.4256007689595173
157,2475.0,0.41722967400329347
158,2485.0,0.40211417904706964
159,2495.0,0.40373528409084586
160,2505.0,0.4162809891346219
161,2511.88643,0.3969360466377831
162,2513.0,0.39387743152005017
163,2518.0,0.3870438554514916
164,2525.0,0.3868691289555096
165,2535.0,0.39562607681839246
166,2545.0,0.39561852468127523
167,2555.0,0.4148184725441581
168,2565.0,0.40185052040704095
169,2575.0,0.41115136826992377
170,2585.0,0.40425951613280664
171,2595.0,0.39826906399568945
172,2605.0,0.39064691185857237
173,2615.0,0.3845942597214551
174,2625.0,0.395247107584338
175,2635.0,0.42103595544722083
176,2645.0,0.4440900033101037
177,2655.0,0.47674725117298655
178,2665.0,0.43153389903586936
179,2675.0,0.44077274689875223
180,2685.0,0.454129994761635
181,2695.0,0.4205243426245179
182,2705.0,0.4365694904874008
183,2715.0,0.40728463835028356
184,2725.0,0.39195458621316637
185,2735.0,0.4058242340760492
186,2745.0,0.37312058193893205
187,2755.0,0.3873165298018149
188,2765.0,0.4044806776646977
189,2775.0,0.4079540255275806
190,2785.0,0.37540577339046344
191,2795.0,0.3388325212533463
192,2805.0,0.34356476911622913
193,2815.0,0.3931297169791119
194,2825.0,0.41866946484199485
195,2835.0,0.4088567127048776
196,2845.0,0.38036416056776046
197,2855.0,0.3491523084306433
198,2865.0,0.39975845629352613
199,2875.0,0.42975870415640904
200,2884.0315,0.4206154374137716
201,2885.0,0.419686895825027
202,2895.0,0.4435404762200228
203,2910.0,0.49069834681251656
204,2930.0,0.4651195076025083
205,2950.0,0.4488656683925
206,2970.0,0.4503268291824917
207,2990.0,0.45085598997248333
208,3010.0,0.447189150762475
209,3030.0,0.4570423115524667
210,3050.0,0.4634774723424584
211,3070.0,0.4764376331324501
212,3090.0,0.4662447939224418
213,3110.0,0.4958339547124334
214,3130.0,0.4758501155024252
215,3150.0,0.4737372762924168
216,3170.0,0.4938474370824085
217,3190.0,0.46282959787240013
218,3210.0,0.4802977586623919
219,3230.0,0.44757191945238356
220,3250.0,0.5194290802423753
221,3270.0,0.5616052410323669
222,3290.0,0.5546754018223586
223,3310.0,0.5303405626123503
224,3311.31121,0.5307114489023226
225,3330.0,0.5367006115162237
226,3350.0,0.5239959752191721
227,3370.0,0.44990833892212034
228,3390.0,0.47993870262506855
229,3410.0,0.48557106632801683
230,3430.0,0.5034814300309651
231,3450.0,0.5098897937339134
232,3470.0,0.5192521574368618
233,3490.0,0.55301252113981
234,3510.0,0.5746508848427583
235,3530.0,0.5384802485457065
236,3550.0,0.5868486122486549
237,3570.0,0.47577597595160315
238,3590.0,0.47581433965455144
239,3610.0,0.5369237033574997
240,3630.0,0.551570067060448
241,3640.0,0.5668177489119222
242,3650.0,0.6066194307633963
243,3670.0,0.6295017944663446
244,3690.0,0.589602158169293
245,3710.0,0.6104635218722412
246,3730.0,0.48416188557518947
247,3750.0,0.5213402492781378
248,3770.0,0.605294612981086
249,3790.0,0.6168329766840344
250,3801.8939600000003,0.6041018981934498
251,3810.0,0.5956400608509607
252,3830.0,0.4420512034940032
253,3850.0,0.5231163461370457
254,3870.0,0.5160694887800883
255,3890.0,0.5707176314231308
256,3910.0,0.6486747740661734
257,3930.0,0.4332359167092159
258,3950.0,0.5974400593522584
259,3970.0,0.473843201995301
260,3990.0,0.7648533446383435
261,4010.0,0.8176364872813862
262,4030.0,0.8062386299244286
263,4050.0,0.7820977725674712
264,4070.0,0.7487889152105137
265,4090.0,0.8680820578535562
266,4110.0,0.8235832004965988
267,4130.0,0.8132743431396413
268,4150.0,0.7964364857826838
269,4170.0,0.8078826284257264
270,4190.0,0.7884037710687689
271,4210.0,0.7923909137118115
272,4230.0,0.760947056354854
273,4250.0,0.7910401989978966
274,4270.0,0.7550893416409391
275,4290.0,0.7152534842839816
276,4310.0,0.6398306269270242
277,4330.0,0.8504987695700668
278,4350.0,0.8425209122131092
279,4365.15832,0.8849984225445523
280,4370.0,0.8986587996186529
281,4390.0,0.8195790521016727
282,4410.0,0.8610893045846926
283,4430.0,0.9223355570677123
284,4450.0,0.9248408095507321
285,4470.0,0.9747430620337518
286,4490.0,0.9954293145167717
287,4510.0,1.1008085669997916
288,4530.0,0.9861428194828115
289,4550.0,1.025633071965831
290,4570.0,1.089210324448851
291,4590.0,1.0421425769318708
292,4610.0,1.0645388294148905
293,4630.0,1.0488630818979103
294,4650.0,1.0563393343809302
295,4670.0,1.09443158686395
296,4690.0,1.0812418393469698
297,4710.0,1.0540650918299896
298,4730.0,1.0784813443130095
299,4750.0,1.1042965967960292
300,4770.0,1.088463849279049
301,4790.0,1.0909691017620688
302,4810.0,1.0939403542450887
303,4830.0,1.1194456067281084
304,4850.0,1.0756408592111282
305,4870.0,0.9992031116941481
306,4890.0,1.087332364177168
307,4910.0,1.0878176166601876
308,4930.0,1.0659258691432076
309,4950.0,1.1019971216262272
310,4970.0,1.0872523741092472
311,4990.0,1.023401626592267
312,5010.0,0.9761788790752867
313,5011.87234,0.9810251739509893
314,5030.0,1.0281889099244985
315,5050.0,1.0208600164672172
316,5070.0,1.0562671230099359
317,5090.0,1.0082242295526544
318,5110.0,1.0285573360953733
319,5130.0,0.9986954426380918
320,5150.0,0.9632405491808105
321,5170.0,0.9007456557235292
322,5190.0,0.9300917622662478
323,5210.0,0.9931608688089666
324,5230.0,1.0621339753516852
325,5250.0,1.1039110818944038
326,5270.0,0.9915331884371223
327,5290.0,1.114896294979841
328,5310.0,1.1737624015225596
329,5330.0,1.0520665080652785
330,5350.0,1.1353306146079971
331,5370.0,1.1270747211507157
332,5390.0,1.1070048276934343
333,5410.0,1.090974934236153
334,5430.0,1.1022940407788717
335,5450.0,1.1265111473215903
336,5470.0,1.111414253864309
337,5490.0,1.1188493604070275
338,5510.0,1.1054604669497463
339,5530.0,1.140867573492465
340,5550.0,1.1545116800351836
341,5570.0,1.1297857865779022
342,5590.0,1.1041198931206209
343,5610.0,1.1368839996633398
344,5630.0,1.1354581062060582
345,5650.0,1.1505122127487768
346,5670.0,1.1242263192914956
347,5690.0,1.153570425834214
348,5710.0,1.1174945323769327
349,5730.0,1.1970386389196515
350,5750.0,1.16204274546237
351,5754.399369999999,1.1637462049624117
352,5770.0,1.1699332635296225
353,5790.0,1.1320250695749043
354,5810.0,1.1690168756201862
355,5830.0,1.1949786816654682
356,5850.0,1.16173048771075
357,5870.0,1.159252293756032
358,5890.0,1.0364970998013137
359,5910.0,1.1392259058465957
360,5930.0,1.1487077118918774
361,5950.0,1.1491795179371593
362,5970.0,1.1653513239824411
363,5990.0,1.150293130027723
364,6010.0,1.136464936073005
365,6030.0,1.160556742118287
366,6050.0,1.1789085481635688
367,6070.0,1.1737903542088508
368,6090.0,1.1408521602541326
369,6110.0,1.1442739662994146
370,6130.0,1.0883407723446963
371,6150.0,1.1155375783899781
372,6170.0,1.0588313844352601
373,6190.0,1.115871190480542
374,6210.0,1.1070229965258238
375,6230.0,1.0767258025711057
376,6250.0,1.0479856086163877
377,6270.0,1.0897954146616695
378,6290.0,1.1056502207069516
379,6310.0,1.0828190267522333
380,6330.0,1.0960338327975152
381,6350.0,1.101945638842797
382,6370.0,1.096517444888079
383,6390.0,1.1087992509333608
384,6410.0,1.0895410569786428
385,6430.0,1.0980928630239246
386,6450.0,1.0914146690692064
387,6470.0,1.0876964751144884
388,6490.0,1.0690612811597702
389,6510.0,1.1032500872050521
390,6530.0,1.105441893250334
391,6550.0,1.078407699295616
392,6570.0,1.0207635053408979
393,6590.0,1.0844853113861797
394,6606.93448,1.0914655398160649
395,6610.0,1.092750400262583
396,6630.0,1.0838840592993415
397,6650.0,1.0818557183361
398,6670.0,1.0597803773728582
399,6690.0,1.0718920364096167
400,6710.0,1.035675695446375
401,6730.0,1.0577343544831335
402,6750.0,1.041409013519892
403,6770.0,1.0462176725566503
404,6790.0,1.0361073315934086
405,6810.0,1.039517990630167
406,6830.0,1.0500766496669254
407,6850.0,1.0270683087036838
408,6870.0,1.0404249677404422
409,6890.0,1.0528486267772006
410,6910.0,1.0505092858139589
411,6930.0,1.0444399448507173
412,6950.0,1.0438096038874758
413,6970.0,1.055767262924234
414,6990.0,1.0514079219609924
415,7010.0,1.040209580997751
416,7030.0,1.0586942400345094
417,7050.0,1.0602398990712678
418,7070.0,1.030393558108026
419,7090.0,1.0021022171447844
420,7110.0,0.9818928761815429
421,7130.0,0.9629245352183011
422,7150.0,0.9585651942550597
423,7170.0,0.970055853291818
424,7190.0,0.9498455123285764
425,7210.0,0.9670861713653348
426,7230.0,0.9879008304020932
427,7250.0,0.9933314894388515
428,7270.0,1.00093814847561
429,7290.0,0.9902068075123683
430,7310.0,1.0149074665491267
431,7330.0,1.0173851255858852
432,7350.0,1.0263887846226436
433,7370.0,1.0493804436594019
434,7390.0,1.0333651026961603
435,7410.0,1.0300937617329187
436,7430.0,1.053550420769677
437,7450.0,1.0529210798064355
438,7470.0,1.067208738843194
439,7490.0,1.0651793978799522
440,7510.0,1.0734000569167106
441,7530.0,1.0870707159534692
442,7550.0,1.0937413749902274
443,7570.0,1.0889220340269856
444,7585.77575,1.071509281016943
445,7590.0,1.0668673644922892
446,7610.0,1.0495518938186617
447,7630.0,1.028506423145034
448,7650.0,1.0083939524714065
449,7670.0,0.963883481797779
450,7690.0,0.9855730111241513
451,7710.0,0.9677915404505238
452,7730.0,0.9720770697768962
453,7750.0,0.9653285991032686
454,7770.0,0.977073128429641
455,7790.0,0.9816686577560135
456,7810.0,0.982224187082386
457,7830.0,0.9748537164087583
458,7850.0,0.9651542457351308
459,7870.0,0.9792287750615032
460,7890.0,0.9696843043878756
461,7910.0,0.950658833714248
462,7930.0,0.9535453630406204
463,7950.0,0.9478848923669928
464,7970.0,0.9747034216933653
465,7990.0,0.9749469510197377
466,8010.0,0.9866914803461102
467,8030.0,0.9905110096724825
468,8050.0,0.989978538998855
469,8070.0,1.0026550683252273
470,8090.0,0.9959075976515998
471,8110.0,1.0054761269779724
472,8130.0,1.0282536563043447
473,8150.0,1.038599185630717
474,8170.0,1.0449047149570896
475,8190.0,1.012048244283462
476,8210.0,1.0062337736098343
477,8230.0,1.0100513029362068
478,8250.0,1.0092088322625792
479,8270.0,1.0161353615889517
480,8290.0,1.0064358909153241
481,8310.0,0.9802614202416965
482,8330.0,0.970249949568069
483,8350.0,0.9720484788944412
484,8370.0,0.9747800082208138
485,8390.0,0.9434785375471861
486,8410.0,0.9721610668735586
487,8430.0,0.931690596199931
488,8450.0,0.9171731255263035
489,8470.0,0.9152426548526759
490,8490.0,0.9195271841790482
491,8510.0,0.8851177135054207
492,8530.0,0.9183072428317932
493,8550.0,0.8483117721581657
494,8570.0,0.9416403014845379
495,8590.0,0.9331828308109105
496,8610.0,0.9405763601372829
497,8630.0,0.9546518894636552
498,8650.0,0.9559844187900277
499,8670.0,0.8701369481164001
500,8690.0,0.9347174774427724
501,8709.6359,0.9636416778327573
502,8710.0,0.9641793862636233
503,8730.0,0.9702486911724407
504,8750.0,0.9626449960812579
505,8770.0,0.9758623009900752
506,8790.0,0.9842646058988924
507,8810.0,0.9673349108077097
508,8830.0,0.9741822157165271
509,8850.0,0.9738815206253443
510,8870.0,0.9426558255341616
511,8890.0,0.953388130442979
512,8910.0,0.9608574353517961
513,8930.0,0.9473467402606135
514,8950.0,0.9473570451694308
515,8970.0,0.950785350078248
516,8990.0,0.9521936549870653
517,9010.0,0.9262519598958826
518,9030.0,0.9559422648046999
519,9050.0,0.9783295697135171
520,9070.0,0.9769408746223345
521,9090.0,0.9601681795311517
522,9110.0,0.970899484439969
523,9130.0,0.9827197893487863
524,9150.0,0.9772900942576035
525,9170.0,0.9763673991664209
526,9190.0,0.9836817040752381
527,9210.0,0.9540100089840554
528,9230.0,0.9342833138928728
529,9250.0,0.9308746188016901
530,9270.0,0.9347689237105072
531,9290.0,0.9231242286193246
532,9310.0,0.9276395335281418
533,9330.0,0.9285818384369592
534,9350.0,0.9243971433457765
535,9370.0,0.9105754482545937
536,9390.0,0.924881753163411
537,9410.0,0.9104390580722284
538,9430.0,0.9283193629810456
539,9450.0,0.9165196678898628
540,9470.0,0.93315697279868
541,9490.0,0.9337882777074974
542,9510.0,0.9212105826163147
543,9530.0,0.925104887525132
544,9550.0,0.9101961924339493
545,9570.0,0.9175104973427666
546,9590.0,0.9302618022515838
547,9610.0,0.9183071071604012
548,9630.0,0.9226664120692184
549,9650.0,0.9054277169780357
550,9670.0,0.906059021886853
551,9690.0,0.9180343267956702
552,9710.0,0.9056116317044876
553,9730.0,0.8972299366133047
554,9750.0,0.8949082415221221
555,9770.0,0.8983375464309394
556,9790.0,0.8856038513397566
557,9810.0,0.904883156248574
558,9830.0,0.8975894611573912
559,9850.0,0.9017947660662086
560,9870.0,0.8955880709750258
561,9890.0,0.894199375883843
562,9910.0,0.8841076807926603
563,9930.0,0.8889349857014777
564,9950.0,0.8906542906102949
565,9970.0,0.8898875955191122
566,9990.0,0.8875659004279295
567,10000.0,0.8867548028823381
568,10030.0,0.8844062657284693
569,10070.0,0.873972882856644
570,10130.0,0.878988308548906
571,10170.0,0.8683979256770807
572,10220.0,0.8686409470872991
573,10280.0,0.8685293727795612
574,10320.0,0.857161989907736
575,10380.0,0.850678415599998
576,10430.0,0.8524754370102164
577,10480.0,0.8412194584204349
578,10520.0,0.8346690755486096
579,10580.0,0.8204155012408716
580,10630.0,0.8131995226510901
581,10680.0,0.8041185440613084
582,10720.0,0.8062711611894832
583,10780.0,0.7993225868817453
584,10820.0,0.78811020400992
585,10870.0,0.7852452254201384
586,10920.0,0.7836232468303568
587,10980.0,0.7735656725226189
588,11020.0,0.7690362896507936
589,11080.0,0.7589787153430557
590,11130.0,0.754559736753274
591,11170.0,0.7483203538814488
592,11220.0,0.7470103752916673
593,11280.0,0.7367968009839293
594,11330.0,0.7350198223941476
595,11380.0,0.7274938438043661
596,11430.0,0.7191898652145845
597,11470.0,0.7260044823427593
598,11481.5362,0.7253254665506104
599,11530.0,0.7225763730129354
600,11570.0,0.7142473858202885
601,11620.0,0.7029421518294798
602,11670.0,0.7017379178386712
603,11730.0,0.7034634370497009
604,11770.0,0.688763449857054
605,11830.0,0.6827189690680837
606,11870.0,0.6717469818754368
607,11920.0,0.6798677478846281
608,11980.0,0.6585932670956578
609,12030.0,0.6682670331048493
610,12070.0,0.6624240459122023
611,12120.0,0.6618418119213937
612,12180.0,0.6617023311324234
613,12230.0,0.6572350971416147
614,12270.0,0.6520131099489678
615,12320.0,0.6472358759581591
616,12370.0,0.6446336419673505
617,12430.0,0.6356361611783802
618,12480.0,0.6334999271875716
619,12530.0,0.6274776931967629
620,12580.0,0.6251864592059544
621,12620.0,0.6210524720133074
622,12670.0,0.6154972380224988
623,12720.0,0.6146040040316901
624,12780.0,0.6133775232427198
625,12830.0,0.5953902892519112
626,12880.0,0.6024220552611025
627,12920.0,0.5959580680684556
628,12980.0,0.5997035872794853
629,13020.0,0.5929276000868384
630,13080.0,0.592788119297868
631,13130.0,0.5805508853070593
632,13180.0,0.5787246513162507
633,13182.5674,0.5786947547652908
634,13230.0,0.5782148556646637
635,13280.0,0.568695980906979
636,13320.0,0.5672660811008313
637,13380.0,0.5616232313916097
638,13430.0,0.5623603566339251
639,13470.0,0.5578224568277774
640,13520.0,0.5532755820700929
641,13570.0,0.5465537073124082
642,13630.0,0.5430868576031866
643,13670.0,0.5447639577970389
644,13730.0,0.5451821080878172
645,13770.0,0.5434412082816695
646,13820.0,0.543090333523985
647,13880.0,0.5377584838147633
648,13930.0,0.5198486090570787
649,13970.0,0.516552709250931
650,14020.0,0.5115398344932464
651,14080.0,0.5142899847840249
652,14120.0,0.5083520849778771
653,14180.0,0.5115682352686556
654,14230.0,0.5065553605109709
655,14280.0,0.49936648575328624
656,14330.0,0.5055426109956016
657,14380.0,0.508611736237917
658,14420.0,0.49816783643176926
659,14480.0,0.5043359867225476
660,14520.0,0.5002630869164
661,14570.0,0.5017772121587153
662,14620.0,0.49365733740103074
663,14670.0,0.49066446264334607
