,lambda (Angstroms),Total Flux (erg/s/cm^2/Angstrom)
0,1005.0,0.003568130889536398
1,1015.0,0.0036016822326710636
2,1025.0,0.0031906335758057286
3,1035.0,0.0033609849189403943
4,1045.0,0.0037878462620750592
5,1055.0,0.0037896376052097246
6,1065.0,0.00369859894834439
7,1075.0,0.004079050291479055
8,1085.0,0.004024651634613721
9,1095.0,0.004322042977748386
10,1096.4782,0.0044772231340905536
11,1105.0,0.005370657015726626
12,1115.0,0.005730176837168193
13,1125.0,0.005447216658609759
14,1135.0,0.005691916480051327
15,1145.0,0.004998546301492893
16,1155.0,0.004336936122934459
17,1165.0,0.0037876959443760255
18,1175.0,0.0027816357658175923
19,1185.0,0.003026335587259159
20,1195.0,0.0027482554087007254
21,1205.0,0.0024931452301422924
22,1215.0,0.0023022750515838586
23,1225.0,0.0026200248730254253
24,1235.0,0.002774334694466992
25,1245.0,0.0028016245159085584
26,1255.0,0.0029144143373501254
27,1258.92541,0.003031560277888621
28,1265.0,0.0032141651293122945
29,1275.0,0.004206139534586849
30,1285.0,0.005630493939861404
31,1295.0,0.006832548345135959
32,1305.0,0.007763432750410513
33,1315.0,0.010074557155685069
34,1325.0,0.011743201560959622
35,1335.0,0.012884145966234177
36,1345.0,0.015036490371508731
37,1355.0,0.015141734776783286
38,1365.0,0.01605797918205784
39,1375.0,0.017382123587332394
40,1385.0,0.01802726799260695
41,1395.0,0.018984912397881505
42,1405.0,0.01915845680315606
43,1415.0,0.020194401208430614
44,1425.0,0.02045354561370517
45,1435.0,0.019774590018979722
46,1442.0,0.02185599110267191
47,1445.43977,0.021817377759965038
48,1447.0,0.02179985968441949
49,1455.0,0.023045856642711287
50,1465.0,0.021590077840576035
51,1475.0,0.022303499038440786
52,1485.0,0.022799520236305534
53,1495.0,0.023361541434170286
54,1505.0,0.024267962632035033
55,1512.0,0.023813647470540357
56,1517.0,0.023838108069472733
57,1525.0,0.023899305027764533
58,1535.0,0.023738226225629284
59,1545.0,0.02491094742349403
60,1555.0,0.02474006862135878
61,1565.0,0.02308388981922353
62,1575.0,0.02625491101708828
63,1585.0,0.02759863221495303
64,1595.0,0.02930875341281778
65,1605.0,0.02723247461068253
66,1615.0,0.028209695808547278
67,1625.0,0.026353217006412025
68,1635.0,0.028087838204276773
69,1645.0,0.03136135940214153
70,1655.0,0.025449680600006273
71,1659.58691,0.028676856722876044
72,1665.0,0.03248571529702275
73,1672.0,0.02708763485674315
74,1677.0,0.041989777399400574
75,1685.0,0.04426228546765246
76,1695.0,0.039108670552967316
77,1705.0,0.04106395563828216
78,1715.0,0.048515640723597014
79,1725.0,0.05005552580891187
80,1735.0,0.056261410894226725
81,1745.0,0.05416139597954158
82,1755.0,0.06219938106485643
83,1765.0,0.050474366150171285
84,1775.0,0.059636151235486136
85,1785.0,0.06044313632080099
86,1795.0,0.07370902140611585
87,1805.0,0.06919050649143069
88,1815.0,0.07212289157674555
89,1825.0,0.0679708766620604
90,1835.0,0.06621286174737526
91,1845.0,0.056784046832690116
92,1855.0,0.06689863191800496
93,1865.0,0.07728181700331982
94,1875.0,0.07403360208863467
95,1885.0,0.07623318717394952
96,1895.0,0.08336727225926438
97,1905.0,0.07899545734457923
98,1905.46072,0.07923184748222988
99,1915.0,0.08412440980025689
100,1925.0,0.07862676891543856
101,1935.0,0.057518928030620226
102,1945.0,0.0903015871458019
103,1955.0,0.09284104626098358
104,1967.0,0.10383277719920159
105,1976.0,0.09818855040286509
106,1984.0,0.10182783769501044
107,1995.0,0.10128858272171026
108,2005.0,0.09366594183689195
109,2015.0,0.09483730095207363
110,2025.0,0.08494246006725531
111,2035.0,0.10221201918243698
112,2045.0,0.11142087829761865
113,2055.0,0.10731573741280033
114,2065.0,0.102062596527982
115,2074.0,0.1187705697316455
116,2078.0,0.14388411337771817
117,2085.0,0.14869531475834535
118,2095.0,0.13958217387352703
119,2105.0,0.1288080329887087
120,2115.0,0.1368678921038904
121,2125.0,0.13146875121907203
122,2135.0,0.11443961033425372
123,2145.0,0.1383304694494354
124,2155.0,0.13874432856461708
125,2165.0,0.12555218767979873
126,2175.0,0.1271870467949804
127,2185.0,0.14189290591016207
128,2187.7616199999998,0.14442913881112865
129,2195.0,0.15107824925787652
130,2205.0,0.14282215887680735
131,2215.0,0.12093506849573815
132,2225.0,0.12535697811466895
133,2235.0,0.1551858877335998
134,2245.0,0.14409579735253059
135,2255.0,0.1218177069714614
136,2265.0,0.1203526165903922
137,2275.0,0.13315452620932303
138,2285.0,0.15223443582825383
139,2295.0,0.13442734544718465
140,2305.0,0.15011125506611545
141,2315.0,0.13889916468504626
142,2325.0,0.10518807430397707
143,2335.0,0.10662998392290787
144,2345.0,0.08085859354183869
145,2355.0,0.12903380316076948
146,2365.0,0.08655231277970031
147,2375.0,0.10863662239863112
148,2385.0,0.07047983201756193
149,2395.0,0.08665274163649272
150,2405.0,0.08570095125542354
151,2415.0,0.09522916087435435
152,2425.0,0.13729717049328516
153,2435.0,0.13456208011221596
154,2445.0,0.15251798973114677
155,2455.0,0.15520589935007761
156,2465.0,0.1490268089690084
157,2475.0,0.13358771858793922
158,2485.0,0.11744162820687003
159,2495.0,0.11851753782580084
160,2505.0,0.16310144744473165
161,2511.88643,0.10790174217306588
162,2513.0,0.09897553464460172
163,2518.0,0.08170415862136432
164,2525.0,0.08495291218883197
165,2535.0,0.10315226014235716
166,2545.0,0.10989390809588236
167,2555.0,0.14805255604940754
168,2565.0,0.12753120400293275
169,2575.0,0.14971285195645798
170,2585.0,0.14211449990998315
171,2595.0,0.13327114786350835
172,2605.0,0.12042079581703355
173,2615.0,0.10937844377055875
174,2625.0,0.14296809172408395
175,2635.0,0.18237273967760914
176,2645.0,0.23714138763113435
177,2655.0,0.27515303558465953
178,2665.0,0.20638368353818476
179,2675.0,0.23193633149170995
180,2685.0,0.24510397944523513
181,2695.0,0.20469762739876032
182,2705.0,0.23203327535228552
183,2715.0,0.19055192330581075
184,2725.0,0.18466557125933594
185,2735.0,0.20882421921286115
186,2745.0,0.13106686716638632
187,2755.0,0.15840351511991152
188,2765.0,0.18747316307343673
189,2775.0,0.20725981102696192
190,2785.0,0.14965645898048713
191,2795.0,0.06544910693401233
192,2805.0,0.08125435488753753
193,2815.0,0.19843940284106273
194,2825.0,0.2553590507945879
195,2835.0,0.24900669874811313
196,2845.0,0.2263123467016383
197,2855.0,0.17303299465516353
198,2865.0,0.2621976426086887
199,2875.0,0.28247329056221393
200,2884.0315,0.27077988956144017
201,2885.0,0.269525971913664
202,2895.0,0.27880896470895355
203,2910.0,0.34525495390188793
204,2930.0,0.31642893949246703
205,2950.0,0.30616992508304613
206,2970.0,0.32522291067362524
207,2990.0,0.33010889626420437
208,3010.0,0.34232388185478346
209,3030.0,0.3452548674453626
210,3050.0,0.3557598530359417
211,3070.0,0.3669968386265208
212,3090.0,0.37383782421709993
213,3110.0,0.38385280980767905
214,3130.0,0.3733487953982582
215,3150.0,0.37603578098883733
216,3170.0,0.39069376657941646
217,3190.0,0.35356075216999555
218,3210.0,0.38409773776057465
219,3230.0,0.3423237233511538
220,3250.0,0.40779370894173295
221,3270.0,0.44834569453231204
222,3290.0,0.4427266801228912
223,3310.0,0.4415046657134703
224,3311.31121,0.4415527206152814
225,3330.0,0.4422374073749733
226,3350.0,0.4341771319223537
227,3370.0,0.38580685646973406
228,3390.0,0.4087695810171144
229,3410.0,0.4136553055644948
230,3430.0,0.4253810301118752
231,3450.0,0.43710675465925564
232,3470.0,0.44052547920663604
233,3490.0,0.46275620375401644
234,3510.0,0.4805889283013968
235,3530.0,0.4532276528487772
236,3550.0,0.49915437739615764
237,3570.0,0.415852101943538
238,3590.0,0.41340882649091837
239,3610.0,0.45664655103829876
240,3630.0,0.46910527558567916
241,3640.0,0.47667813785936936
242,3650.0,0.5216280001330595
243,3670.0,0.51894072468044
244,3690.0,0.48547244922782035
245,3710.0,0.5323761737752007
246,3730.0,0.45688989832258114
247,3750.0,0.5201606228699616
248,3770.0,0.5841643474173419
249,3790.0,0.6300910719647224
250,3801.8939600000003,0.6499942608176009
251,3810.0,0.6635588197739382
252,3830.0,0.499883601715152
253,3850.0,0.6467013836563658
254,3870.0,0.6765051655975797
255,3890.0,0.5941789475387935
256,3910.0,0.7446617294800074
257,3930.0,0.4605515114212212
258,3950.0,0.6669772933624349
259,3970.0,0.45200107530364886
260,3990.0,0.8267418572448627
261,4010.0,0.9010056391860765
262,4030.0,0.9063804211272903
263,4050.0,0.8841492030685042
264,4070.0,0.855566985009718
265,4090.0,0.8868357669509318
266,4110.0,0.7991365488921457
267,4130.0,0.8966073308333595
268,4150.0,0.9107761127745733
269,4170.0,0.9122418947157871
270,4190.0,0.903691676657001
271,4210.0,0.9129744585982148
272,4230.0,0.8914762405394286
273,4250.0,0.9149280224806424
274,4270.0,0.8817038044218564
275,4290.0,0.8497015863630701
276,4310.0,0.765177368304284
277,4330.0,0.8724201502454978
278,4350.0,0.8201419321867116
279,4365.15832,0.9345651033524652
280,4370.0,0.9711127971104867
281,4390.0,0.9212789218358631
282,4410.0,0.9461950465612398
283,4430.0,0.9779531712866162
284,4450.0,0.9821062960119926
285,4470.0,1.0182614207373692
286,4490.0,1.0273015454627457
287,4510.0,1.1164616701881223
288,4530.0,1.0202117949134986
289,4550.0,1.0412219196388752
290,4570.0,1.1020520443642516
291,4590.0,1.0529521690896284
292,4610.0,1.0768922938150047
293,4630.0,1.0527024185403813
294,4650.0,1.0651625432657577
295,4670.0,1.0913026679911342
296,4690.0,1.0698027927165106
297,4710.0,1.038052917441887
298,4730.0,1.0756730421672638
299,4750.0,1.0959431668926403
300,4770.0,1.0895932916180169
301,4790.0,1.0842234163433933
302,4810.0,1.0746935410687697
303,4830.0,1.0856836657941462
304,4850.0,0.9950567905195228
305,4870.0,0.8841489152448992
306,4890.0,1.0414740399702758
307,4910.0,1.0485541646956522
308,4930.0,1.0319442894210287
309,4950.0,1.0715144141464052
310,4970.0,1.0634545388717818
311,4990.0,1.0016546635971582
312,5010.0,0.9613447883225348
313,5011.87234,0.9656446288089501
314,5030.0,1.0072749357649864
315,5050.0,1.0023850855538026
316,5070.0,1.0358552353426183
317,5090.0,0.9918823851314339
318,5110.0,1.0077555349202498
319,5130.0,0.9774696847090657
320,5150.0,0.9496198344978815
321,5170.0,0.9078469842866972
322,5190.0,0.923971134075513
323,5210.0,0.9608582838643288
324,5230.0,0.9935934336531448
325,5250.0,1.0204665834419604
326,5270.0,0.9288577332307764
327,5290.0,1.020956883019592
328,5310.0,1.0578370328084081
329,5330.0,0.9659891825972237
330,5350.0,1.0307273323860395
331,5370.0,1.0246174821748555
332,5390.0,1.0045876319636713
333,5410.0,0.986509781752487
334,5430.0,0.9997019315413028
335,5450.0,1.0258380813301187
336,5470.0,1.0031182311189344
337,5490.0,1.0036083809077503
338,5510.0,0.996526530696566
339,5530.0,1.0126486804853818
340,5550.0,1.0219288302741978
341,5570.0,1.0016589800630136
342,5590.0,0.9833361298518293
343,5610.0,1.0089892796406452
344,5630.0,1.001899429429461
345,5650.0,1.0070295792182768
346,5670.0,0.9838247290070926
347,5690.0,1.0050798787959083
348,5710.0,0.9779620285847241
349,5730.0,1.03610017837354
350,5750.0,1.0031203281623557
351,5754.399369999999,1.0049482993461767
352,5770.0,1.0114306586983262
353,5790.0,0.9801620402049052
354,5810.0,1.0067914217114842
355,5830.0,1.0246218032180632
356,5850.0,0.9992181847246422
357,5870.0,0.9994625662312213
358,5890.0,0.9242219477378003
359,5910.0,0.9840723292443794
360,5930.0,0.9852947107509584
361,5950.0,0.9838290922575376
362,5970.0,0.9928684737641165
363,5990.0,0.9772338552706956
364,6010.0,0.9625772367772746
365,6030.0,0.9777236182838537
366,6050.0,0.9892059997904327
367,6070.0,0.9838313812970119
368,6090.0,0.9545167628035908
369,6110.0,0.9540291443101699
370,6130.0,0.9132335258167489
371,6150.0,0.929356907323328
372,6170.0,0.900775288829907
373,6190.0,0.9403496703364861
374,6210.0,0.9337550518430651
375,6230.0,0.9095704333496442
376,6250.0,0.8809888148562233
377,6270.0,0.9159231963628022
378,6290.0,0.9239855778693813
379,6310.0,0.9010219593759603
380,6330.0,0.9090843408825394
381,6350.0,0.9085957223891185
382,6370.0,0.9027331038956975
383,6390.0,0.9129944854022765
384,6410.0,0.8941838669088557
385,6430.0,0.8995582484154346
386,6450.0,0.8939406299220137
387,6470.0,0.8905210114285927
388,6490.0,0.8721993929351718
389,6510.0,0.8924757744417509
390,6530.0,0.88710215594833
391,6550.0,0.8507025374549089
392,6570.0,0.7735079189614881
393,6590.0,0.867071300468067
394,6606.93448,0.8784482071628437
395,6610.0,0.8805076238353519
396,6630.0,0.8758656260307913
397,6650.0,0.8741556282262308
398,6670.0,0.8590096304216703
399,6690.0,0.8719576326171098
400,6710.0,0.8463066348125494
401,6730.0,0.8624296370079889
402,6750.0,0.8487496392034284
403,6770.0,0.851436641398868
404,6790.0,0.8431306435943074
405,6810.0,0.842397645789747
406,6830.0,0.8472836479851864
407,6850.0,0.827740650180626
408,6870.0,0.8365346523760655
409,6890.0,0.843619654571505
410,6910.0,0.8375116567669445
411,6930.0,0.830671658962384
412,6950.0,0.8255416611578236
413,6970.0,0.829938663353263
414,6990.0,0.8243206655487025
415,7010.0,0.8081976677441421
416,7030.0,0.8196786699395816
417,7050.0,0.8226106721350211
418,7070.0,0.8067326743304606
419,7090.0,0.7937846765259001
420,7110.0,0.7805926787213396
421,7130.0,0.7691116809167791
422,7150.0,0.7671566831122186
423,7170.0,0.7713096853076582
424,7190.0,0.7529876875030977
425,7210.0,0.7664236896985372
426,7230.0,0.7744856918939766
427,7250.0,0.7754626940894161
428,7270.0,0.7754626962848556
429,7290.0,0.7605606984802952
430,7310.0,0.7727757006757348
431,7330.0,0.7727757028711743
432,7350.0,0.7749747050666138
433,7370.0,0.7854787072620533
434,7390.0,0.7698447094574928
435,7410.0,0.7627597116529323
436,7430.0,0.7754627138483717
437,7450.0,0.7757077160438113
438,7470.0,0.7803487182392509
439,7490.0,0.7759517204346904
440,7510.0,0.7805927226301299
441,7530.0,0.7864557248255694
442,7550.0,0.7893877270210089
443,7570.0,0.7835247292164483
444,7585.77575,0.7756242353481838
445,7590.0,0.7735087637341359
446,7610.0,0.7654469189614651
447,7630.0,0.7586070741887943
448,7650.0,0.7507902294161235
449,7670.0,0.7246513846434527
450,7690.0,0.7397975398707819
451,7710.0,0.7268496950981111
452,7730.0,0.7278268503254404
453,7750.0,0.7212320055527696
454,7770.0,0.7280721607800987
455,7790.0,0.731003316007428
456,7810.0,0.7285604712347572
457,7830.0,0.7217206264620865
458,7850.0,0.7143917816894156
459,7870.0,0.7212329369167448
460,7890.0,0.710239092144074
461,7910.0,0.6958262473714033
462,7930.0,0.6943604025987324
463,7950.0,0.6882545578260617
464,7970.0,0.7058427130533909
465,7990.0,0.70413286828072
466,8010.0,0.7058430235080492
467,8030.0,0.7060871787353784
468,8050.0,0.7029123339627076
469,8070.0,0.7058434891900368
470,8090.0,0.6963166444173661
471,8110.0,0.6994927996446952
472,8130.0,0.7099969548720245
473,8150.0,0.7117071100993537
474,8170.0,0.7139062653266829
475,8190.0,0.6968054205540122
476,8210.0,0.6904545757813413
477,8230.0,0.6921647310086706
478,8250.0,0.6926528862359997
479,8270.0,0.698272041463329
480,8290.0,0.6919201966906582
481,8310.0,0.6731113519179874
482,8330.0,0.6689585071453166
483,8350.0,0.6696916623726459
484,8370.0,0.6723788175999751
485,8390.0,0.6535689728273041
486,8410.0,0.6696921280546334
487,8430.0,0.6489272832819626
488,8450.0,0.6445304385092918
489,8470.0,0.641598593736621
490,8490.0,0.6445307489639502
491,8510.0,0.6142389041912795
492,8530.0,0.6408660594186086
493,8550.0,0.5778392146459378
494,8570.0,0.6543033698732671
495,8590.0,0.6411115251005962
496,8610.0,0.6420886803279254
497,8630.0,0.6562578355552547
498,8650.0,0.6525929907825839
499,8670.0,0.5797951460099131
500,8690.0,0.6367153012372423
501,8709.6359,0.6542238038736573
502,8710.0,0.6545484617318664
503,8730.0,0.6547929062915233
504,8750.0,0.6345173508511801
505,8770.0,0.6545497954108368
506,8790.0,0.6589472399704936
507,8810.0,0.6469776845301504
508,8830.0,0.6508861290898071
509,8850.0,0.646001573649464
510,8870.0,0.6176640182091208
511,8890.0,0.6396504627687775
512,8910.0,0.6460029073284342
513,8930.0,0.634277351888091
514,8950.0,0.6345217964477478
515,8970.0,0.6350102410074046
516,8990.0,0.6337896855670614
517,9010.0,0.6017881301267182
518,9030.0,0.6264615746863749
519,9050.0,0.6460060192460316
520,9070.0,0.6416084638056884
521,9090.0,0.6271959083653452
522,9110.0,0.634769352925002
523,9130.0,0.6440527974846587
524,9150.0,0.6396562420443155
525,9170.0,0.6381906866039723
526,9190.0,0.642100131163629
527,9210.0,0.6210915757232859
528,9230.0,0.5978840202829426
529,9250.0,0.6086334648425994
530,9270.0,0.6144969094022561
531,9290.0,0.6115653539619129
532,9310.0,0.6144977985215696
533,9330.0,0.6130322430812265
534,9350.0,0.6108346876408832
535,9370.0,0.6017961322005401
536,9390.0,0.6083925767601968
537,9410.0,0.5932470213198535
538,9430.0,0.6076604658795103
539,9450.0,0.598377910439167
540,9470.0,0.6081493549988239
541,9490.0,0.6079057995584807
542,9510.0,0.5991122441181373
543,9530.0,0.5964246886777942
544,9550.0,0.5724851332374509
545,9570.0,0.5898295777971077
546,9590.0,0.6003350223567645
547,9610.0,0.5927624669164213
548,9630.0,0.5927629114760781
549,9650.0,0.5849463560357347
550,9670.0,0.5832368005953915
551,9690.0,0.5900772451550483
552,9710.0,0.5839696897147052
553,9730.0,0.579329134274362
554,9750.0,0.5759095788340187
555,9770.0,0.5771310233936754
556,9790.0,0.5698034679533321
557,9810.0,0.5800639125129889
558,9830.0,0.5751783570726458
559,9850.0,0.5768888016323025
560,9870.0,0.5722482461919594
561,9890.0,0.570782690751616
562,9910.0,0.5678511353112728
563,9930.0,0.5693175798709296
564,9950.0,0.5688290244305865
565,9970.0,0.5683414689902432
566,9990.0,0.5654099135498999
567,10000.0,0.5637003858297283
568,10030.0,0.5585718044329411
569,10070.0,0.5485566959038914
570,10130.0,0.5553980331103169
571,10170.0,0.5485589245812673
572,10220.0,0.5480720389199553
573,10280.0,0.5473403761263808
574,10320.0,0.5385462675973312
575,10380.0,0.5339066048037566
576,10430.0,0.5339077191424446
577,10480.0,0.5258468334811325
578,10520.0,0.5231607249520829
579,10580.0,0.5148560621585084
580,10630.0,0.5099711764971964
581,10680.0,0.5014222908358844
582,10720.0,0.5021561823068347
583,10780.0,0.4970275195132602
584,10820.0,0.4896994109842106
585,10870.0,0.4865245253228985
586,10920.0,0.47919663966158643
587,10980.0,0.476999976868012
588,11020.0,0.4777338683389623
589,11080.0,0.47284920554538784
590,11130.0,0.4691853198840758
591,11170.0,0.4643002113550262
592,11220.0,0.4633243256937141
593,11280.0,0.45550866290013964
594,11330.0,0.4535557772388276
595,11380.0,0.4498918915775155
596,11430.0,0.44427500591620345
597,11470.0,0.4476958973871539
598,11481.5362,0.4471793327318333
599,11530.0,0.4450102294531745
600,11570.0,0.4389049420397576
601,11620.0,0.43182408277298656
602,11670.0,0.43036022350621544
603,11730.0,0.4318287923860902
604,11770.0,0.4225475049726733
605,11830.0,0.418641073852548
606,11870.0,0.41180278643913115
607,11920.0,0.41717892717236005
608,11980.0,0.40374549605223475
609,12030.0,0.4088776367854637
610,12070.0,0.40423834937204683
611,12120.0,0.40350749010527576
612,12180.0,0.40351005898515047
613,12230.0,0.3998471997183794
614,12270.0,0.3964289123049625
615,12320.0,0.39301105303819145
616,12370.0,0.39105919377142034
617,12430.0,0.38666476265129507
618,12480.0,0.384711903384524
619,12530.0,0.38056104411775293
620,12580.0,0.37836518485098186
621,12620.0,0.37567989743756497
622,12670.0,0.3717730381707939
623,12720.0,0.3710421789040228
624,12780.0,0.3690907477838975
625,12830.0,0.3522368885171265
626,12880.0,0.36152202925035537
627,12920.0,0.3578587418369385
628,12980.0,0.3598163107168132
629,13020.0,0.35468702330339635
630,13080.0,0.35493459218327106
631,13130.0,0.34809673291649995
632,13180.0,0.34614387364972893
633,13182.5674,0.34611892574809877
634,13230.0,0.34565898255761124
635,13280.0,0.3393101438702026
636,13320.0,0.33955667292027575
637,13380.0,0.33589646649538546
638,13430.0,0.3361436278079768
639,13470.0,0.33272615685804996
640,13520.0,0.3302863181706414
641,13570.0,0.32491547948323274
642,13630.0,0.32320927305834246
643,13670.0,0.3232118021084156
644,13730.0,0.3227265956835253
645,13770.0,0.3212631247335984
646,13820.0,0.3205342860461898
647,13880.0,0.3173620796212995
648,13930.0,0.3090602409338909
649,13970.0,0.307108769983964
650,14020.0,0.30295893129655543
651,14080.0,0.30442772487166514
652,14120.0,0.30052225392173826
