,lambda (Angstroms),Total Flux (erg/s/cm^2/Angstrom)
0,1005.0,0.003635904815893997
1,1015.0,0.0036690237211184393
2,1025.0,0.003257542626342881
3,1035.0,0.0034274615315673237
4,1045.0,0.0038538904367917655
5,1055.0,0.0038552493420162077
6,1065.0,0.00376377824724065
7,1075.0,0.004143797152465092
8,1085.0,0.004088966057689534
9,1095.0,0.004385924962913976
10,1096.4782,0.004541041196284255
11,1105.0,0.005433321692877711
12,1115.0,0.005791488061946988
13,1125.0,0.005507174431016265
14,1135.0,0.005750520800085544
15,1145.0,0.005055797169154821
16,1155.0,0.004392833538224099
17,1165.0,0.003842239907293376
18,1175.0,0.002834826276362654
19,1185.0,0.0030781726454319315
20,1195.0,0.002798739014501209
21,1205.0,0.002542275383570487
22,1215.0,0.0023500517526397645
23,1225.0,0.0026664481217090422
24,1235.0,0.00281940449077832
25,1245.0,0.0028453408598475972
26,1255.0,0.0029567772289168753
27,1258.92541,0.0030733918839077
28,1265.0,0.003256055215520491
29,1275.0,0.004248125890978082
30,1285.0,0.005672576566435674
31,1295.0,0.006874727241893265
32,1305.0,0.007805707917350855
33,1315.0,0.010116928592808447
34,1325.0,0.011785669268266038
35,1335.0,0.012926709943723629
36,1345.0,0.01507915061918122
37,1355.0,0.015184491294638811
38,1365.0,0.016100831970096402
39,1375.0,0.017425072645553992
40,1385.0,0.018070313321011586
41,1395.0,0.019028053996469178
42,1405.0,0.019201694671926766
43,1415.0,0.020237735347384354
44,1425.0,0.020496976022841947
45,1435.0,0.019818116698299536
46,1442.0,0.021899585171119854
47,1445.43977,0.021861004943141728
48,1447.0,0.021843499474032482
49,1455.0,0.02308956107118548
50,1465.0,0.021633863067626727
51,1475.0,0.022347365064067978
52,1485.0,0.022843467060509225
53,1495.0,0.023405569056950477
54,1505.0,0.024312071053391723
55,1512.0,0.023857812450900597
56,1517.0,0.02388231344912122
57,1525.0,0.023943575046274222
58,1535.0,0.023782577042715473
59,1545.0,0.02495537903915672
60,1555.0,0.024784581035597966
61,1565.0,0.023128483032039217
62,1575.0,0.026299585028480465
63,1585.0,0.027643387024921716
64,1595.0,0.029353589021362963
65,1605.0,0.027277391017804214
66,1615.0,0.02825469301424546
67,1625.0,0.02639829501068671
68,1635.0,0.028132997007127958
69,1645.0,0.03140659900356921
70,1655.0,0.025495001000010457
71,1659.58691,0.028722214184460082
72,1665.0,0.032531392161704586
73,1672.0,0.027133724761238584
74,1677.0,0.04203616233233429
75,1685.0,0.044309142446087434
76,1695.0,0.03915611758827885
77,1705.0,0.041111992730470275
78,1715.0,0.048564267872661694
79,1725.0,0.05010474301485312
80,1735.0,0.05631121815704454
81,1745.0,0.054211793299235964
82,1755.0,0.06225036844142739
83,1765.0,0.0505259435836188
84,1775.0,0.05968831872581023
85,1785.0,0.06049589386800165
86,1795.0,0.07376236901019308
87,1805.0,0.06924444415238448
88,1815.0,0.07217741929457591
89,1825.0,0.06802599443676734
90,1835.0,0.06626856957895877
91,1845.0,0.05684034472115019
92,1855.0,0.06695551986334161
93,1865.0,0.07733929500553303
94,1875.0,0.07409167014772444
95,1885.0,0.07629184528991587
96,1895.0,0.0834265204321073
97,1905.0,0.07905529557429872
98,1905.46072,0.07929171289704978
99,1915.0,0.0841835496670948
100,1925.0,0.0786851481923976
101,1935.0,0.05757654671770038
102,1945.0,0.09035844524300317
103,1955.0,0.09289714376830596
104,1967.0,0.1038879619986693
105,1976.0,0.09824305067144182
106,1984.0,0.10188172949168406
107,1995.0,0.10134163786951712
108,2005.0,0.09371823639481992
109,2015.0,0.0948888349201227
110,2025.0,0.0849932334454255
111,2035.0,0.10226203197072829
112,2045.0,0.11147013049603108
113,2055.0,0.10736422902133387
114,2065.0,0.10211032754663665
115,2074.0,0.11881761621940917
116,2078.0,0.14393085562953029
117,2085.0,0.14874152459724224
118,2095.0,0.13962762312254504
119,2105.0,0.1288527216478478
120,2115.0,0.13691182017315062
121,2125.0,0.1315119186984534
122,2135.0,0.1144820172237562
123,2145.0,0.138372115749059
124,2155.0,0.13878521427436177
125,2165.0,0.12559231279966457
126,2175.0,0.12722641132496734
127,2185.0,0.14193150985027014
128,2187.7616199999998,0.1444675327052146
129,2195.0,0.15111708209646088
130,2205.0,0.14286159812801225
131,2215.0,0.12097511415956358
132,2225.0,0.12539763019111494
133,2235.0,0.15522714622266628
134,2245.0,0.14413766225421762
135,2255.0,0.12186017828576899
136,2265.0,0.12039569431732035
137,2275.0,0.1331982103488717
138,2285.0,0.15227872638042303
139,2295.0,0.1344722424119744
140,2305.0,0.15015675844352575
141,2315.0,0.1389452744750771
142,2325.0,0.10523479050662844
143,2335.0,0.10667730653817979
144,2345.0,0.08090652256973115
145,2355.0,0.1290823386012825
146,2365.0,0.08660145463283385
147,2375.0,0.10868637066438519
148,2385.0,0.07053018669593654
149,2395.0,0.08670370272748788
150,2405.0,0.08575251875903923
151,2415.0,0.09528133479059059
152,2425.0,0.13734995082214194
153,2435.0,0.13461546685369327
154,2445.0,0.15257198288524462
155,2455.0,0.155260498916796
156,2465.0,0.14908201494834733
157,2475.0,0.1336435309798987
158,2485.0,0.11749804701145004
159,2495.0,0.11857456304300139
160,2505.0,0.16315907907455274
161,2511.88643,0.10795979140469322
162,2513.0,0.09903355774100288
163,2518.0,0.08176206436894054
164,2525.0,0.08501065364805327
165,2535.0,0.10320976690392861
166,2545.0,0.10995118015980393
167,2555.0,0.14810959341567925
168,2565.0,0.1275880066715546
169,2575.0,0.14976941992742993
170,2585.0,0.14217083318330526
171,2595.0,0.1333272464391806
172,2605.0,0.12047665969505592
173,2615.0,0.10943407295093126
174,2625.0,0.1430234862068066
175,2635.0,0.18242789946268193
176,2645.0,0.23719631271855723
177,2655.0,0.2752077259744326
178,2665.0,0.20643813923030793
179,2675.0,0.23199055248618325
180,2685.0,0.24515796574205856
181,2695.0,0.20475137899793389
182,2705.0,0.2320867922538092
183,2715.0,0.19060520550968457
184,2725.0,0.1847186187655599
185,2735.0,0.20887703202143523
186,2745.0,0.13111944527731054
187,2755.0,0.1584558585331859
188,2765.0,0.18752527178906123
189,2775.0,0.20731168504493655
190,2785.0,0.14970809830081186
191,2795.0,0.06550051155668721
192,2805.0,0.08130552481256255
193,2815.0,0.19849033806843788
194,2825.0,0.2554097513243132
195,2835.0,0.24905716458018856
196,2845.0,0.22636257783606387
197,2855.0,0.1730829910919392
198,2865.0,0.2622474043478145
199,2875.0,0.28252281760368986
200,2884.0315,0.2708292046357336
201,2885.0,0.26957528652277335
202,2895.0,0.2788582745149226
203,2910.0,0.3453042565031465
204,2930.0,0.316478232487445
205,2950.0,0.30621920847174355
206,2970.0,0.3252721844560421
207,2990.0,0.33015816044034063
208,3010.0,0.3423731364246391
209,3030.0,0.34530411240893766
210,3050.0,0.3558090883932362
211,3070.0,0.36704606437753473
212,3090.0,0.37388704036183323
213,3110.0,0.38390201634613175
214,3130.0,0.37339799233043036
215,3150.0,0.3760849683147289
216,3170.0,0.3907429442990274
217,3190.0,0.3536099202833259
218,3210.0,0.38414689626762444
219,3230.0,0.342372872251923
220,3250.0,0.4078428482362215
221,3270.0,0.44839482422052
222,3290.0,0.4427758002048186
223,3310.0,0.4415537761891171
224,3311.31121,0.4416018304611357
225,3330.0,0.44228634562495545
226,3350.0,0.43422588653725613
227,3370.0,0.3858554274495568
228,3390.0,0.4088179683618574
229,3410.0,0.41370350927415805
230,3430.0,0.4254290501864587
231,3450.0,0.4371545910987594
232,3470.0,0.4405731320110601
233,3490.0,0.4628036729233607
234,3510.0,0.48063621383566135
235,3530.0,0.45327475474796197
236,3550.0,0.49920129566026267
237,3570.0,0.4158988365725633
238,3590.0,0.413455377484864
239,3610.0,0.45669291839716464
240,3630.0,0.4691514593094653
241,3640.0,0.4767242297656156
242,3650.0,0.5216740002217659
243,3670.0,0.5189865411340666
244,3690.0,0.48551808204636726
245,3710.0,0.5324216229586679
246,3730.0,0.45693516387096855
247,3750.0,0.5202057047832692
248,3770.0,0.5842092456955699
249,3790.0,0.6301357866078705
250,3801.8939600000003,0.6500388662533345
251,3810.0,0.6636033662898969
252,3830.0,0.4999280028585867
253,3850.0,0.6467456394272764
254,3870.0,0.6765492759959661
255,3890.0,0.5942229125646559
256,3910.0,0.7447055491333456
257,3930.0,0.4605951857020353
258,3950.0,0.6670208222707249
259,3970.0,0.45204445883941474
260,3990.0,0.8267850954081044
261,4010.0,0.9010487319767941
262,4030.0,0.9064233685454839
263,4050.0,0.8841920051141736
264,4070.0,0.8556096416828634
265,4090.0,0.8868782782515531
266,4110.0,0.7991789148202428
267,4130.0,0.8966495513889324
268,4150.0,0.9108181879576221
269,4170.0,0.9122838245263118
270,4190.0,0.9037334610950016
271,4210.0,0.9130160976636913
272,4230.0,0.8915177342323811
273,4250.0,0.9149693708010708
274,4270.0,0.8817450073697606
275,4290.0,0.8497426439384502
276,4310.0,0.7652182805071399
277,4330.0,0.8724609170758296
278,4350.0,0.8201825536445193
279,4365.15832,0.934605614630111
280,4370.0,0.9711533285174778
281,4390.0,0.9213195363931053
282,4410.0,0.9462357442687329
283,4430.0,0.9779939521443604
284,4450.0,0.9821471600199878
285,4470.0,1.0183023678956153
286,4490.0,1.0273425757712429
287,4510.0,1.1165027836468704
288,4530.0,1.0202529915224978
289,4550.0,1.0412631993981254
290,4570.0,1.102093407273753
291,4590.0,1.0529936151493804
292,4610.0,1.0769338230250078
293,4630.0,1.0527440309006353
294,4650.0,1.0652042387762628
295,4670.0,1.0913444466518905
296,4690.0,1.0698446545275178
297,4710.0,1.0380948624031454
298,4730.0,1.0757150702787728
299,4750.0,1.0959852781544004
300,4770.0,1.089635486030028
301,4790.0,1.0842656939056554
302,4810.0,1.0747359017812828
303,4830.0,1.0857261096569104
304,4850.0,0.9950993175325379
305,4870.0,0.8841915254081654
306,4890.0,1.041516733283793
307,4910.0,1.0485969411594203
308,4930.0,1.0319871490350478
309,4950.0,1.0715573569106753
310,4970.0,1.063497564786303
311,4990.0,1.0016977726619303
312,5010.0,0.9613879805375579
313,5011.87234,0.9656878288082503
314,5030.0,1.0073182262749776
315,5050.0,1.002428475923004
316,5070.0,1.0358987255710304
317,5090.0,0.9919259752190566
318,5110.0,1.007799224867083
319,5130.0,0.9775134745151094
320,5150.0,0.9496637241631357
321,5170.0,0.907890973811162
322,5190.0,0.9240152234591884
323,5210.0,0.9609024731072148
324,5230.0,0.9936377227552412
325,5250.0,1.0205109724032675
326,5270.0,0.9289022220512939
327,5290.0,1.0210014716993203
328,5310.0,1.0578817213473466
329,5330.0,0.9660339709953728
330,5350.0,1.0307722206433991
331,5370.0,1.0246624702914258
332,5390.0,1.004632719939452
333,5410.0,0.9865549695874783
334,5430.0,0.9997472192355047
335,5450.0,1.0258834688835312
336,5470.0,1.0031637185315574
337,5490.0,1.0036539681795837
338,5510.0,0.9965722178276101
339,5530.0,1.0126944674756364
340,5550.0,1.0219747171236628
341,5570.0,1.001704966771689
342,5590.0,0.9833822164197156
343,5610.0,1.0090354660677419
344,5630.0,1.0019457157157683
345,5650.0,1.0070759653637946
346,5670.0,0.983871215011821
347,5690.0,1.0051264646598472
348,5710.0,0.9780087143078736
349,5730.0,1.0361469639559
350,5750.0,1.0031672136039262
351,5754.399369999999,1.0049952067536279
352,5770.0,1.0114777644972102
353,5790.0,0.9802094003415086
354,5810.0,1.006839036185807
355,5830.0,1.0246696720301054
356,5850.0,0.9992663078744037
357,5870.0,0.9995109437187022
358,5890.0,0.9242705795630006
359,5910.0,0.9841212154072989
360,5930.0,0.9853438512515974
361,5950.0,0.9838784870958959
362,5970.0,0.9929181229401942
363,5990.0,0.9772837587844927
364,6010.0,0.962627394628791
365,6030.0,0.9777740304730894
366,6050.0,0.9892566663173878
367,6070.0,0.9838823021616864
368,6090.0,0.9545679380059847
369,6110.0,0.9540805738502831
370,6130.0,0.9132852096945815
371,6150.0,0.9294088455388799
372,6170.0,0.9008274813831784
373,6190.0,0.9404021172274768
374,6210.0,0.9338077530717751
375,6230.0,0.9096233889160736
376,6250.0,0.8810420247603721
377,6270.0,0.9159766606046704
378,6290.0,0.9240392964489688
379,6310.0,0.9010759322932672
380,6330.0,0.9091385681375657
381,6350.0,0.9086502039818641
382,6370.0,0.9027878398261625
383,6390.0,0.9130494756704608
384,6410.0,0.8942391115147593
385,6430.0,0.8996137473590577
386,6450.0,0.8939963832033562
387,6470.0,0.8905770190476546
388,6490.0,0.8722556548919529
389,6510.0,0.8925322907362514
390,6530.0,0.8871589265805498
391,6550.0,0.8507595624248482
392,6570.0,0.7735651982691467
393,6590.0,0.867128834113445
394,6606.93448,0.8785059561620727
395,6610.0,0.8805653730589198
396,6630.0,0.8759233767179856
397,6650.0,0.8742133803770514
398,6670.0,0.8590673840361173
399,6690.0,0.872015387695183
400,6710.0,0.846364391354249
401,6730.0,0.8624873950133148
402,6750.0,0.8488073986723806
403,6770.0,0.8514944023314466
404,6790.0,0.8431884059905125
405,6810.0,0.8424554096495783
406,6830.0,0.8473414133086441
407,6850.0,0.82779841696771
408,6870.0,0.8365924206267757
409,6890.0,0.8436774242858417
410,6910.0,0.8375694279449075
411,6930.0,0.8307294316039734
412,6950.0,0.8255994352630392
413,6970.0,0.8299964389221051
414,6990.0,0.824378442581171
415,7010.0,0.8082554462402368
416,7030.0,0.8197364498993026
417,7050.0,0.8226684535583685
418,7070.0,0.8067904572174344
419,7090.0,0.7938424608765002
420,7110.0,0.7806504645355661
421,7130.0,0.7691694681946318
422,7150.0,0.7672144718536977
423,7170.0,0.7713674755127636
424,7190.0,0.7530454791718295
425,7210.0,0.7664814828308953
426,7230.0,0.7745434864899611
427,7250.0,0.775520490149027
428,7270.0,0.7755204938080928
429,7290.0,0.7606184974671587
430,7310.0,0.7728335011262245
431,7330.0,0.7728335047852903
432,7350.0,0.7750325084443563
433,7370.0,0.7855365121034221
434,7390.0,0.769902515762488
435,7410.0,0.7628175194215538
436,7430.0,0.7755205230806196
437,7450.0,0.7757655267396856
438,7470.0,0.7804065303987514
439,7490.0,0.7760095340578173
440,7510.0,0.7806505377168831
441,7530.0,0.786513541375949
442,7550.0,0.7894455450350149
443,7570.0,0.7835825486940806
444,7585.77575,0.7756820559803062
445,7590.0,0.7735666062235599
446,7610.0,0.7655048649357752
447,7630.0,0.7586651236479905
448,7650.0,0.7508483823602059
449,7670.0,0.7247096410724212
450,7690.0,0.7398558997846365
451,7710.0,0.726908158496852
452,7730.0,0.7278854172090673
453,7750.0,0.7212906759212826
454,7770.0,0.7281309346334979
455,7790.0,0.7310621933457133
456,7810.0,0.7286194520579287
457,7830.0,0.721779710770144
458,7850.0,0.7144509694823593
459,7870.0,0.7212922281945747
460,7890.0,0.71029848690679
461,7910.0,0.6958857456190054
462,7930.0,0.6944200043312206
463,7950.0,0.6883142630434361
464,7970.0,0.7059025217556514
465,7990.0,0.7041927804678667
466,8010.0,0.705903039180082
467,8030.0,0.7061472978922975
468,8050.0,0.7029725566045127
469,8070.0,0.7059038153167281
470,8090.0,0.6963770740289434
471,8110.0,0.6995533327411588
472,8130.0,0.7100575914533742
473,8150.0,0.7117678501655895
474,8170.0,0.7139671088778048
475,8190.0,0.6968663675900203
476,8210.0,0.6905156263022355
477,8230.0,0.6922258850144509
478,8250.0,0.6927141437266662
479,8270.0,0.6983334024388816
480,8290.0,0.6919816611510969
481,8310.0,0.6731729198633123
482,8330.0,0.6690201785755275
483,8350.0,0.6697534372877431
484,8370.0,0.6724406959999584
485,8390.0,0.6536309547121736
486,8410.0,0.669754213424389
487,8430.0,0.6489894721366044
488,8450.0,0.6445927308488197
489,8470.0,0.641660989561035
490,8490.0,0.6445932482732504
491,8510.0,0.6143015069854658
492,8530.0,0.6409287656976811
493,8550.0,0.5779020244098964
494,8570.0,0.6543662831221118
495,8590.0,0.6411745418343271
496,8610.0,0.6421518005465424
497,8630.0,0.6563210592587578
498,8650.0,0.6526563179709731
499,8670.0,0.5798585766831885
500,8690.0,0.6367788353954038
501,8709.6359,0.6542874396327627
502,8710.0,0.6546121028864441
503,8730.0,0.6548568438192055
504,8750.0,0.6345815847519668
505,8770.0,0.654614325684728
506,8790.0,0.6590120666174895
507,8810.0,0.6470428075502507
508,8830.0,0.650951548483012
509,8850.0,0.6460672894157732
510,8870.0,0.6177300303485346
511,8890.0,0.6397167712812958
512,8910.0,0.6460695122140571
513,8930.0,0.6343442531468183
514,8950.0,0.6345889940795797
515,8970.0,0.6350777350123409
516,8990.0,0.6338574759451022
517,9010.0,0.6018562168778636
518,9030.0,0.6265299578106248
519,9050.0,0.6460746987433861
520,9070.0,0.6416774396761473
521,9090.0,0.6272651806089087
522,9110.0,0.63483892154167
523,9130.0,0.6441226624744312
524,9150.0,0.6397264034071924
525,9170.0,0.6382611443399538
526,9190.0,0.642170885272715
527,9210.0,0.6211626262054764
528,9230.0,0.5979553671382377
529,9250.0,0.608705108070999
530,9270.0,0.6145688490037602
531,9290.0,0.6116375899365215
532,9310.0,0.6145703308692828
533,9330.0,0.6131050718020441
534,9350.0,0.6109078127348053
535,9370.0,0.6018695536675667
536,9390.0,0.608466294600328
537,9410.0,0.5933210355330892
538,9430.0,0.6077347764658505
539,9450.0,0.5984525173986117
540,9470.0,0.6082242583313732
541,9490.0,0.6079809992641344
542,9510.0,0.5991877401968956
543,9530.0,0.596500481129657
544,9550.0,0.5725612220624182
545,9570.0,0.5899059629951795
546,9590.0,0.6004117039279407
547,9610.0,0.5928394448607022
548,9630.0,0.5928401857934634
549,9650.0,0.5850239267262246
550,9670.0,0.5833146676589859
551,9690.0,0.5901554085917473
552,9710.0,0.5840481495245086
553,9730.0,0.5794078904572698
554,9750.0,0.5759886313900312
555,9770.0,0.5772103723227924
556,9790.0,0.5698831132555536
557,9810.0,0.5801438541883149
558,9830.0,0.5752585951210762
559,9850.0,0.5769693360538375
560,9870.0,0.5723290769865989
561,9890.0,0.57086381791936
562,9910.0,0.5679325588521215
563,9930.0,0.5693992997848827
564,9950.0,0.568911040717644
565,9970.0,0.5684237816504052
566,9990.0,0.5654925225831665
567,10000.0,0.5637831430495471
568,10030.0,0.5586550073882351
569,10070.0,0.5486404931731523
570,10130.0,0.5554827218505283
571,10170.0,0.5486442076354455
572,10220.0,0.548158064866592
573,10280.0,0.5474272935439679
574,10320.0,0.5386337793288852
575,10380.0,0.5339950080062611
576,10430.0,0.5339968652374076
577,10480.0,0.5259367224685543
578,10520.0,0.5232512082534715
579,10580.0,0.5149474369308474
580,10630.0,0.5100632941619939
581,10680.0,0.5015151513931406
582,10720.0,0.5022496371780578
583,10780.0,0.49712186585543366
584,10820.0,0.48979435164035096
585,10870.0,0.48662020887149754
586,10920.0,0.47929306610264405
587,10980.0,0.47709729478002
588,11020.0,0.47783178056493725
589,11080.0,0.4729480092423131
590,11130.0,0.4692848664734597
591,11170.0,0.46440035225837695
592,11220.0,0.46342520948952354
593,11280.0,0.4556104381668994
594,11330.0,0.45365829539804603
595,11380.0,0.44999515262919254
596,11430.0,0.4443790098603391
597,11470.0,0.4478004956452564
598,11481.5362,0.44728410239305544
599,11530.0,0.44511638242195745
600,11570.0,0.4390122367329294
601,11620.0,0.43193280462164424
602,11670.0,0.4304703725103591
603,11730.0,0.43194065397681697
604,11770.0,0.4226605082877888
605,11830.0,0.41875578975424665
606,11870.0,0.4119186440652186
607,11920.0,0.41729621195393346
608,11980.0,0.40386449342039127
609,12030.0,0.40899806130910615
610,12070.0,0.40435991562007806
611,12120.0,0.4036304835087929
612,12180.0,0.40363476497525075
613,12230.0,0.39997333286396564
614,12270.0,0.3965561871749375
615,12320.0,0.3931397550636524
616,12370.0,0.39118932295236725
617,12430.0,0.38679660441882513
618,12480.0,0.38484517230754
619,12530.0,0.38069574019625485
620,12580.0,0.37850130808496973
621,12620.0,0.3758171623959416
622,12670.0,0.37191173028465646
623,12720.0,0.37118229817337134
624,12780.0,0.3692325796398292
625,12830.0,0.3523801475285441
626,12880.0,0.3616667154172589
627,12920.0,0.35800456972823086
628,12980.0,0.3599638511946887
629,13020.0,0.35483570550566057
630,13080.0,0.35508498697211843
631,13130.0,0.3482485548608333
632,13180.0,0.34629712274954816
633,13182.5674,0.3462722481294979
634,13230.0,0.34581430426268533
635,13280.0,0.3394675731170044
636,13320.0,0.33971578820045956
637,13380.0,0.3360581108256424
638,13430.0,0.3363073796799614
639,13470.0,0.3328915947634166
640,13520.0,0.33045386361773565
641,13570.0,0.3250851324720546
642,13630.0,0.3233814550972374
643,13670.0,0.32338567018069264
644,13730.0,0.3229029928058755
645,13770.0,0.32144120788933067
646,13820.0,0.32071447674364967
647,13880.0,0.31754479936883245
648,13930.0,0.30924506822315145
649,13970.0,0.3072952833066067
650,14020.0,0.3031475521609257
651,14080.0,0.30461887478610855
652,14120.0,0.30071508986956375
653,14180.0,0.3024314124947466
