,lambda (Angstroms),Total Flux (erg/s/cm^2/Angstrom)
0,1005.0,0.0034834134815893997
1,1015.0,0.0035175053721118437
2,1025.0,0.0031069972626342882
3,1035.0,0.0032778891531567325
4,1045.0,0.0037052910436791765
5,1055.0,0.0037076229342016204
6,1065.0,0.0036171248247240653
7,1075.0,0.003998116715246509
8,1085.0,0.003944258605768953
9,1095.0,0.004242190496291398
10,1096.4782,0.004397450556348427
11,1105.0,0.005292326169287771
12,1115.0,0.005653537806194699
13,1125.0,0.005372269443101626
14,1135.0,0.005618661080008555
15,1145.0,0.004926982716915482
16,1155.0,0.00426706435382241
17,1165.0,0.0037195159907293376
18,1175.0,0.0027151476276362652
19,1185.0,0.0029615392645431934
20,1195.0,0.0026851509014501206
21,1205.0,0.002431732538357049
22,1215.0,0.0022425541752639764
23,1225.0,0.0025619958121709044
24,1235.0,0.002717997449077832
25,1245.0,0.0027469790859847598
26,1255.0,0.0028614607228916876
27,1258.92541,0.0029792707703647715
28,1265.0,0.003161802521552049
29,1275.0,0.004153656589097808
30,1285.0,0.005577890656643568
31,1295.0,0.006779824724189326
32,1305.0,0.0077105887917350855
33,1315.0,0.010021592859280845
34,1325.0,0.011690116926826604
35,1335.0,0.012830940994372363
36,1345.0,0.014983165061918121
37,1355.0,0.015088289129463882
38,1365.0,0.01600441319700964
39,1375.0,0.017328437264555397
40,1385.0,0.01797346133210116
41,1395.0,0.01893098539964692
42,1405.0,0.019104409467192676
43,1415.0,0.020140233534738435
44,1425.0,0.020399257602284195
45,1435.0,0.019720181669829952
46,1442.0,0.021801498517111984
47,1445.43977,0.021762843780994173
48,1447.0,0.02174530994740325
49,1455.0,0.022991226107118547
50,1465.0,0.02153534630676267
51,1475.0,0.022248666506406795
52,1485.0,0.022744586706050923
53,1495.0,0.023306506905695048
54,1505.0,0.02421282710533917
55,1512.0,0.023758441245090058
56,1517.0,0.02378285134491212
57,1525.0,0.023843967504627424
58,1535.0,0.023682787704271548
59,1545.0,0.02485540790391567
60,1555.0,0.024684428103559794
61,1565.0,0.023028148303203922
62,1575.0,0.026199068502848047
63,1585.0,0.02754268870249217
64,1595.0,0.029252708902136295
65,1605.0,0.027176329101780423
66,1615.0,0.028153449301424546
67,1625.0,0.02629686950106867
68,1635.0,0.028031389700712794
69,1645.0,0.031304809900356924
70,1655.0,0.025393030100001046
71,1659.58691,0.028620159895896
72,1665.0,0.032428619216170455
73,1672.0,0.02703002247612386
74,1677.0,0.041931796233233426
75,1685.0,0.04420371424460875
76,1695.0,0.03904936175882789
77,1705.0,0.04100390927304703
78,1715.0,0.048454856787266166
79,1725.0,0.04999400430148531
80,1735.0,0.05619915181570445
81,1745.0,0.0540983993299236
82,1755.0,0.06213564684414274
83,1765.0,0.05040989435836188
84,1775.0,0.05957094187258102
85,1785.0,0.060377189386800166
86,1795.0,0.0736423369010193
87,1805.0,0.06912308441523844
88,1815.0,0.07205473192945759
89,1825.0,0.06790197944367674
90,1835.0,0.06614322695789587
91,1845.0,0.05671367447211502
92,1855.0,0.06682752198633417
93,1865.0,0.07720996950055331
94,1875.0,0.07396101701477244
95,1885.0,0.07615986452899158
96,1895.0,0.08329321204321073
97,1905.0,0.07892065955742987
98,1905.46072,0.079157015713705
99,1915.0,0.08405048496670948
100,1925.0,0.07855379481923976
101,1935.0,0.057446904671770035
102,1945.0,0.09023051452430032
103,1955.0,0.0927709243768306
104,1967.0,0.10376379619986692
105,1976.0,0.09812042506714418
106,1984.0,0.10176047294916842
107,1995.0,0.1012222637869517
108,2005.0,0.093600573639482
109,2015.0,0.09477288349201227
110,2025.0,0.08487899334454256
111,2035.0,0.10214950319707283
112,2045.0,0.11135931304960311
113,2055.0,0.10725512290213339
114,2065.0,0.10200293275466367
115,2074.0,0.11871176162194091
116,2078.0,0.14382568556295303
117,2085.0,0.14863755245972424
118,2095.0,0.13952536231225451
119,2105.0,0.12875217216478477
120,2115.0,0.13681298201731507
121,2125.0,0.13141479186984534
122,2135.0,0.11438660172237562
123,2145.0,0.1382784115749059
124,2155.0,0.13869322142743618
125,2165.0,0.12550203127996645
126,2175.0,0.12713784113249674
127,2185.0,0.141844650985027
128,2187.7616199999998,0.14438114644352124
129,2195.0,0.15102970820964606
130,2205.0,0.14277285981280122
131,2215.0,0.12088501141595635
132,2225.0,0.1253061630191115
133,2235.0,0.15513431462226665
134,2245.0,0.14404346622542175
135,2255.0,0.1217646178285769
136,2265.0,0.12029876943173204
137,2275.0,0.1330999210348872
138,2285.0,0.1521790726380423
139,2295.0,0.13437122424119743
140,2305.0,0.15005437584435258
141,2315.0,0.13884152744750772
142,2325.0,0.10512967905066285
143,2335.0,0.10657083065381798
144,2345.0,0.08079868225697312
145,2355.0,0.12897313386012824
146,2365.0,0.08649088546328339
147,2375.0,0.10857443706643853
148,2385.0,0.07041688866959366
149,2395.0,0.08658904027274879
150,2405.0,0.08563649187590391
151,2415.0,0.09516394347905906
152,2425.0,0.1372311950822142
153,2435.0,0.13449534668536933
154,2445.0,0.15245049828852444
155,2455.0,0.1551376498916796
156,2465.0,0.14895780149483473
157,2475.0,0.1335179530979899
158,2485.0,0.11737110470114501
159,2495.0,0.11844625630430014
160,2505.0,0.16302940790745526
161,2511.88643,0.1078291806335317
162,2513.0,0.09890300577410029
163,2518.0,0.08163177643689405
164,2525.0,0.08488073536480534
165,2535.0,0.10308037669039287
166,2545.0,0.1098223180159804
167,2555.0,0.14798125934156792
168,2565.0,0.12746020066715547
169,2575.0,0.149642141992743
170,2585.0,0.14204408331833052
171,2595.0,0.13320102464391806
172,2605.0,0.12035096596950559
173,2615.0,0.10930890729509313
174,2625.0,0.14289884862068067
175,2635.0,0.1823037899462682
176,2645.0,0.2370727312718557
177,2655.0,0.2750846725974433
178,2665.0,0.2063156139230308
179,2675.0,0.23186855524861832
180,2685.0,0.24503649657420584
181,2695.0,0.20463043789979338
182,2705.0,0.2319663792253809
183,2715.0,0.19048532055096845
184,2725.0,0.18459926187655598
185,2735.0,0.20875820320214353
186,2745.0,0.13100114452773104
187,2755.0,0.15833808585331857
188,2765.0,0.18740802717890612
189,2775.0,0.20719496850449365
190,2785.0,0.14959190983008117
191,2795.0,0.06538485115566872
192,2805.0,0.08119039248125626
193,2815.0,0.1983757338068438
194,2825.0,0.2552956751324313
195,2835.0,0.24894361645801888
196,2845.0,0.2262495577836064
197,2855.0,0.17297049910919393
198,2865.0,0.26213544043478143
199,2875.0,0.282411381760369
200,2884.0315,0.27071824571857334
201,2885.0,0.2694643286522774
202,2895.0,0.2787473274514923
203,2910.0,0.3451933256503147
204,2930.0,0.3163673232487445
205,2950.0,0.3061083208471743
206,2970.0,0.32516131844560425
207,2990.0,0.3300473160440341
208,3010.0,0.3422623136424639
209,3030.0,0.3451933112408938
210,3050.0,0.35569830883932363
211,3070.0,0.36693530643775346
212,3090.0,0.37377630403618334
213,3110.0,0.38379130163461317
214,3130.0,0.37328729923304305
215,3150.0,0.3759742968314729
216,3170.0,0.39063229442990277
217,3190.0,0.3534992920283326
218,3210.0,0.3840362896267624
219,3230.0,0.3422622872251923
220,3250.0,0.40773228482362217
221,3270.0,0.448284282422052
222,3290.0,0.4426652800204819
223,3310.0,0.4414432776189117
224,3311.31121,0.4414913333079636
225,3330.0,0.44217623456249555
226,3350.0,0.4341161886537256
227,3370.0,0.3857461427449557
228,3390.0,0.4087090968361857
229,3410.0,0.4135950509274158
230,3430.0,0.4253210050186459
231,3450.0,0.43704695910987595
232,3470.0,0.440465913201106
233,3490.0,0.46269686729233606
234,3510.0,0.48052982138356615
235,3530.0,0.45316877547479617
236,3550.0,0.49909572956602627
237,3570.0,0.41579368365725633
238,3590.0,0.4133506377484864
239,3610.0,0.45658859183971645
240,3630.0,0.46904754593094655
241,3640.0,0.47662052297656154
242,3650.0,0.5215705000221766
243,3670.0,0.5188834541134066
244,3690.0,0.48541540820463674
245,3710.0,0.5323193622958667
246,3730.0,0.45683331638709684
247,3750.0,0.520104270478327
248,3770.0,0.5841082245695569
249,3790.0,0.6300351786607871
250,3801.8939600000003,0.649938504022934
251,3810.0,0.6635031366289896
252,3830.0,0.49982810028585867
253,3850.0,0.6466460639427276
254,3870.0,0.6764500275995966
255,3890.0,0.5941239912564655
256,3910.0,0.7446069549133346
257,3930.0,0.46049691857020353
258,3950.0,0.6669228822270724
259,3970.0,0.45194684588394146
260,3990.0,0.8266878095408104
261,4010.0,0.9009517731976794
262,4030.0,0.9063267368545483
263,4050.0,0.8840957005114174
264,4070.0,0.8555136641682863
265,4090.0,0.8867826278251553
266,4110.0,0.7990835914820243
267,4130.0,0.8965545551388933
268,4150.0,0.9107235187957622
269,4170.0,0.9121894824526312
270,4190.0,0.9036394461095002
271,4210.0,0.9129224097663691
272,4230.0,0.8914243734232381
273,4250.0,0.9148763370801071
274,4270.0,0.8816523007369761
275,4290.0,0.849650264393845
276,4310.0,0.7651262280507141
277,4330.0,0.872369191707583
278,4350.0,0.8200911553644519
279,4365.15832,0.9345144642554081
280,4370.0,0.9710621328517478
281,4390.0,0.9212281536393105
282,4410.0,0.9461441744268733
283,4430.0,0.977902195214436
284,4450.0,0.9820552160019987
285,4470.0,1.0182102367895616
286,4490.0,1.0272502575771243
287,4510.0,1.1164102783646872
288,4530.0,1.0201602991522496
289,4550.0,1.0411703199398126
290,4570.0,1.1020003407273753
291,4590.0,1.0529003615149382
292,4610.0,1.0768403823025008
293,4630.0,1.0526504030900636
294,4650.0,1.0651104238776261
295,4670.0,1.091250444665189
296,4690.0,1.0697504654527517
297,4710.0,1.0380004862403145
298,4730.0,1.0756205070278773
299,4750.0,1.09589052781544
300,4770.0,1.089540548603003
301,4790.0,1.0841705693905654
302,4810.0,1.0746405901781282
303,4830.0,1.085630610965691
304,4850.0,0.9950036317532538
305,4870.0,0.8840956525408166
306,4890.0,1.0414206733283793
307,4910.0,1.048500694115942
308,4930.0,1.0318907149035046
309,4950.0,1.0714607356910675
310,4970.0,1.0634007564786303
311,4990.0,1.001600777266193
312,5010.0,0.9612907980537558
313,5011.87234,0.9655906288098248
314,5030.0,1.0072208226274977
315,5050.0,1.0023308475923005
316,5070.0,1.035800872557103
317,5090.0,0.9918278975219056
318,5110.0,1.0077009224867082
319,5130.0,0.977414947451511
320,5150.0,0.9495649724163135
321,5170.0,0.9077919973811162
322,5190.0,0.9239160223459189
323,5210.0,0.9608030473107214
324,5230.0,0.9935380722755242
325,5250.0,1.0204110972403266
326,5270.0,0.9288021222051294
327,5290.0,1.020901147169932
328,5310.0,1.0577811721347348
329,5330.0,0.9659331970995373
330,5350.0,1.03067122206434
331,5370.0,1.0245612470291425
332,5390.0,1.0045312719939452
333,5410.0,0.9864532969587478
334,5430.0,0.9996453219235505
335,5450.0,1.0257813468883532
336,5470.0,1.0030613718531558
337,5490.0,1.0035513968179586
338,5510.0,0.996469421782761
339,5530.0,1.0125914467475636
340,5550.0,1.0218714717123663
341,5570.0,1.001601496677169
342,5590.0,0.9832785216419716
343,5610.0,1.0089315466067743
344,5630.0,1.0018415715715767
345,5650.0,1.0069715965363795
346,5670.0,0.9837666215011821
347,5690.0,1.0050216464659847
348,5710.0,0.9779036714307874
349,5730.0,1.03604169639559
350,5750.0,1.0030617213603927
351,5754.399369999999,1.0048896650868626
352,5770.0,1.011371776449721
353,5790.0,0.9801028400341509
354,5810.0,1.0067319036185807
355,5830.0,1.0245619672030106
356,5850.0,0.9991580307874404
357,5870.0,0.9994020943718702
358,5890.0,0.9241611579563
359,5910.0,0.9840112215407298
360,5930.0,0.9852332851251597
361,5950.0,0.9837673487095896
362,5970.0,0.9928064122940193
363,5990.0,0.9771714758784492
364,6010.0,0.9625145394628791
365,6030.0,0.977660603047309
366,6050.0,0.9891426666317388
367,6070.0,0.9837677302161687
368,6090.0,0.9544527938005984
369,6110.0,0.9539648573850283
370,6130.0,0.9131689209694581
371,6150.0,0.929291984553888
372,6170.0,0.9007100481383178
373,6190.0,0.9402841117227476
374,6210.0,0.9336891753071774
375,6230.0,0.9095042388916074
376,6250.0,0.8809223024760372
377,6270.0,0.915856366060467
378,6290.0,0.9239184296448969
379,6310.0,0.9009544932293267
380,6330.0,0.9090165568137566
381,6350.0,0.9085276203981865
382,6370.0,0.9026646839826162
383,6390.0,0.912925747567046
384,6410.0,0.894114811151476
385,6430.0,0.8994888747359058
386,6450.0,0.8938709383203356
387,6470.0,0.8904510019047654
388,6490.0,0.8721290654891952
389,6510.0,0.8924051290736252
390,6530.0,0.8870311926580551
391,6550.0,0.8506312562424848
392,6570.0,0.7734363198269147
393,6590.0,0.8669993834113445
394,6606.93448,0.8783760209138073
395,6610.0,0.880435437305892
396,6630.0,0.8757934376717985
397,6650.0,0.8740834380377052
398,6670.0,0.8589374384036117
399,6690.0,0.8718854387695183
400,6710.0,0.8462344391354248
401,6730.0,0.8623574395013315
402,6750.0,0.848677439867238
403,6770.0,0.8513644402331447
404,6790.0,0.8430584405990512
405,6810.0,0.8423254409649579
406,6830.0,0.8472114413308643
407,6850.0,0.827668441696771
408,6870.0,0.8364624420626775
409,6890.0,0.8435474424285841
410,6910.0,0.8374394427944907
411,6930.0,0.8305994431603974
412,6950.0,0.825469443526304
413,6970.0,0.8298664438922105
414,6990.0,0.8242484442581172
415,7010.0,0.8081254446240237
416,7030.0,0.8196064449899303
417,7050.0,0.8225384453558369
418,7070.0,0.8066604457217434
419,7090.0,0.79371244608765
420,7110.0,0.7805204464535567
421,7130.0,0.7690394468194631
422,7150.0,0.7670844471853698
423,7170.0,0.7712374475512763
424,7190.0,0.752915447917183
425,7210.0,0.7663514482830895
426,7230.0,0.7744134486489961
427,7250.0,0.7753904490149026
428,7270.0,0.7753904493808093
429,7290.0,0.7604884497467158
430,7310.0,0.7727034501126224
431,7330.0,0.772703450478529
432,7350.0,0.7749024508444357
433,7370.0,0.7854064512103421
434,7390.0,0.7697724515762489
435,7410.0,0.7626874519421555
436,7430.0,0.7753904523080619
437,7450.0,0.7756354526739686
438,7470.0,0.7802764530398751
439,7490.0,0.7758794534057818
440,7510.0,0.7805204537716883
441,7530.0,0.7863834541375949
442,7550.0,0.7893154545035015
443,7570.0,0.7834524548694081
444,7585.77575,0.7755519595580307
445,7590.0,0.773436460622356
446,7610.0,0.7653744864935775
447,7630.0,0.7585345123647991
448,7650.0,0.7507175382360206
449,7670.0,0.7245785641072421
450,7690.0,0.7397245899784637
451,7710.0,0.7267766158496852
452,7730.0,0.7277536417209067
453,7750.0,0.7211586675921283
454,7770.0,0.7279986934633498
455,7790.0,0.7309297193345713
456,7810.0,0.7284867452057928
457,7830.0,0.7216467710770145
458,7850.0,0.7143177969482359
459,7870.0,0.7211588228194574
460,7890.0,0.710164848690679
461,7910.0,0.6957518745619006
462,7930.0,0.694285900433122
463,7950.0,0.6881799263043437
464,7970.0,0.7057679521755651
465,7990.0,0.7040579780467866
466,8010.0,0.7057680039180082
467,8030.0,0.7060120297892297
468,8050.0,0.7028370556604512
469,8070.0,0.7057680815316728
470,8090.0,0.6962411074028944
471,8110.0,0.6994171332741158
472,8130.0,0.7099211591453375
473,8150.0,0.711631185016559
474,8170.0,0.7138302108877804
475,8190.0,0.6967292367590021
476,8210.0,0.6903782626302235
477,8230.0,0.6920882885014451
478,8250.0,0.6925763143726666
479,8270.0,0.6981953402438882
480,8290.0,0.6918433661151097
481,8310.0,0.6730343919863313
482,8330.0,0.6688814178575527
483,8350.0,0.6696144437287743
484,8370.0,0.6723014695999959
485,8390.0,0.6534914954712173
486,8410.0,0.6696145213424389
487,8430.0,0.6488495472136605
488,8450.0,0.644452573084882
489,8470.0,0.6415205989561035
490,8490.0,0.6444526248273251
491,8510.0,0.6141606506985466
492,8530.0,0.6407876765697681
493,8550.0,0.5777607024409896
494,8570.0,0.6542247283122112
495,8590.0,0.6410327541834326
496,8610.0,0.6420097800546541
497,8630.0,0.6561788059258759
498,8650.0,0.6525138317970973
499,8670.0,0.5797158576683188
500,8690.0,0.6366358835395404
501,8709.6359,0.6541442591747757
502,8710.0,0.6544689102886444
503,8730.0,0.6547129843819205
504,8750.0,0.6344370584751967
505,8770.0,0.6544691325684727
506,8790.0,0.658866206661749
507,8810.0,0.646896280755025
508,8830.0,0.6508043548483012
509,8850.0,0.6459194289415773
510,8870.0,0.6175815030348535
511,8890.0,0.6395675771281295
512,8910.0,0.6459196512214057
513,8930.0,0.6341937253146819
514,8950.0,0.634437799407958
515,8970.0,0.6349258735012341
516,8990.0,0.6337049475945102
517,9010.0,0.6017030216877864
518,9030.0,0.6263760957810625
519,9050.0,0.6459201698743386
520,9070.0,0.6415222439676147
521,9090.0,0.6271093180608909
522,9110.0,0.634682392154167
523,9130.0,0.6439654662474431
524,9150.0,0.6395685403407192
525,9170.0,0.6381026144339954
526,9190.0,0.6420116885272714
527,9210.0,0.6210027626205477
528,9230.0,0.5977948367138237
529,9250.0,0.6085439108070999
530,9270.0,0.614406984900376
531,9290.0,0.6114750589936522
532,9310.0,0.6144071330869283
533,9330.0,0.6129412071802044
534,9350.0,0.6107432812734805
535,9370.0,0.6017043553667567
536,9390.0,0.6083004294600328
537,9410.0,0.5931545035533089
538,9430.0,0.6075675776465851
539,9450.0,0.5982846517398611
540,9470.0,0.6080557258331374
541,9490.0,0.6078117999264134
542,9510.0,0.5990178740196895
543,9530.0,0.5963299481129657
544,9550.0,0.5723900222062418
545,9570.0,0.5897340962995179
546,9590.0,0.6002391703927941
547,9610.0,0.5926662444860702
548,9630.0,0.5926663185793464
549,9650.0,0.5848493926726225
550,9670.0,0.5831394667658986
551,9690.0,0.5899795408591748
552,9710.0,0.5838716149524509
553,9730.0,0.579230689045727
554,9750.0,0.5758107631390031
555,9770.0,0.5770318372322792
556,9790.0,0.5697039113255553
557,9810.0,0.5799639854188315
558,9830.0,0.5750780595121076
559,9850.0,0.5767881336053837
560,9870.0,0.5721472076986599
561,9890.0,0.570681281791936
562,9910.0,0.5677493558852121
563,9930.0,0.5692154299784883
564,9950.0,0.5687265040717644
565,9970.0,0.5682385781650405
566,9990.0,0.5653066522583166
567,10000.0,0.5635969393049547
568,10030.0,0.5584678007388235
569,10070.0,0.5484519493173152
570,10130.0,0.5552921721850528
571,10170.0,0.5484523207635446
572,10220.0,0.5479645064866592
573,10280.0,0.5472317293543968
574,10320.0,0.5384368779328885
575,10380.0,0.5337961008006261
576,10430.0,0.5337962865237408
577,10480.0,0.5257344722468554
578,10520.0,0.5230476208253471
579,10580.0,0.5147418436930847
580,10630.0,0.5098560294161993
581,10680.0,0.5013062151393141
582,10720.0,0.5020393637178058
583,10780.0,0.49690958658554335
584,10820.0,0.4895807351640351
585,10870.0,0.48640492088714976
586,10920.0,0.4790761066102644
587,10980.0,0.476878329478002
588,11020.0,0.47761147805649373
589,11080.0,0.4727257009242313
590,11130.0,0.46906088664734596
591,11170.0,0.4641750352258377
592,11220.0,0.46319822094895235
593,11280.0,0.45538144381668993
594,11330.0,0.45342762953980464
595,11380.0,0.4497628152629193
596,11430.0,0.4441450009860339
597,11470.0,0.44756514956452564
598,11481.5362,0.44704837065530556
599,11530.0,0.4448775382421957
600,11570.0,0.43877082367329295
601,11620.0,0.43168818046216445
602,11670.0,0.4302225372510359
603,11730.0,0.4316889653976817
604,11770.0,0.42240625082877886
605,11830.0,0.41849767897542467
606,11870.0,0.41165796440652186
607,11920.0,0.41703232119539335
608,11980.0,0.40359674934203915
609,12030.0,0.40872710613091057
610,12070.0,0.4040863915620078
611,12120.0,0.4033537483508793
612,12180.0,0.4033541764975251
613,12230.0,0.39968953328639656
614,12270.0,0.3962698187174937
615,12320.0,0.39285017550636525
616,12370.0,0.39089653229523674
617,12430.0,0.3864999604418825
618,12480.0,0.384545317230754
619,12530.0,0.3803926740196255
620,12580.0,0.378195030808497
621,12620.0,0.37550831623959413
622,12670.0,0.37159967302846564
623,12720.0,0.37086702981733716
624,12780.0,0.3689134579639829
625,12830.0,0.3520578147528544
626,12880.0,0.3613411715417259
627,12920.0,0.3576764569728231
628,12980.0,0.35963188511946886
629,13020.0,0.35450117055056607
630,13080.0,0.35474659869721187
631,13130.0,0.3479069554860833
632,13180.0,0.3459523122749548
633,13182.5674,0.3459272727713498
634,13230.0,0.3454648304262685
635,13280.0,0.33911335731170045
636,13320.0,0.339357778820046
637,13380.0,0.33569441108256426
638,13430.0,0.3359389379679961
639,13470.0,0.33251935947634165
640,13520.0,0.33007688636177357
641,13570.0,0.3247034132472054
642,13630.0,0.3229940455097237
643,13670.0,0.3229944670180693
644,13730.0,0.3225060992805876
645,13770.0,0.3210405207889331
646,13820.0,0.32030904767436497
647,13880.0,0.31713367993688324
648,13930.0,0.3088292068223151
649,13970.0,0.3068756283306607
650,14020.0,0.30272315521609255
651,14080.0,0.30418878747861083
652,14120.0,0.3002812089869564
653,14180.0,0.30199184124947465
