,lambda (Angstroms),Total Flux (erg/s/cm^2/Angstrom)
0,1005.0,0.003534243926357599
1,1015.0,0.0035680114884473757
2,1025.0,0.0031571790505371526
3,1035.0,0.0033277466126269296
4,1045.0,0.0037548241747167063
5,1055.0,0.003756831736806483
6,1065.0,0.00366600929889626
7,1075.0,0.004046676860986037
8,1085.0,0.003992494423075813
9,1095.0,0.004290101985165591
10,1096.4782,0.004445314102993703
11,1105.0,0.005339324677151084
12,1115.0,0.005699521224778795
13,1125.0,0.005417237772406506
14,1135.0,0.005662614320034218
15,1145.0,0.0049699208676619285
16,1155.0,0.00430898741528964
17,1165.0,0.0037604239629173506
18,1175.0,0.0027550405105450614
19,1185.0,0.0030004170581727726
20,1195.0,0.0027230136058004834
21,1205.0,0.002468580153428195
22,1215.0,0.002278386701055906
23,1225.0,0.002596813248683617
24,1235.0,0.002751799796311328
25,1245.0,0.002779766343939039
26,1255.0,0.00289323289156675
27,1258.92541,0.003010644474879081
28,1265.0,0.0031932200862081965
29,1275.0,0.004185146356391233
30,1285.0,0.00560945262657427
31,1295.0,0.006811458896757306
32,1305.0,0.007742295166940342
33,1315.0,0.01005337143712338
34,1325.0,0.011721967707306416
35,1335.0,0.012862863977489451
36,1345.0,0.015015160247672488
37,1355.0,0.015120356517855524
38,1365.0,0.01603655278803856
39,1375.0,0.017360649058221597
40,1385.0,0.018005745328404633
41,1395.0,0.01896334159858767
42,1405.0,0.019136837868770705
43,1415.0,0.020172734138953742
44,1425.0,0.02043183040913678
45,1435.0,0.019752826679319813
46,1442.0,0.02183419406844794
47,1445.43977,0.02179556416837669
48,1447.0,0.021778039789612992
49,1455.0,0.02302400442847419
50,1465.0,0.02156818522705069
51,1475.0,0.02228156602562719
52,1485.0,0.02277754682420369
53,1495.0,0.02333952762278019
54,1505.0,0.02424590842135669
55,1512.0,0.02379156498036024
56,1517.0,0.023816005379648487
57,1525.0,0.02387717001850969
58,1535.0,0.02371605081708619
59,1545.0,0.024888731615662688
60,1555.0,0.024717812414239187
61,1565.0,0.023061593212815687
62,1575.0,0.026232574011392187
63,1585.0,0.027576254809968687
64,1595.0,0.029286335608545187
65,1605.0,0.027210016407121687
66,1615.0,0.028187197205698185
67,1625.0,0.026330678004274684
68,1635.0,0.028065258802851184
69,1645.0,0.03133873960142768
70,1655.0,0.025427020400004184
71,1659.58691,0.028654177992084025
72,1665.0,0.032462876864681835
73,1672.0,0.027064589904495433
74,1677.0,0.04196658493293372
75,1685.0,0.04423885697843497
76,1695.0,0.03908494703531154
77,1705.0,0.04103993709218811
78,1715.0,0.04849132714906468
79,1725.0,0.050030917205941244
80,1735.0,0.056236507262817814
81,1745.0,0.054136197319694386
82,1755.0,0.06217388737657096
83,1765.0,0.05044857743344752
84,1775.0,0.05961006749032409
85,1785.0,0.06041675754720066
86,1795.0,0.07368234760407723
87,1805.0,0.06916353766095379
88,1815.0,0.07209562771783036
89,1825.0,0.06794331777470693
90,1835.0,0.0661850078315835
91,1845.0,0.056755897888460076
92,1855.0,0.06687018794533665
93,1865.0,0.07725307800221322
94,1875.0,0.07400456805908978
95,1885.0,0.07620385811596635
96,1895.0,0.08333764817284292
97,1905.0,0.07896553822971948
98,1905.46072,0.07920191477481993
99,1915.0,0.08409483986683793
100,1925.0,0.07859757927695904
101,1935.0,0.05749011868708015
102,1945.0,0.09027315809720127
103,1955.0,0.09281299750732239
104,1967.0,0.10380518479946772
105,1976.0,0.09816130026857672
106,1984.0,0.10180089179667362
107,1995.0,0.10126205514780684
108,2005.0,0.09363979455792797
109,2015.0,0.09481153396804907
110,2025.0,0.0849170733781702
111,2035.0,0.10218701278829131
112,2045.0,0.11139625219841243
113,2055.0,0.10729149160853356
114,2065.0,0.10203873101865467
115,2074.0,0.11874704648776367
116,2078.0,0.1438607422518121
117,2085.0,0.1486722098388969
118,2095.0,0.139559449249018
119,2105.0,0.1287856886591391
120,2115.0,0.13684592806926024
121,2125.0,0.13144716747938134
122,2135.0,0.11441840688950249
123,2145.0,0.13830964629962358
124,2155.0,0.1387238857097447
125,2165.0,0.1255321251198658
126,2175.0,0.12716736452998695
127,2185.0,0.14187360394010806
128,2187.7616199999998,0.14440994186408568
129,2195.0,0.15105883283858434
130,2205.0,0.1428024392512049
131,2215.0,0.12091504566382542
132,2225.0,0.12533665207644595
133,2235.0,0.15516525848906654
134,2245.0,0.14407486490168706
135,2255.0,0.1217964713143076
136,2265.0,0.12033107772692814
137,2275.0,0.13313268413954868
138,2285.0,0.1522122905521692
139,2295.0,0.13440489696478977
140,2305.0,0.1500885033774103
141,2315.0,0.13887610979003084
142,2325.0,0.10516471620265137
143,2335.0,0.10660632261527192
144,2345.0,0.08083462902789246
145,2355.0,0.129009535440513
146,2365.0,0.08652774185313354
147,2375.0,0.10861174826575408
148,2385.0,0.07045465467837463
149,2395.0,0.08662726109099515
150,2405.0,0.08567516750361569
151,2415.0,0.09520307391623624
152,2425.0,0.13727078032885678
153,2435.0,0.1345353867414773
154,2445.0,0.15249099315409784
155,2455.0,0.15517859956671842
156,2465.0,0.14899920597933894
157,2475.0,0.1335598123919595
158,2485.0,0.11741341880458002
159,2495.0,0.11848902521720055
160,2505.0,0.16307263162982108
161,2511.88643,0.10787271755725221
162,2513.0,0.09894652309640116
163,2518.0,0.08167520574757622
164,2525.0,0.08492404145922132
165,2535.0,0.10312350676157145
166,2545.0,0.10986527206392158
167,2555.0,0.1480240373662717
168,2565.0,0.12750280266862185
169,2575.0,0.149684567970972
170,2585.0,0.1420863332733221
171,2595.0,0.13324309857567224
172,2605.0,0.12039286387802237
173,2615.0,0.1093506291803725
174,2625.0,0.14294039448272264
175,2635.0,0.18234515978507276
176,2645.0,0.23711392508742288
177,2655.0,0.275125690389773
178,2665.0,0.2063564556921232
179,2675.0,0.2319092209944733
180,2685.0,0.24507698629682342
181,2695.0,0.20467075159917356
182,2705.0,0.23200651690152369
183,2715.0,0.19052528220387382
184,2725.0,0.18463904750622395
185,2735.0,0.2087978128085741
186,2745.0,0.1310405781109242
187,2755.0,0.15837734341327434
188,2765.0,0.1874471087156245
189,2775.0,0.20723387401797463
190,2785.0,0.14963063932032475
191,2795.0,0.06542340462267489
192,2805.0,0.08122876992502502
193,2815.0,0.19841393522737516
194,2825.0,0.25533370052972526
195,2835.0,0.24898146583207542
196,2845.0,0.22628723113442553
197,2855.0,0.17300799643677567
198,2865.0,0.2621727617391258
199,2875.0,0.28244852704147594
200,2884.0315,0.2707552320242934
201,2885.0,0.26950131460910937
202,2895.0,0.278784309805969
203,2910.0,0.3452303026012586
204,2930.0,0.316404292994978
205,2950.0,0.3061452833886974
206,2970.0,0.32519827378241684
207,2990.0,0.3300842641761363
208,3010.0,0.34229925456985566
209,3030.0,0.3452302449635751
210,3050.0,0.35573523535729445
211,3070.0,0.3669722257510139
212,3090.0,0.3738132161447333
213,3110.0,0.3838282065384527
214,3130.0,0.37332419693217217
215,3150.0,0.37601118732589156
216,3170.0,0.39066917771961096
217,3190.0,0.3535361681133304
218,3210.0,0.38407315850704976
219,3230.0,0.3422991489007692
220,3250.0,0.4077691392944886
221,3270.0,0.44832112968820803
222,3290.0,0.44270212008192744
223,3310.0,0.44148011047564684
224,3311.31121,0.44152816569235426
225,3330.0,0.4422129382499822
226,3350.0,0.43415275461490244
227,3370.0,0.3857825709798227
228,3390.0,0.40874538734474297
229,3410.0,0.4136312037096632
230,3430.0,0.4253570200745835
231,3450.0,0.43708283643950374
232,3470.0,0.44050165280442405
233,3490.0,0.4627324691693443
234,3510.0,0.48056528553426453
235,3530.0,0.45320410189918475
236,3550.0,0.4991309182641051
237,3570.0,0.4158287346290253
238,3590.0,0.4133855509939456
239,3610.0,0.4566233673588659
240,3630.0,0.46908218372378613
241,3640.0,0.4766550919062462
242,3650.0,0.5216050000887064
243,3670.0,0.5189178164536267
244,3690.0,0.4854496328185469
245,3710.0,0.5323534491834672
246,3730.0,0.4568672655483874
247,3750.0,0.5201380819133077
248,3770.0,0.5841418982782279
249,3790.0,0.6300687146431482
250,3801.8939600000003,0.6499719580997342
251,3810.0,0.6635365465159587
252,3830.0,0.4998614011434347
253,3850.0,0.6466792557709106
254,3870.0,0.6764831103983865
255,3890.0,0.5941569650258623
256,3910.0,0.7446398196533383
257,3930.0,0.4605296742808141
258,3950.0,0.6669555289082899
259,3970.0,0.4519793835357659
260,3990.0,0.8267202381632418
261,4010.0,0.9009840927907177
262,4030.0,0.9063589474181936
263,4050.0,0.8841278020456694
264,4070.0,0.8555456566731453
265,4090.0,0.8868145113006212
266,4110.0,0.7991153659280972
267,4130.0,0.896586220555573
268,4150.0,0.9107550751830489
269,4170.0,0.9122209298105247
270,4190.0,0.9036707844380006
271,4210.0,0.9129536390654764
272,4230.0,0.8914554936929525
273,4250.0,0.9149073483204283
274,4270.0,0.8816832029479043
275,4290.0,0.84968105757538
276,4310.0,0.765156912202856
277,4330.0,0.8723997668303318
278,4350.0,0.8201216214578076
279,4365.15832,0.9345448477136424
280,4370.0,0.9710925314069911
281,4390.0,0.9212586145572421
282,4410.0,0.9461746977074932
283,4430.0,0.9779327808577442
284,4450.0,0.9820858640079951
285,4470.0,1.018240947158246
286,4490.0,1.0272810303084972
287,4510.0,1.1164411134587482
288,4530.0,1.020191196608999
289,4550.0,1.0412012797592503
290,4570.0,1.102031362909501
291,4590.0,1.0529314460597523
292,4610.0,1.076871529210003
293,4630.0,1.0526816123602543
294,4650.0,1.065141695510505
295,4670.0,1.091281778660756
296,4690.0,1.069781861811007
297,4710.0,1.038031944961258
298,4730.0,1.0756520281115092
299,4750.0,1.09592211126176
300,4770.0,1.0895721944120114
301,4790.0,1.0842022775622622
302,4810.0,1.074672360712513
303,4830.0,1.0856624438627642
304,4850.0,0.9950355270130151
305,4870.0,0.8841276101632661
306,4890.0,1.041452693313517
307,4910.0,1.048532776463768
308,4930.0,1.031922859614019
309,4950.0,1.07149294276427
310,4970.0,1.0634330259145213
311,4990.0,1.001633109064772
312,5010.0,0.9613231922150232
313,5011.87234,0.9656230288093001
314,5030.0,1.007253290509991
315,5050.0,1.0023633903692017
316,5070.0,1.035833490228412
317,5090.0,0.9918605900876226
318,5110.0,1.0077336899468332
319,5130.0,0.9774477898060437
320,5150.0,0.9495978896652543
321,5170.0,0.9078249895244648
322,5190.0,0.9239490893836754
323,5210.0,0.9608361892428859
324,5230.0,0.9935712891020965
325,5250.0,1.020444388961307
326,5270.0,0.9288354888205176
327,5290.0,1.020934588679728
328,5310.0,1.0578146885389388
329,5330.0,0.9659667883981491
330,5350.0,1.0307048882573595
331,5370.0,1.0245949881165703
332,5390.0,1.0045650879757808
333,5410.0,0.9864871878349913
334,5430.0,0.9996792876942019
335,5450.0,1.0258153875534124
336,5470.0,1.003095487412623
337,5490.0,1.0035855872718336
338,5510.0,0.996503687131044
339,5530.0,1.0126257869902546
340,5550.0,1.021905886849465
341,5570.0,1.0016359867086757
342,5590.0,0.9833130865678862
343,5610.0,1.0089661864270967
344,5630.0,1.0018762862863073
345,5650.0,1.0070063861455179
346,5670.0,0.9838014860047284
347,5690.0,1.0050565858639389
348,5710.0,0.9779386857231495
349,5730.0,1.03607678558236
350,5750.0,1.0030968854415705
351,5754.399369999999,1.004924845642451
352,5770.0,1.011407105798884
353,5790.0,0.9801383601366035
354,5810.0,1.0067676144743227
355,5830.0,1.0245978688120423
356,5850.0,0.9991941231497615
357,5870.0,0.9994383774874809
358,5890.0,0.9241976318252002
359,5910.0,0.9840478861629196
360,5930.0,0.985270140500639
361,5950.0,0.9838043948383584
362,5970.0,0.9928436491760776
363,5990.0,0.9772089035137971
364,6010.0,0.9625521578515164
365,6030.0,0.9776984121892357
366,6050.0,0.9891806665269551
367,6070.0,0.9838059208646746
368,6090.0,0.9544911752023938
369,6110.0,0.9540034295401133
370,6130.0,0.9132076838778326
371,6150.0,0.9293309382155519
372,6170.0,0.9007491925532713
373,6190.0,0.9403234468909907
374,6210.0,0.93372870122871
375,6230.0,0.9095439555664295
376,6250.0,0.8809622099041489
377,6270.0,0.9158964642418681
378,6290.0,0.9239587185795876
379,6310.0,0.9009949729173069
380,6330.0,0.9090572272550262
381,6350.0,0.9085684815927457
382,6370.0,0.902705735930465
383,6390.0,0.9129669902681843
384,6410.0,0.8941562446059038
385,6430.0,0.8995304989436231
386,6450.0,0.8939127532813425
387,6470.0,0.8904930076190618
388,6490.0,0.8721712619567812
389,6510.0,0.8924475162945006
390,6530.0,0.8870737706322199
391,6550.0,0.8506740249699393
392,6570.0,0.7734792793076587
393,6590.0,0.867042533645378
394,6606.93448,0.878419332663229
395,6610.0,0.880478749223568
396,6630.0,0.8758367506871942
397,6650.0,0.8741267521508206
398,6670.0,0.8589807536144469
399,6690.0,0.8719287550780732
400,6710.0,0.8462777565416996
401,6730.0,0.8624007580053259
402,6750.0,0.8487207594689522
403,6770.0,0.8514077609325786
404,6790.0,0.8431017623962049
405,6810.0,0.8423687638598314
406,6830.0,0.8472547653234577
407,6850.0,0.827711766787084
408,6870.0,0.8365057682507103
409,6890.0,0.8435907697143367
410,6910.0,0.837482771177963
411,6930.0,0.8306427726415894
412,6950.0,0.8255127741052157
413,6970.0,0.829909775568842
414,6990.0,0.8242917770324684
415,7010.0,0.8081687784960947
416,7030.0,0.819649779959721
417,7050.0,0.8225817814233475
418,7070.0,0.8067037828869738
419,7090.0,0.7937557843506001
420,7110.0,0.7805637858142265
421,7130.0,0.7690827872778527
422,7150.0,0.7671277887414791
423,7170.0,0.7712807902051054
424,7190.0,0.7529587916687318
425,7210.0,0.7663947931323581
426,7230.0,0.7744567945959844
427,7250.0,0.7754337960596107
428,7270.0,0.775433797523237
429,7290.0,0.7605317989868635
430,7310.0,0.7727468004504898
431,7330.0,0.7727468019141162
432,7350.0,0.7749458033777425
433,7370.0,0.7854498048413688
434,7390.0,0.7698158063049952
435,7410.0,0.7627308077686216
436,7430.0,0.7754338092322478
437,7450.0,0.7756788106958742
438,7470.0,0.7803198121595005
439,7490.0,0.7759228136231269
440,7510.0,0.7805638150867533
441,7530.0,0.7864268165503796
442,7550.0,0.789358818014006
443,7570.0,0.7834958194776322
444,7585.77575,0.7755953250321226
445,7590.0,0.773479842489424
446,7610.0,0.7654179459743101
447,7630.0,0.7585780494591962
448,7650.0,0.7507611529440824
449,7670.0,0.7246222564289685
450,7690.0,0.7397683599138546
451,7710.0,0.7268204633987407
452,7730.0,0.727797566883627
453,7750.0,0.721202670368513
454,7770.0,0.7280427738533991
455,7790.0,0.7309738773382853
456,7810.0,0.7285309808231715
457,7830.0,0.7216910843080576
458,7850.0,0.7143621877929438
459,7870.0,0.7212032912778299
460,7890.0,0.7102093947627159
461,7910.0,0.6957964982476021
462,7930.0,0.6943306017324883
463,7950.0,0.6882247052173744
464,7970.0,0.7058128087022605
465,7990.0,0.7041029121871467
466,8010.0,0.7058130156720328
467,8030.0,0.7060571191569189
468,8050.0,0.7028822226418051
469,8070.0,0.7058133261266912
470,8090.0,0.6962864296115774
471,8110.0,0.6994625330964634
472,8130.0,0.7099666365813497
473,8150.0,0.7116767400662358
474,8170.0,0.7138758435511219
475,8190.0,0.6967749470360082
476,8210.0,0.6904240505208942
477,8230.0,0.6921341540057804
478,8250.0,0.6926222574906665
479,8270.0,0.6982413609755527
480,8290.0,0.6918894644604388
481,8310.0,0.6730805679453249
482,8330.0,0.668927671430211
483,8350.0,0.6696607749150972
484,8370.0,0.6723478783999833
485,8390.0,0.6535379818848694
486,8410.0,0.6696610853697557
487,8430.0,0.6488961888546417
488,8450.0,0.644499292339528
489,8470.0,0.641567395824414
490,8490.0,0.6444994993093002
491,8510.0,0.6142076027941863
492,8530.0,0.6408347062790725
493,8550.0,0.5778078097639585
494,8570.0,0.6542719132488447
495,8590.0,0.6410800167337308
496,8610.0,0.6420571202186169
497,8630.0,0.6562262237035031
498,8650.0,0.6525613271883893
499,8670.0,0.5797634306732754
500,8690.0,0.6366835341581615
501,8709.6359,0.6541919859941047
502,8710.0,0.6545166411545776
503,8730.0,0.6547609375276822
504,8750.0,0.6344852339007867
505,8770.0,0.6545175302738911
506,8790.0,0.6589148266469957
507,8810.0,0.6469451230201003
508,8830.0,0.6508534193932048
509,8850.0,0.6459687157663093
510,8870.0,0.6176310121394138
511,8890.0,0.6396173085125183
512,8910.0,0.6459696048856228
513,8930.0,0.6342439012587273
514,8950.0,0.6344881976318318
515,8970.0,0.6349764940049363
516,8990.0,0.633755790378041
517,9010.0,0.6017540867511455
518,9030.0,0.62642738312425
519,9050.0,0.6459716794973545
520,9070.0,0.641573975870459
521,9090.0,0.6271612722435634
522,9110.0,0.634734568616668
523,9130.0,0.6440178649897724
524,9150.0,0.6396211613628769
525,9170.0,0.6381554577359815
526,9190.0,0.642064754109086
527,9210.0,0.6210560504821906
528,9230.0,0.5978483468552951
529,9250.0,0.6085976432283996
530,9270.0,0.614460939601504
531,9290.0,0.6115292359746086
532,9310.0,0.6144615323477131
533,9330.0,0.6129958287208176
534,9350.0,0.6107981250939221
535,9370.0,0.6017594214670268
536,9390.0,0.6083557178401312
537,9410.0,0.5932100142132357
538,9430.0,0.6076233105863402
539,9450.0,0.5983406069594447
540,9470.0,0.6081119033325493
541,9490.0,0.6078681997056538
542,9510.0,0.5990744960787582
543,9530.0,0.5963867924518628
544,9550.0,0.5724470888249673
545,9570.0,0.5897913851980718
546,9590.0,0.6002966815711763
547,9610.0,0.5927239779442809
548,9630.0,0.5927242743173854
549,9650.0,0.5849075706904898
550,9670.0,0.5831978670635943
551,9690.0,0.5900381634366989
552,9710.0,0.5839304598098034
553,9730.0,0.5792897561829079
554,9750.0,0.5758700525560125
555,9770.0,0.577091348929117
556,9790.0,0.5697636453022215
557,9810.0,0.580023941675326
558,9830.0,0.5751382380484305
559,9850.0,0.5768485344215349
560,9870.0,0.5722078307946395
561,9890.0,0.570742127167744
562,9910.0,0.5678104235408485
563,9930.0,0.5692767199139531
564,9950.0,0.5687880162870577
565,9970.0,0.5683003126601621
566,9990.0,0.5653686090332666
567,10000.0,0.5636590072198189
568,10030.0,0.5585302029552941
569,10070.0,0.548514797269261
570,10130.0,0.5553556887402112
571,10170.0,0.5485162830541782
572,10220.0,0.5480290259466368
573,10280.0,0.5472969174175871
574,10320.0,0.5385025117315541
575,10380.0,0.5338624032025044
576,10430.0,0.533863146094963
577,10480.0,0.5258018889874216
578,10520.0,0.5231154833013886
579,10580.0,0.514810374772339
580,10630.0,0.5099251176647975
581,10680.0,0.5013758605572562
582,10720.0,0.5021094548712232
583,10780.0,0.4969803463421735
584,10820.0,0.4896519406561404
585,10870.0,0.486476683548599
586,10920.0,0.4791484264410576
587,10980.0,0.476951317912008
588,11020.0,0.47768491222597487
589,11080.0,0.47279980369692526
590,11130.0,0.4691355465893839
591,11170.0,0.4642501409033508
592,11220.0,0.4632738837958094
593,11280.0,0.45545777526675973
594,11330.0,0.45350451815921844
595,11380.0,0.449840261051677
596,11430.0,0.44422300394413566
597,11470.0,0.44764359825810257
598,11481.5362,0.4471269479012222
599,11530.0,0.44495715296878297
600,11570.0,0.43885129469317175
601,11620.0,0.4317697218486577
602,11670.0,0.43030514900414363
603,11730.0,0.4317728615907268
604,11770.0,0.4224910033151155
605,11830.0,0.4185837159016986
606,11870.0,0.4117448576260874
607,11920.0,0.41712028478157337
608,11980.0,0.4036859973681565
609,12030.0,0.40881742452364245
610,12070.0,0.40417756624803125
611,12120.0,0.40344599340351717
612,12180.0,0.40344770599010027
613,12230.0,0.39978413314558625
614,12270.0,0.39636527486997497
615,12320.0,0.39294670202546095
616,12370.0,0.3909941291809469
617,12430.0,0.38659884176753007
618,12480.0,0.38464526892301604
619,12530.0,0.3804936960785019
620,12580.0,0.3782971232339879
621,12620.0,0.3756112649583766
622,12670.0,0.37170369211386256
623,12720.0,0.37097211926934853
624,12780.0,0.3690198318559317
625,12830.0,0.35216525901141765
626,12880.0,0.3614496861669036
627,12920.0,0.3577858278912924
628,12980.0,0.35974254047787546
629,13020.0,0.3546126822022642
630,13080.0,0.35485939478884737
631,13130.0,0.3480208219443333
632,13180.0,0.3460672490998193
633,13182.5674,0.34604226455739917
634,13230.0,0.34558132170507416
635,13280.0,0.3392314292468017
636,13320.0,0.3394771152801838
637,13380.0,0.33581564433025696
638,13430.0,0.3360617518719845
639,13470.0,0.33264343790536666
640,13520.0,0.33020254544709426
641,13570.0,0.3248306529888218
642,13630.0,0.32312318203889495
643,13670.0,0.323124868072277
644,13730.0,0.3226383971223502
645,13770.0,0.32117408315573226
646,13820.0,0.3204441906974599
647,13880.0,0.31727071974753296
648,13930.0,0.3089678272892606
649,13970.0,0.3070155133226427
650,14020.0,0.30286462086437027
651,14080.0,0.3043321499144434
652,14120.0,0.3004258359478255
653,14180.0,0.30213836499789865
654,14230.0,0.2977424725396262
