,lambda (Angstroms),Total Flux (erg/s/cm^2/Angstrom)
0,1005.0,0.2735476242243737
1,1015.0,0.27022484147665177
2,1025.0,0.26645745872892995
3,1035.0,0.2632714759812081
4,1045.0,0.2603420032334862
5,1055.0,0.2569874604857643
6,1065.0,0.2535400877380425
7,1075.0,0.25056420499032067
8,1085.0,0.2471534722425988
9,1095.0,0.24409452949487692
10,1096.4782,0.2437535763459087
11,1105.0,0.24230649402187168
12,1115.0,0.23991950934230044
13,1125.0,0.2368900446627292
14,1135.0,0.234388239983158
15,1145.0,0.23094836530358684
16,1155.0,0.22754025062401562
17,1165.0,0.22424450594444437
18,1175.0,0.22049194126487315
19,1185.0,0.21799013658530195
20,1195.0,0.21496555190573075
21,1205.0,0.21196393722615955
22,1215.0,0.2090265625465883
23,1225.0,0.2065978078670171
24,1235.0,0.20400561318744587
25,1245.0,0.20128639850787466
26,1255.0,0.19865268382830348
27,1258.92541,0.19769171414550987
28,1265.0,0.19668398545448051
29,1275.0,0.195716430834005
30,1285.0,0.19518125621352947
31,1295.0,0.19442378159305398
32,1305.0,0.19339513697257849
33,1315.0,0.19374673235210302
34,1325.0,0.19345584773162755
35,1335.0,0.19263726311115204
36,1345.0,0.19283007849067654
37,1355.0,0.19097579387020105
38,1365.0,0.18993250924972557
39,1375.0,0.18929712462925008
40,1385.0,0.18798274000877457
41,1395.0,0.18698085538829912
42,1405.0,0.18519487076782362
43,1415.0,0.18427128614734814
44,1425.0,0.18257090152687264
45,1435.0,0.17993241690639716
46,1442.0,0.18064214767206432
47,1445.43977,0.17992950141366704
48,1447.0,0.17969857589044375
49,1455.0,0.1798503370108001
50,1465.0,0.17702676341124557
51,1475.0,0.17637238981169104
52,1485.0,0.1755006162121365
53,1495.0,0.17469484261258197
54,1505.0,0.17423346901302744
55,1512.0,0.17282169749333928
56,1517.0,0.17216226069356202
57,1525.0,0.17112922181391838
58,1535.0,0.16960034821436384
59,1545.0,0.16940527461480936
60,1555.0,0.16786660101525483
61,1565.0,0.16484262741570027
62,1575.0,0.16664585381614577
63,1585.0,0.16662178021659124
64,1595.0,0.1669641066170367
65,1605.0,0.16352003301748214
66,1615.0,0.16312945941792764
67,1625.0,0.1599051858183731
68,1635.0,0.16027201221881857
69,1645.0,0.16217773861926404
70,1655.0,0.15489826501970952
71,1659.58691,0.15749804597915623
72,1665.0,0.160787907038763
73,1672.0,0.1547186789542026
74,1677.0,0.16914143032237375
75,1685.0,0.17064691251144765
76,1695.0,0.16453451524778998
77,1705.0,0.16553101798413228
78,1715.0,0.17202392072047462
79,1725.0,0.17260502345681694
80,1735.0,0.17785212619315927
81,1745.0,0.1747933289295016
82,1755.0,0.1818725316658439
83,1765.0,0.16918873440218624
84,1775.0,0.17739173713852857
85,1785.0,0.17723993987487088
86,1795.0,0.18954704261121322
87,1805.0,0.18406974534755555
88,1815.0,0.18604334808389789
89,1825.0,0.18093255082024023
90,1835.0,0.17821575355658256
91,1845.0,0.16782815629292486
92,1855.0,0.17698395902926722
93,1865.0,0.18640836176560954
94,1875.0,0.18220136450195185
95,1885.0,0.18344216723829418
96,1895.0,0.1896174699746365
97,1905.0,0.18428687271097882
98,1905.46072,0.18447908982824762
99,1915.0,0.1887031180354789
100,1925.0,0.18250465475023228
101,1935.0,0.16069599146498564
102,1945.0,0.19277782817973904
103,1955.0,0.19461646489449244
104,1967.0,0.20476720895219652
105,1976.0,0.19849224199547455
106,1984.0,0.20157087136727728
107,1995.0,0.20026071175350602
108,2005.0,0.1919372484682594
109,2015.0,0.19240778518301282
110,2025.0,0.1818121218977662
111,2035.0,0.1983808586125196
112,2045.0,0.20688889532727298
113,2055.0,0.20208293204202638
114,2065.0,0.19612896875677976
115,2074.0,0.21220620180005784
116,2078.0,0.23703941648595916
117,2085.0,0.24136004218628657
118,2095.0,0.23154607890103995
119,2105.0,0.22007111561579334
120,2115.0,0.22743015233054675
121,2125.0,0.2213301890453001
122,2135.0,0.20360022576005354
123,2145.0,0.2267902624748069
124,2155.0,0.2265032991895603
125,2165.0,0.2126103359043137
126,2175.0,0.21354437261906709
127,2185.0,0.22754940933382048
128,2187.7616199999998,0.22989210171904
129,2195.0,0.23619679420160694
130,2205.0,0.2274648819319648
131,2215.0,0.2051019696623226
132,2225.0,0.2090480573926804
133,2235.0,0.23840114512303826
134,2245.0,0.22683523285339605
135,2255.0,0.2040813205837539
136,2265.0,0.2021404083141117
137,2275.0,0.21446649604446955
138,2285.0,0.23307058377482734
139,2295.0,0.21478767150518516
140,2305.0,0.22999575923554297
141,2315.0,0.2183078469659008
142,2325.0,0.18412093469625862
143,2335.0,0.18508702242661643
144,2345.0,0.15883981015697424
145,2355.0,0.20653919788733205
146,2365.0,0.16358188561768988
147,2375.0,0.18519037334804772
148,2385.0,0.14655776107840554
149,2395.0,0.16225484880876334
150,2405.0,0.16082723653912115
151,2415.0,0.169879624269479
152,2425.0,0.2114718119998368
153,2435.0,0.20826089973019463
154,2445.0,0.22574098746055243
155,2455.0,0.22795307519091026
156,2465.0,0.22129816292126808
157,2475.0,0.20538325065162588
158,2485.0,0.18876133838198372
159,2495.0,0.18936142611234152
160,2505.0,0.23346951384269932
161,2511.88643,0.17794213715822102
162,2513.0,0.16897656516559983
163,2518.0,0.15152844019906742
164,2525.0,0.15452974524592195
165,2535.0,0.17237559531285707
166,2545.0,0.17876374537979217
167,2555.0,0.21656889544672725
168,2565.0,0.19569404551366237
169,2575.0,0.21752219558059746
170,2585.0,0.20957034564753255
171,2595.0,0.20037349571446766
172,2605.0,0.18716964578140274
173,2615.0,0.17577379584833785
174,2625.0,0.20900994591527294
175,2635.0,0.24806109598220805
176,2645.0,0.30247624604914314
177,2655.0,0.34013439611607826
178,2665.0,0.2710115461830134
179,2675.0,0.29621069624994845
180,2685.0,0.30902484631688354
181,2695.0,0.2682649963838186
182,2705.0,0.29524714645075373
183,2715.0,0.2534122965176888
184,2725.0,0.24717244658462395
185,2735.0,0.27097759665155907
186,2745.0,0.19286674671849413
187,2755.0,0.2198498967854292
188,2765.0,0.24856604685236433
189,2775.0,0.2679991969192994
190,2785.0,0.21004234698623453
191,2795.0,0.12548149705316963
192,2805.0,0.14093324712010474
193,2815.0,0.2577647971870398
194,2825.0,0.3143309472539749
195,2835.0,0.30762509732091003
196,2845.0,0.2845772473878451
197,2855.0,0.2309443974547802
198,2865.0,0.3197555475217153
199,2875.0,0.3396776975886504
200,2884.0315,0.3276650349716028
201,2885.0,0.32638691491050414
202,2895.0,0.33542001185321196
203,2910.0,0.4014911572672737
204,2930.0,0.37216535115268934
205,2950.0,0.361406545038105
206,2970.0,0.3799597389235207
207,2990.0,0.38434593280893636
208,3010.0,0.396061126694352
209,3030.0,0.3984923205797677
210,3050.0,0.4084975144651833
211,3070.0,0.41923470835059895
212,3090.0,0.4255759022360146
213,3110.0,0.43509109612143027
214,3130.0,0.424087290006846
215,3150.0,0.42627448389226164
216,3170.0,0.44043267777767725
217,3190.0,0.4027998716630929
218,3210.0,0.43283706554850854
219,3230.0,0.3905632594339242
220,3250.0,0.4555334533193399
221,3270.0,0.49558564720475556
222,3290.0,0.48946684109017125
223,3310.0,0.48774503497558686
224,3311.31121,0.48776032328331165
225,3330.0,0.48811445595721825
226,3350.0,0.4797004346646751
227,3370.0,0.43097641337213194
228,3390.0,0.45358539207958876
229,3410.0,0.45811737078704556
230,3430.0,0.46948934949450244
231,3450.0,0.48086132820195926
232,3470.0,0.4839263069094161
233,3490.0,0.5058032856168729
234,3510.0,0.5232822643243298
235,3530.0,0.49556724303178656
236,3550.0,0.5411402217392435
237,3570.0,0.45748420044670024
238,3590.0,0.45468717915415713
239,3610.0,0.49757115786161393
240,3630.0,0.5096761365690707
241,3640.0,0.5170721259227992
242,3650.0,0.5618451152765276
243,3670.0,0.5588040939839845
244,3690.0,0.5249820726914413
245,3710.0,0.5715320513988981
246,3730.0,0.49569203010635493
247,3750.0,0.5586090088138118
248,3770.0,0.6222589875212685
249,3790.0,0.6678319662287254
250,3801.8939600000003,0.6875247831380932
251,3810.0,0.700987560016489
252,3830.0,0.537061215444778
253,3850.0,0.683627870873067
254,3870.0,0.713180526301356
255,3890.0,0.630603181729645
256,3910.0,0.7808348371579341
257,3930.0,0.4964734925862231
258,3950.0,0.702648148014512
259,3970.0,0.48742080344280114
260,3990.0,0.8619104588710901
261,4010.0,0.9359231142993791
262,4030.0,0.9410467697276682
263,4050.0,0.9185644251559572
264,4070.0,0.8897310805842462
265,4090.0,0.9207487360125353
266,4110.0,0.8327983914408242
267,4130.0,0.9300180468691133
268,4150.0,0.9439357022974023
269,4170.0,0.9451503577256912
270,4190.0,0.9363490131539803
271,4210.0,0.9453806685822693
272,4230.0,0.9236313240105584
273,4250.0,0.9468319794388473
274,4270.0,0.9133566348671365
275,4290.0,0.8811032902954253
276,4310.0,0.7963279457237145
277,4330.0,0.9033196011520035
278,4350.0,0.8507902565802924
279,4365.15832,0.9650230949438762
280,4370.0,1.0015278869172977
281,4390.0,0.9515167930549117
282,4410.0,0.9762556991925256
283,4430.0,1.0078366053301395
284,4450.0,1.0118125114677534
285,4470.0,1.0477904176053674
286,4490.0,1.0566533237429814
287,4510.0,1.1456362298805953
288,4530.0,1.0492091360182092
289,4550.0,1.0700420421558234
290,4570.0,1.1306949482934372
291,4590.0,1.0814178544310513
292,4610.0,1.105180760568665
293,4630.0,1.080813666706279
294,4650.0,1.093096572843893
295,4670.0,1.119059478981507
296,4690.0,1.097382385119121
297,4710.0,1.0654552912567348
298,4730.0,1.1028981973943488
299,4750.0,1.1229911035319629
300,4770.0,1.1164640096695768
301,4790.0,1.1109169158071908
302,4810.0,1.1012098219448045
303,4830.0,1.1120227280824186
304,4850.0,1.0212186342200327
305,4870.0,0.9101335403576465
306,4890.0,1.0672814464952605
307,4910.0,1.0741843526328743
308,4930.0,1.0573972587704883
309,4950.0,1.0967901649081022
310,4970.0,1.0885530710457163
311,4990.0,1.0265759771833303
312,5010.0,0.9860888833209441
313,5011.87234,0.990372133134829
314,5030.0,1.0318888424548986
315,5050.0,1.026873661521529
316,5070.0,1.0602184805881594
317,5090.0,1.0161202996547896
318,5110.0,1.0318681187214198
319,5130.0,1.0014569377880502
320,5150.0,0.9734817568546805
321,5170.0,0.9315835759213107
322,5190.0,0.9475823949879411
323,5210.0,0.9843442140545714
324,5230.0,1.0169540331212017
325,5250.0,1.0437018521878318
326,5270.0,0.9519676712544622
327,5290.0,1.0439414903210926
328,5310.0,1.0806963093877229
329,5330.0,0.9887231284543531
330,5350.0,1.0533359475209834
331,5370.0,1.0471007665876138
332,5390.0,1.026945585654244
333,5410.0,1.0087424047208744
334,5430.0,1.0218092237875047
335,5450.0,1.0478200428541349
336,5470.0,1.0249748619207653
337,5490.0,1.0253396809873956
338,5510.0,1.0181325000540258
339,5530.0,1.0341293191206562
340,5550.0,1.0432841381872864
341,5570.0,1.0228889572539166
342,5590.0,1.004440776320547
343,5610.0,1.0299685953871773
344,5630.0,1.0227534144538075
345,5650.0,1.0277582335204378
346,5670.0,1.0044280525870681
347,5690.0,1.0255578716536984
348,5710.0,0.9983146907203287
349,5730.0,1.056327509786959
350,5750.0,1.0232223288535893
351,5754.399369999999,1.025022731226447
352,5770.0,1.0314355240108746
353,5790.0,1.0000777212117915
354,5810.0,1.0266179184127087
355,5830.0,1.0443591156136256
356,5850.0,1.0188663128145425
357,5870.0,1.0190215100154596
358,5890.0,0.9436917072163765
359,5910.0,1.0034529044172935
360,5930.0,1.0045861016182105
361,5950.0,1.0030312988191277
362,5970.0,1.0119814960200446
363,5990.0,0.9962576932209616
364,6010.0,0.9815118904218786
365,6030.0,0.9965690876227956
366,6050.0,1.0079622848237126
367,6070.0,1.0024984820246297
368,6090.0,0.9730946792255466
369,6110.0,0.9725178764264637
370,6130.0,0.9316330736273807
371,6150.0,0.9476672708282977
372,6170.0,0.9189964680292148
373,6190.0,0.9584816652301317
374,6210.0,0.9517978624310487
375,6230.0,0.9275240596319658
376,6250.0,0.8988532568328829
377,6270.0,0.9336984540337998
378,6290.0,0.9416716512347169
379,6310.0,0.9186188484356338
380,6330.0,0.9265920456365508
381,6350.0,0.9260142428374679
382,6370.0,0.9200624400383849
383,6390.0,0.9302346372393019
384,6410.0,0.9113348344402189
385,6430.0,0.9166200316411359
386,6450.0,0.910913228842053
387,6470.0,0.90740442604297
388,6490.0,0.888993623243887
389,6510.0,0.909180820444804
390,6530.0,0.903718017645721
391,6550.0,0.867229214846638
392,6570.0,0.7899454120475551
393,6590.0,0.8834196092484721
394,6606.93448,0.8947210014512212
395,6610.0,0.8967709312855126
396,6630.0,0.8920670396540196
397,6650.0,0.8902951480225266
398,6670.0,0.8750872563910337
399,6690.0,0.8879733647595407
400,6710.0,0.8622604731280478
401,6730.0,0.8783215814965548
402,6750.0,0.8645796898650618
403,6770.0,0.867204798233569
404,6790.0,0.858836906602076
405,6810.0,0.8580420149705831
406,6830.0,0.8628661233390901
407,6850.0,0.8432612317075971
408,6870.0,0.8519933400761042
409,6890.0,0.8590164484446112
410,6910.0,0.8528465568131183
411,6930.0,0.8459446651816254
412,6950.0,0.8407527735501324
413,6970.0,0.8450878819186395
414,6990.0,0.8394079902871465
415,7010.0,0.8232230986556536
416,7030.0,0.8346422070241606
417,7050.0,0.8375123153926677
418,7070.0,0.8215724237611747
419,7090.0,0.8085625321296818
420,7110.0,0.7953086404981888
421,7130.0,0.7837657488666958
422,7150.0,0.7817488572352029
423,7170.0,0.78583996560371
424,7190.0,0.767456073972217
425,7210.0,0.7808301823407241
426,7230.0,0.788830290709231
427,7250.0,0.7897453990777381
428,7270.0,0.7896835074462452
429,7290.0,0.7747196158147522
430,7310.0,0.7868727241832593
431,7330.0,0.7868108325517662
432,7350.0,0.7889479409202733
433,7370.0,0.7993900492887803
434,7390.0,0.7836941576572874
435,7410.0,0.7765472660257945
436,7430.0,0.7891883743943015
437,7450.0,0.7893714827628086
438,7470.0,0.7939505911313156
439,7490.0,0.7894916994998227
440,7510.0,0.7940708078683297
441,7530.0,0.7998719162368367
442,7550.0,0.8027420246053438
443,7570.0,0.7968171329738508
444,7585.77575,0.7888678180285748
445,7590.0,0.786743247682243
446,7610.0,0.7786383243404346
447,7630.0,0.771755400998626
448,7650.0,0.7638954776568176
449,7670.0,0.7377135543150092
450,7690.0,0.7528166309732007
451,7710.0,0.7398257076313923
452,7730.0,0.7407597842895839
453,7750.0,0.7341218609477754
454,7770.0,0.7409189376059669
455,7790.0,0.7438070142641585
456,7810.0,0.7413210909223502
457,7830.0,0.7344381675805418
458,7850.0,0.7270662442387333
459,7870.0,0.7338643208969249
460,7890.0,0.7228273975551164
461,7910.0,0.708371474213308
462,7930.0,0.7068625508714995
463,7950.0,0.7007136275296911
464,7970.0,0.7182587041878826
465,7990.0,0.7165057808460742
466,8010.0,0.7181728575042657
467,8030.0,0.7183739341624573
468,8050.0,0.715156010820649
469,8070.0,0.7180440874788405
470,8090.0,0.7084741641370321
471,8110.0,0.7116072407952236
472,8130.0,0.7220683174534153
473,8150.0,0.7237353941116068
474,8170.0,0.7258914707697983
475,8190.0,0.70874754742799
476,8210.0,0.7023536240861814
477,8230.0,0.7040207007443731
478,8250.0,0.7044657774025647
479,8270.0,0.7100418540607563
480,8290.0,0.7036469307189478
481,8310.0,0.6847950073771394
482,8330.0,0.6805990840353309
483,8350.0,0.6812891606935225
484,8370.0,0.6839332373517141
485,8390.0,0.6650803140099055
486,8410.0,0.6811603906680972
487,8430.0,0.6603524673262887
488,8450.0,0.6559125439844803
489,8470.0,0.6529376206426718
490,8490.0,0.6558266973008635
491,8510.0,0.6254917739590551
492,8530.0,0.6520758506172466
493,8550.0,0.5890059272754381
494,8570.0,0.6654270039336297
495,8590.0,0.6521920805918212
496,8610.0,0.6531261572500128
497,8630.0,0.6672522339082044
498,8650.0,0.663544310566396
499,8670.0,0.5907033872245875
500,8690.0,0.6475804638827791
501,8709.6359,0.6650466721954077
502,8710.0,0.6653708079014841
503,8730.0,0.6655865706631346
504,8750.0,0.6452823334247851
505,8770.0,0.6652860961864356
506,8790.0,0.6696548589480862
507,8810.0,0.6576566217097366
508,8830.0,0.6615363844713872
509,8850.0,0.6566231472330376
510,8870.0,0.6282569099946882
511,8890.0,0.6502146727563386
512,8910.0,0.6565384355179892
513,8930.0,0.6447841982796396
514,8950.0,0.6449999610412901
515,8970.0,0.6454597238029406
516,8990.0,0.6442104865645911
517,9010.0,0.6121802493262417
518,9030.0,0.6368250120878921
519,9050.0,0.6563407748495427
520,9070.0,0.6519145376111931
521,9090.0,0.6374733003728436
522,9110.0,0.6450180631344942
523,9130.0,0.6542728258961445
524,9150.0,0.6498475886577951
525,9170.0,0.6483533514194456
526,9190.0,0.6522341141810961
527,9210.0,0.6311968769427466
528,9230.0,0.6079606397043971
529,9250.0,0.6186814024660476
530,9270.0,0.624516165227698
531,9290.0,0.6215559279893487
532,9310.0,0.624459690750999
533,9330.0,0.6229654535126496
534,9350.0,0.6207392162743001
535,9370.0,0.6116719790359506
536,9390.0,0.6182397417976011
537,9410.0,0.6030655045592516
538,9430.0,0.6174502673209021
539,9450.0,0.6081390300825525
540,9470.0,0.6178817928442031
541,9490.0,0.6176095556058536
542,9510.0,0.608787318367504
543,9530.0,0.6060710811291546
544,9550.0,0.582102843890805
545,9570.0,0.5994186066524556
546,9590.0,0.609895369414106
547,9610.0,0.6022941321757566
548,9630.0,0.6022658949374071
549,9650.0,0.5944206576990575
550,9670.0,0.5926824204607081
551,9690.0,0.5994941832223586
552,9710.0,0.5933579459840091
553,9730.0,0.5886887087456596
554,9750.0,0.5852404715073101
555,9770.0,0.5864332342689605
556,9790.0,0.579076997030611
557,9810.0,0.5893087597922616
558,9830.0,0.584394522553912
559,9850.0,0.5860762853155626
560,9870.0,0.5814070480772131
561,9890.0,0.5799128108388635
562,9910.0,0.5769525736005141
563,9930.0,0.5783903363621645
564,9950.0,0.5778730991238151
565,9970.0,0.5773568618854655
566,9990.0,0.574396624647116
567,10000.0,0.5726727560279413
568,10030.0,0.5675175766728667
569,10070.0,0.557467004199434
570,10130.0,0.5642551454892848
571,10170.0,0.5573805730158521
572,10220.0,0.556849357424061
573,10280.0,0.556064498713912
574,10320.0,0.5472349262404791
575,10380.0,0.54254206753033
576,10430.0,0.5424988519385391
577,10480.0,0.5343936363467481
578,10520.0,0.5316720638733153
579,10580.0,0.5233142051631662
580,10630.0,0.5183849895713752
581,10680.0,0.5097917739795843
582,10720.0,0.5104902015061515
583,10780.0,0.5053083427960023
584,10820.0,0.4979447703225696
585,10870.0,0.4947255547307786
586,10920.0,0.48735333913898765
587,10980.0,0.48510348042883855
588,11020.0,0.48580190795540573
589,11080.0,0.4808640492452566
590,11130.0,0.47715583365346564
591,11170.0,0.4722352611800329
592,11220.0,0.47121504558824195
593,11280.0,0.46334618687809276
594,11330.0,0.46134897128630187
595,11380.0,0.45764075569451085
596,11430.0,0.4519795401027199
597,11470.0,0.45536496762928713
598,11481.5362,0.4548381749950868
599,11530.0,0.45264516151815465
600,11570.0,0.4465201396239309
601,11620.0,0.43941461225615114
602,11670.0,0.43792608488837137
603,11730.0,0.4393650520470357
604,11770.0,0.43006403015281186
605,11830.0,0.42612799731147616
606,11870.0,0.4192699754172524
607,11920.0,0.42462144804947266
608,11980.0,0.41115841520813695
609,12030.0,0.4162658878403572
610,12070.0,0.41160686594613344
611,12120.0,0.41085133857835365
612,12180.0,0.41082430573701795
613,12230.0,0.40713677836923823
614,12270.0,0.4036987564750144
615,12320.0,0.4002562291072347
616,12370.0,0.3982797017394549
617,12430.0,0.39385566889811924
618,12480.0,0.3918781415303395
619,12530.0,0.38770261416255974
620,12580.0,0.38548208679478
621,12620.0,0.38277706490055613
622,12670.0,0.3788455375327764
623,12720.0,0.37809001016499666
624,12780.0,0.376108977323661
625,12830.0,0.35923044995588127
626,12880.0,0.36849092258810145
627,12920.0,0.3648079006938777
628,12980.0,0.366735867852542
629,13020.0,0.3615868459583182
630,13080.0,0.3618048131169825
631,13130.0,0.3549422857492027
632,13180.0,0.352964758381423
633,13182.5674,0.3529385438221423
634,13230.0,0.3524682703243272
635,13280.0,0.34610854217763587
636,13320.0,0.34634635966028277
637,13380.0,0.34267308588425316
638,13430.0,0.34290935773756176
639,13470.0,0.3394831752202087
640,13520.0,0.33703244707351737
641,13570.0,0.331650718926826
642,13630.0,0.32993144515079637
643,13670.0,0.3299252626334433
644,13730.0,0.3294269888574137
645,13770.0,0.32795480634006063
646,13820.0,0.32721507819336926
647,13880.0,0.32402980441733964
648,13930.0,0.31571707627064827
649,13970.0,0.31375689375329524
650,14020.0,0.30959616560660386
651,14080.0,0.31105189183057425
652,14120.0,0.3071377093132212
653,14180.0,0.30883843553719154
654,14230.0,0.3044327073905002
655,14280.0,0.30027297924380886
656,14330.0,0.3039292510971175
