,lambda (Angstroms),Total Flux (erg/s/cm^2/Angstrom)
0,1005.0,1.6239533953462422
1,1015.0,1.6038456988599108
2,1025.0,1.5832934023735799
3,1035.0,1.5633225058872489
4,1045.0,1.5436081194009175
5,1055.0,1.5234686629145864
6,1065.0,1.503236376428255
7,1075.0,1.483475579941924
8,1085.0,1.4632799334555928
9,1095.0,1.4434360769692616
10,1096.4782,1.4406139778714522
11,1105.0,1.4274556641312304
12,1115.0,1.4113260060538029
13,1125.0,1.3945538679763754
14,1135.0,1.3783093898989482
15,1145.0,1.3611268418215212
16,1155.0,1.343976053744094
17,1165.0,1.3269376356666664
18,1175.0,1.309442397589239
19,1185.0,1.2931979195118117
20,1195.0,1.2764306614343843
21,1205.0,1.2596863733569577
22,1215.0,1.24300632527953
23,1225.0,1.2268348972021026
24,1235.0,1.2105000291246755
25,1245.0,1.194038141047248
26,1255.0,1.177661752969821
27,1258.92541,1.1713062205287594
28,1265.0,1.164347262726883
29,1275.0,1.1535827850040299
30,1285.0,1.1432506872811772
31,1295.0,1.1326962895583241
32,1305.0,1.1218707218354709
33,1315.0,1.1124253941126183
34,1325.0,1.1023375863897653
35,1335.0,1.0917220786669124
36,1345.0,1.0821179709440594
37,1355.0,1.0704667632212064
38,1365.0,1.0596265554983533
39,1375.0,1.0491942477755007
40,1385.0,1.0380829400526477
41,1395.0,1.0272841323297948
42,1405.0,1.015701224606942
43,1415.0,1.004980716884089
44,1425.0,0.9934834091612359
45,1435.0,0.981048001438383
46,1442.0,0.974899886032386
47,1445.43977,0.9708173235560023
48,1447.0,0.9695194553426625
49,1455.0,0.9642005220648007
50,1465.0,0.9545385804674734
51,1475.0,0.9470458388701464
52,1485.0,0.9393356972728192
53,1495.0,0.931691555675492
54,1505.0,0.9243918140781647
55,1512.0,0.9181931849600358
56,1517.0,0.9141145641613722
57,1525.0,0.9076108308835105
58,1535.0,0.8992435892861832
59,1545.0,0.8922101476888562
60,1555.0,0.883833106091529
61,1565.0,0.8739707644942016
62,1575.0,0.8689356228968746
63,1585.0,0.8620731812995475
64,1595.0,0.8555771397022203
65,1605.0,0.845294698104893
66,1615.0,0.8380657565075659
67,1625.0,0.8280031149102387
68,1635.0,0.8215315733129115
69,1645.0,0.8165989317155843
70,1655.0,0.8024810901182572
71,1659.58691,0.8019441732224375
72,1665.0,0.802641442232578
73,1672.0,0.7932195737252157
74,1677.0,0.8052475819342426
75,1685.0,0.8029214750686858
76,1695.0,0.7920195914867398
77,1705.0,0.7882266079047938
78,1715.0,0.7899300243228478
79,1725.0,0.7857216407409018
80,1735.0,0.7861792571589556
81,1745.0,0.7783309735770095
82,1755.0,0.7806206899950636
83,1765.0,0.7631474064131176
84,1775.0,0.7665609228311716
85,1785.0,0.7616196392492254
86,1795.0,0.7691372556672793
87,1805.0,0.7588704720853335
88,1815.0,0.7560545885033875
89,1825.0,0.7461543049214414
90,1835.0,0.7386480213394955
91,1845.0,0.7234709377575492
92,1855.0,0.7278372541756032
93,1865.0,0.7324721705936572
94,1875.0,0.7234756870117113
95,1885.0,0.7199270034297652
96,1895.0,0.721312819847819
97,1905.0,0.711192736265873
98,1905.46072,0.7111642921694856
99,1915.0,0.7120402082128734
100,1925.0,0.7023319285013937
101,1935.0,0.677013448789914
102,1945.0,0.7055854690784344
103,1955.0,0.7039142893669548
104,1967.0,0.7098532537131792
105,1976.0,0.7004194519728475
106,1984.0,0.7006902282036638
107,1995.0,0.6955192705210362
108,2005.0,0.6836859908095565
109,2015.0,0.6806467110980768
110,2025.0,0.6665412313865973
111,2035.0,0.6796001516751177
112,2045.0,0.6845983719636379
113,2055.0,0.6762825922521584
114,2065.0,0.6668188125406787
115,2074.0,0.679737210800347
116,2078.0,0.7031664989157551
117,2085.0,0.7050302531177194
118,2095.0,0.6917064734062398
119,2105.0,0.6767216936947601
120,2115.0,0.6805709139832805
121,2125.0,0.6709611342718008
122,2135.0,0.6497213545603212
123,2145.0,0.6694015748488416
124,2155.0,0.6656047951373619
125,2165.0,0.6482020154258823
126,2175.0,0.6456262357144027
127,2185.0,0.6561214560029229
128,2187.7616199999998,0.6574948704642412
129,2195.0,0.6620807652096419
130,2205.0,0.6509742915917887
131,2215.0,0.6262368179739356
132,2225.0,0.6278083443560825
133,2235.0,0.6547868707382295
134,2245.0,0.6408463971203764
135,2255.0,0.6157179235025233
136,2265.0,0.6114024498846702
137,2275.0,0.6213539762668172
138,2285.0,0.637583502648964
139,2295.0,0.6169260290311109
140,2305.0,0.6297595554132578
141,2315.0,0.6156970817954048
142,2325.0,0.5791356081775517
143,2335.0,0.5777271345596986
144,2345.0,0.5491053609418456
145,2355.0,0.5944301873239924
146,2365.0,0.5490983137061393
147,2375.0,0.5683322400882863
148,2385.0,0.5273250664704332
149,2395.0,0.54064759285258
150,2405.0,0.536845419234727
151,2415.0,0.543523245616874
152,2425.0,0.5827408719990208
153,2435.0,0.5771553983811677
154,2445.0,0.5922609247633146
155,2455.0,0.5920984511454616
156,2465.0,0.5830689775276084
157,2475.0,0.5647795039097554
158,2485.0,0.5457830302919023
159,2495.0,0.5440085566740492
160,2505.0,0.5857420830561961
161,2511.88643,0.5285794813212019
162,2513.0,0.5194168909935991
163,2518.0,0.5010841411944045
164,2525.0,0.5028469714755317
165,2535.0,0.5189235718771424
166,2545.0,0.523542472278753
167,2555.0,0.5595783726803636
168,2565.0,0.5369342730819742
169,2575.0,0.5569931734835848
170,2585.0,0.5472720738851953
171,2595.0,0.5363059742868059
172,2605.0,0.5213328746884165
173,2615.0,0.5081677750900271
174,2625.0,0.5396346754916378
175,2635.0,0.5769165758932484
176,2645.0,0.6295624762948588
177,2655.0,0.6654513766964696
178,2665.0,0.5945592770980801
179,2675.0,0.6179891774996907
180,2685.0,0.6290340779013013
181,2695.0,0.5865049783029119
182,2705.0,0.6117178787045225
183,2715.0,0.568113779106133
184,2725.0,0.5601046795077437
185,2735.0,0.5821405799093542
186,2745.0,0.5022604803109648
187,2755.0,0.5274743807125755
188,2765.0,0.5544212811141861
189,2775.0,0.5720851815157966
190,2785.0,0.5123590819174072
191,2795.0,0.4260289823190178
192,2805.0,0.43971148272062843
193,2815.0,0.554773783122239
194,2825.0,0.6095706835238496
195,2835.0,0.6010955839254601
196,2845.0,0.5762784843270707
197,2855.0,0.5208763847286814
198,2865.0,0.607918285130292
199,2875.0,0.6260711855319026
200,2884.0315,0.6124606250796172
201,2885.0,0.6110614894630247
202,2895.0,0.6188450711192717
203,2910.0,0.6830419436036421
204,2930.0,0.6512171069161361
205,2950.0,0.6379592702286301
206,2970.0,0.654013433541124
207,2990.0,0.655900596853618
208,3010.0,0.6651167601661119
209,3030.0,0.6650489234786059
210,3050.0,0.6725550867910999
211,3070.0,0.6807932501035938
212,3090.0,0.6846354134160877
213,3110.0,0.6916515767285816
214,3130.0,0.6781487400410756
215,3150.0,0.6778369033535696
216,3170.0,0.6894960666660636
217,3190.0,0.6493642299785575
218,3210.0,0.6769023932910514
219,3230.0,0.6321295566035454
220,3250.0,0.6946007199160393
221,3270.0,0.7321538832285333
222,3290.0,0.7235360465410272
223,3310.0,0.7193152098535213
224,3311.31121,0.71916666046737
225,3330.0,0.7178667357433097
226,3350.0,0.7076826079880507
227,3370.0,0.6571884802327916
228,3390.0,0.6780273524775327
229,3410.0,0.6807892247222735
230,3430.0,0.6903910969670146
231,3450.0,0.6999929692117556
232,3470.0,0.7012878414564966
233,3490.0,0.7213947137012375
234,3510.0,0.7371035859459786
235,3530.0,0.7076184581907196
236,3550.0,0.7514213304354607
237,3570.0,0.6659952026802016
238,3590.0,0.6614280749249426
239,3610.0,0.7025419471696835
240,3630.0,0.7128768194144246
241,3640.0,0.719387755536795
242,3650.0,0.7632756916591655
243,3670.0,0.7584645639039065
244,3690.0,0.7228724361486475
245,3710.0,0.7676523083933885
246,3730.0,0.6900421806381295
247,3750.0,0.7511890528828705
248,3770.0,0.8130689251276115
249,3790.0,0.8568717973723525
250,3801.8939600000003,0.875511935508556
251,3810.0,0.8884653600989338
252,3830.0,0.723282292668668
253,3850.0,0.868592225238402
254,3870.0,0.8968881578081361
255,3890.0,0.8130540903778702
256,3910.0,0.9620290229476045
257,3930.0,0.6764109555173385
258,3950.0,0.8813288880870725
259,3970.0,0.6648448206568067
260,3990.0,1.0380777532265408
261,4010.0,1.1108336857962748
262,4030.0,1.114700618366009
263,4050.0,1.090961550935743
264,4070.0,1.0608714835054773
265,4090.0,1.0906324160752114
266,4110.0,1.0014253486449456
267,4130.0,1.0973882812146796
268,4150.0,1.1100492137844138
269,4170.0,1.1100071463541479
270,4190.0,1.099949078923882
271,4210.0,1.107724011493616
272,4230.0,1.0847179440633503
273,4250.0,1.1066618766330842
274,4270.0,1.0719298092028184
275,4290.0,1.0384197417725525
276,4310.0,0.9523876743422867
277,4330.0,1.0581226069120206
278,4350.0,1.0043365394817547
279,4365.15832,1.1176168874832741
280,4370.0,1.1539073215037863
281,4390.0,1.10301075832947
282,4410.0,1.1268641951551537
283,4430.0,1.1575596319808374
284,4450.0,1.160650068806521
285,4470.0,1.1957425056322049
286,4490.0,1.2037199424578884
287,4510.0,1.2918173792835723
288,4530.0,1.1945048161092557
289,4550.0,1.2144522529349397
290,4570.0,1.2742196897606233
291,4590.0,1.2240571265863072
292,4610.0,1.2469345634119908
293,4630.0,1.2216820002376745
294,4650.0,1.2330794370633582
295,4670.0,1.2581568738890418
296,4690.0,1.2355943107147256
297,4710.0,1.2027817475404092
298,4730.0,1.239339184366093
299,4750.0,1.2585466211917766
300,4770.0,1.2511340580174606
301,4790.0,1.2447014948431443
302,4810.0,1.2341089316688278
303,4830.0,1.2440363684945117
304,4850.0,1.1523468053201953
305,4870.0,1.040376242145879
306,4890.0,1.1966386789715626
307,4910.0,1.2026561157972464
308,4930.0,1.18498355262293
309,4950.0,1.223490989448614
310,4970.0,1.2143684262742975
311,4990.0,1.1515058630999813
312,5010.0,1.110133299925665
313,5011.87234,1.1143336547589748
314,5030.0,1.1552830547293924
315,5050.0,1.1496419691291742
316,5070.0,1.1823608835289559
317,5090.0,1.1376367979287376
318,5110.0,1.1527587123285195
319,5130.0,1.1217216267283012
320,5150.0,1.0931205411280829
321,5170.0,1.0505964555278646
322,5190.0,1.0659693699276465
323,5210.0,1.1021052843274282
324,5230.0,1.1340891987272101
325,5250.0,1.1602111131269917
326,5270.0,1.0678510275267736
327,5290.0,1.1591989419265554
328,5310.0,1.1953278563263372
329,5330.0,1.1027287707261189
330,5350.0,1.1667156851259004
331,5370.0,1.1598545995256824
332,5390.0,1.1390735139254642
333,5410.0,1.120244428325246
334,5430.0,1.1326853427250276
335,5450.0,1.1580702571248094
336,5470.0,1.134599171524591
337,5490.0,1.134338085924373
338,5510.0,1.1265050003241546
339,5530.0,1.1418759147239366
340,5550.0,1.150404829123718
341,5570.0,1.1293837435235
342,5590.0,1.1103096579232816
343,5610.0,1.1352115723230636
344,5630.0,1.1273704867228453
345,5650.0,1.131749401122627
346,5670.0,1.107793315522409
347,5690.0,1.1282972299221905
348,5710.0,1.1004281443219723
349,5730.0,1.157815058721754
350,5750.0,1.1240839731215357
351,5754.399369999999,1.125746696183684
352,5770.0,1.1318131440652468
353,5790.0,1.100011327270749
354,5810.0,1.126107510476251
355,5830.0,1.1434046936817532
356,5850.0,1.1174678768872552
357,5870.0,1.1171790600927571
358,5890.0,1.0414052432982592
359,5910.0,1.1007224265037614
360,5930.0,1.1014116097092634
361,5950.0,1.0994127929147657
362,5970.0,1.1079189761202677
363,5990.0,1.0917511593257698
364,6010.0,1.076561342531272
365,6030.0,1.0911745257367738
366,6050.0,1.102123708942276
367,6070.0,1.096215892147778
368,6090.0,1.06636807535328
369,6110.0,1.0653472585587822
370,6130.0,1.0240184417642844
371,6150.0,1.0396086249697865
372,6170.0,1.0104938081752886
373,6190.0,1.0495349913807905
374,6210.0,1.0424071745862926
375,6230.0,1.0176893577917947
376,6250.0,0.9885745409972969
377,6270.0,1.0229757242027988
378,6290.0,1.030504907408301
379,6310.0,1.007008090613803
380,6330.0,1.0145372738193053
381,6350.0,1.0135154570248073
382,6370.0,1.0071196402303093
383,6390.0,1.0168478234358114
384,6410.0,0.9975040066413136
385,6430.0,1.0023451898468156
386,6450.0,0.9961943730523176
387,6470.0,0.9922415562578197
388,6490.0,0.9733867394633218
389,6510.0,0.9931299226688239
390,6530.0,0.987223105874326
391,6550.0,0.950290289079828
392,6570.0,0.8725624722853302
393,6590.0,0.9655926554908323
394,6606.93448,0.9765180903873277
395,6610.0,0.9785205877130755
396,6630.0,0.9735072379241178
397,6650.0,0.9714258881351601
398,6670.0,0.9559085383462024
399,6690.0,0.9684851885572446
400,6710.0,0.942462838768287
401,6730.0,0.9582144889793291
402,6750.0,0.9441631391903714
403,6770.0,0.9464787894014138
404,6790.0,0.9378014396124561
405,6810.0,0.9366970898234984
406,6830.0,0.9412117400345407
407,6850.0,0.921297390245583
408,6870.0,0.9297200404566252
409,6890.0,0.9364336906676675
410,6910.0,0.9299543408787098
411,6930.0,0.9227429910897521
412,6950.0,0.9172416413007944
413,6970.0,0.9212672915118367
414,6990.0,0.9152779417228789
415,7010.0,0.8987835919339212
416,7030.0,0.9098932421449635
417,7050.0,0.9124538923560058
418,7070.0,0.8962045425670481
419,7090.0,0.8828851927780904
420,7110.0,0.8693218429891327
421,7130.0,0.857469493200175
422,7150.0,0.8551431434112173
423,7170.0,0.8589247936222595
424,7190.0,0.8402314438333018
425,7210.0,0.8532960940443441
426,7230.0,0.8609867442553863
427,7250.0,0.8615923944664287
428,7270.0,0.861221044677471
429,7290.0,0.8459476948885132
430,7310.0,0.8577913450995555
431,7330.0,0.8574199953105978
432,7350.0,0.8592476455216401
433,7370.0,0.8693802957326824
434,7390.0,0.8533749459437248
435,7410.0,0.845918596154767
436,7430.0,0.8582502463658092
437,7450.0,0.8581238965768515
438,7470.0,0.8623935467878938
439,7490.0,0.8576251969989361
440,7510.0,0.8618948472099784
441,7530.0,0.8673864974210207
442,7550.0,0.869947147632063
443,7570.0,0.8637127978431052
444,7585.77575,0.8555193861714478
445,7590.0,0.8533494860934575
446,7610.0,0.845029946042607
447,7630.0,0.8379324059917562
448,7650.0,0.8298578659409057
449,7670.0,0.803461325890055
450,7690.0,0.8183497858392045
451,7710.0,0.805144245788354
452,7730.0,0.8058637057375033
453,7750.0,0.7990111656866528
454,7770.0,0.8055936256358021
455,7790.0,0.8082670855849515
456,7810.0,0.8055665455341009
457,7830.0,0.7984690054832504
458,7850.0,0.7908824654323997
459,7870.0,0.7974659253815491
460,7890.0,0.7862143853306984
461,7910.0,0.771543845279848
462,7930.0,0.7698203052289972
463,7950.0,0.7634567651781468
464,7970.0,0.780787225127296
465,7990.0,0.7788196850764455
466,8010.0,0.7802721450255949
467,8030.0,0.7802586049747443
468,8050.0,0.7768260649238937
469,8070.0,0.7794995248730431
470,8090.0,0.7697149848221926
471,8110.0,0.7726334447713419
472,8130.0,0.7828799047204914
473,8150.0,0.7843323646696407
474,8170.0,0.7862738246187901
475,8190.0,0.7689152845679397
476,8210.0,0.7623067445170889
477,8230.0,0.7637592044662385
478,8250.0,0.7639896644153877
479,8270.0,0.7693511243645372
480,8290.0,0.7627415843136865
481,8310.0,0.743675044262836
482,8330.0,0.7392645042119853
483,8350.0,0.7397399641611349
484,8370.0,0.7421694241102842
485,8390.0,0.7231018840594335
486,8410.0,0.7389673440085831
487,8430.0,0.7179448039577324
488,8450.0,0.7132902639068818
489,8470.0,0.7101007238560312
490,8490.0,0.7127751838051807
491,8510.0,0.68222564375433
492,8530.0,0.7085951037034794
493,8550.0,0.6453105636526287
494,8570.0,0.7215170236017783
495,8590.0,0.7080674835509275
496,8610.0,0.708786943500077
497,8630.0,0.7226984034492264
498,8650.0,0.7187758633983758
499,8670.0,0.6457203233475252
500,8690.0,0.7023827832966746
501,8709.6359,0.7196382819974492
502,8710.0,0.7199598474089048
503,8730.0,0.7200344239788078
504,8750.0,0.6995890005487109
505,8770.0,0.7194515771186137
506,8790.0,0.7236791536885169
507,8810.0,0.7115397302584198
508,8830.0,0.7152783068283228
509,8850.0,0.7102238833982257
510,8870.0,0.6817164599681288
511,8890.0,0.7035330365380318
512,8910.0,0.7097156131079347
513,8930.0,0.6978201896778378
514,8950.0,0.6978947662477407
515,8970.0,0.6982133428176437
516,8990.0,0.6968229193875468
517,9010.0,0.6646514959574498
518,9030.0,0.6891550725273528
519,9050.0,0.7085296490972557
520,9070.0,0.7039622256671587
521,9090.0,0.6893798022370616
522,9110.0,0.6967833788069647
523,9130.0,0.7058969553768676
524,9150.0,0.7013305319467706
525,9170.0,0.6996951085166737
526,9190.0,0.7034346850865766
527,9210.0,0.6822562616564797
528,9230.0,0.6588788382263826
529,9250.0,0.6694584147962857
530,9270.0,0.6751519913661885
531,9290.0,0.6720505679360916
532,9310.0,0.6748131445059945
533,9330.0,0.6731777210758976
534,9350.0,0.6708102976458006
535,9370.0,0.6616018742157036
536,9390.0,0.6680284507856066
537,9410.0,0.6527130273555095
538,9430.0,0.6669566039254126
539,9450.0,0.6575041804953154
540,9470.0,0.6671057570652186
541,9490.0,0.6666923336351216
542,9510.0,0.6577289102050244
543,9530.0,0.6548714867749276
544,9550.0,0.6307620633448304
545,9570.0,0.6479366399147335
546,9590.0,0.6582722164846364
547,9610.0,0.6505297930545395
548,9630.0,0.6503603696244424
549,9650.0,0.6423739461943454
550,9670.0,0.6404945227642485
551,9690.0,0.6471650993341515
552,9710.0,0.6408876759040545
553,9730.0,0.6360772524739574
554,9750.0,0.6324878290438605
555,9770.0,0.6335394056137633
556,9790.0,0.6260419821836664
557,9810.0,0.6361325587535694
558,9830.0,0.6310771353234723
559,9850.0,0.6326177118933753
560,9870.0,0.6278072884632784
561,9890.0,0.6261718650331813
562,9910.0,0.6230704416030843
563,9930.0,0.6243670181729873
564,9950.0,0.6237085947428904
565,9970.0,0.6230511713127933
566,9990.0,0.6199497478826963
567,10000.0,0.6181552861676478
568,10030.0,0.6128704600372004
569,10070.0,0.6026470251966037
570,10130.0,0.6091758729357089
571,10170.0,0.6021284380951123
572,10220.0,0.6013811445443664
573,10280.0,0.6003369922834716
574,10320.0,0.591334557442875
575,10380.0,0.5863824051819801
576,10430.0,0.5861231116312343
577,10480.0,0.5778018180804886
578,10520.0,0.574907383239892
579,10580.0,0.5662902309789972
580,10630.0,0.5611449374282513
581,10680.0,0.5523356438775057
582,10720.0,0.552861209036909
583,10780.0,0.5474200567760141
584,10820.0,0.5398836219354176
585,10870.0,0.5364483283846718
586,10920.0,0.5288600348339261
587,10980.0,0.5263508825730312
588,11020.0,0.5268764477324346
589,11080.0,0.5216792954715397
590,11130.0,0.5177550019207939
591,11170.0,0.5126615670801973
592,11220.0,0.5114252735294516
593,11280.0,0.5032971212685566
594,11330.0,0.5010838277178109
595,11380.0,0.49715953416706515
596,11430.0,0.4912822406163194
597,11470.0,0.49449480577572286
598,11481.5362,0.4939181587705206
599,11530.0,0.4916159691089281
600,11570.0,0.48540083774358533
601,11620.0,0.4781826735369068
602,11670.0,0.4765815093302283
603,11730.0,0.47788531228221415
604,11770.0,0.46849418091687134
605,11830.0,0.46442298386885716
606,11870.0,0.4574748525035144
607,11920.0,0.4627136882968359
608,11980.0,0.4491154912488217
609,12030.0,0.4541103270421432
610,12070.0,0.44936119567680044
611,12120.0,0.44849303147012193
612,12180.0,0.44833083442210775
613,12230.0,0.4445306702154293
614,12270.0,0.44100253885008645
615,12320.0,0.437447374643408
616,12370.0,0.4353582104367295
617,12430.0,0.43079901338871535
618,12480.0,0.4287088491820369
619,12530.0,0.42442068497535834
620,12580.0,0.4220875207686799
621,12620.0,0.4192923894033371
622,12670.0,0.4152482251966586
623,12720.0,0.41438006098998015
624,12780.0,0.41226386394196596
625,12830.0,0.39527269973528745
626,12880.0,0.40442053552860896
627,12920.0,0.4006474041632662
628,12980.0,0.402440207115252
629,13020.0,0.3972010757499092
630,13080.0,0.397283878701895
631,13130.0,0.39030871449521654
632,13180.0,0.3882185502885381
633,13182.5674,0.3881865520528536
634,13230.0,0.3876796219459633
635,13280.0,0.3812812530658152
636,13320.0,0.3814881579616967
637,13380.0,0.37776851530551897
638,13430.0,0.37796614642537085
639,13470.0,0.37450905132125234
640,13520.0,0.3720196824411043
641,13570.0,0.36659931356095615
642,13630.0,0.3648336709047784
643,13670.0,0.36479657580065994
644,13730.0,0.36425193314448223
645,13770.0,0.36274883804036373
646,13820.0,0.36197046916021564
647,13880.0,0.3587388265040379
648,13930.0,0.3503874576238898
649,13970.0,0.3483963625197713
650,14020.0,0.3441969936396232
651,14080.0,0.3456063509834455
652,14120.0,0.341661255879327
653,14180.0,0.3433156132231493
654,14230.0,0.33887124434300114
655,14280.0,0.33467287546285307
656,14330.0,0.338290506582705
657,14380.0,0.33873213770255683
658,14420.0,0.33063404259843837
659,14480.0,0.3354643999422606
660,14520.0,0.33127430483814213
661,14570.0,0.332448935957994
662,14620.0,0.3280055670778459
663,14670.0,0.32649319819769784
