,lambda (Angstroms),Total Flux (erg/s/cm^2/Angstrom)
0,1005.0,0.006301910031651281
1,1015.0,0.006396692272661737
2,1025.0,0.005520414513672193
3,1035.0,0.005871066754682648
4,1045.0,0.006715778995693105
5,1055.0,0.006446501236703561
6,1065.0,0.005794783477714017
7,1075.0,0.005980085718724473
8,1085.0,0.005465147959734929
9,1095.0,0.005936260200745384
10,1096.4782,0.005898266357411549
11,1105.0,0.005677131121780472
12,1115.0,0.005535367545738935
13,1125.0,0.005021363969697398
14,1135.0,0.00549477039365586
15,1145.0,0.005290396817614323
16,1155.0,0.005196263241572785
17,1165.0,0.005051109665531247
18,1175.0,0.003926696089489709
19,1185.0,0.004765532513448172
20,1195.0,0.004388988937406635
21,1205.0,0.0039444053613650965
22,1215.0,0.0036420317853235592
23,1225.0,0.0042597082092820215
24,1235.0,0.004533724633240484
25,1245.0,0.004523981057198946
26,1255.0,0.004408077481157409
27,1258.92541,0.004372998613654486
28,1265.0,0.004321071647054456
29,1275.0,0.004493499389651025
30,1285.0,0.004471297132247592
31,1295.0,0.004036024874844161
32,1305.0,0.00402335261744073
33,1315.0,0.0043039803600372975
34,1325.0,0.004147728102633866
35,1335.0,0.003905045845230434
36,1345.0,0.004119653587827002
37,1355.0,0.00402464133042357
38,1365.0,0.0038173590730201388
39,1375.0,0.003783586815616707
40,1385.0,0.003731444558213275
41,1395.0,0.003072972300809843
42,1405.0,0.0030065400434064115
43,1415.0,0.00357773778600298
44,1425.0,0.0034902155285995483
45,1435.0,0.003577573271196116
46,1442.0,0.003635603691013714
47,1445.43977,0.003611345656478854
48,1447.0,0.003600336099545897
49,1455.0,0.003567839156118549
50,1465.0,0.0034169854768343628
51,1475.0,0.003465521797550177
52,1485.0,0.0035160881182659913
53,1495.0,0.0035115444389818055
54,1505.0,0.00349271075969762
55,1512.0,0.00335199218419869
56,1517.0,0.003362310344556597
57,1525.0,0.0034591134011292485
58,1535.0,0.0033531697218450625
59,1545.0,0.0032349860425608767
60,1555.0,0.003475412363276691
61,1565.0,0.0036348686839925053
62,1575.0,0.00426591500470832
63,1585.0,0.0047901213254241334
64,1595.0,0.005002657646139948
65,1605.0,0.004651043966855762
66,1615.0,0.005169130287571577
67,1625.0,0.005121026608287391
68,1635.0,0.005440402929003205
69,1645.0,0.006572299249719019
70,1655.0,0.005319025570434833
71,1659.58691,0.006343569861110288
72,1665.0,0.007553389927523447
73,1672.0,0.006275835752304133
74,1677.0,0.009161285627147478
75,1685.0,0.009768199426896836
76,1695.0,0.00919814917658353
77,1705.0,0.009907448926270225
78,1715.0,0.011419788675956919
79,1725.0,0.011952168425643613
80,1735.0,0.013498448175330307
81,1745.0,0.013425227925017002
82,1755.0,0.015413807674703697
83,1765.0,0.012829487424390391
84,1775.0,0.014865767174077086
85,1785.0,0.015874446923763778
86,1795.0,0.018836326673450473
87,1805.0,0.019457106423137166
88,1815.0,0.019744486172823865
89,1825.0,0.019038365922510556
90,1835.0,0.019529945672197253
91,1845.0,0.015938425421883947
92,1855.0,0.01922000517157064
93,1865.0,0.022474384921257334
94,1875.0,0.021999564670944032
95,1885.0,0.022579644420630724
96,1895.0,0.02499702417031742
97,1905.0,0.02394380392000411
98,1905.46072,0.024033859925431687
99,1915.0,0.02589503420441031
100,1925.0,0.024484297889487826
101,1935.0,0.018582361574565345
102,1945.0,0.028277425259642865
103,1955.0,0.029160088944720386
104,1967.0,0.0331249453668134
105,1976.0,0.030952312683383176
106,1984.0,0.03276758363144519
107,1995.0,0.03322814368503046
108,2005.0,0.03083080737010798
109,2015.0,0.03246867105518549
110,2025.0,0.02770313474026302
111,2035.0,0.03507099842534053
112,2045.0,0.03875726211041805
113,2055.0,0.037659625795495574
114,2065.0,0.03621488948057309
115,2074.0,0.041820456797142865
116,2078.0,0.05540934227117387
117,2085.0,0.06068861685072813
118,2095.0,0.05683488053580565
119,2105.0,0.05352564422088317
120,2115.0,0.059137707905960686
121,2125.0,0.054079571591038204
122,2135.0,0.049586235276115734
123,2145.0,0.06135009896119325
124,2155.0,0.06091256264627077
125,2165.0,0.05401012633134829
126,2175.0,0.05492679001642581
127,2185.0,0.06513915370150333
128,2187.7616199999998,0.06592974024630163
129,2195.0,0.06800456652767412
130,2205.0,0.06493039006632834
131,2215.0,0.053417913604982575
132,2225.0,0.059326337143636804
133,2235.0,0.07510196068229104
134,2245.0,0.07034008422094527
135,2255.0,0.0569562077595995
136,2265.0,0.054324331298253745
137,2275.0,0.05979715483690798
138,2285.0,0.07347687837556222
139,2295.0,0.06314160191421644
140,2305.0,0.07409252545287068
141,2315.0,0.06701704899152491
142,2325.0,0.05497377253017914
143,2335.0,0.05083779606883338
144,2345.0,0.03693001960748761
145,2355.0,0.06332154314614184
146,2365.0,0.04059436668479608
147,2375.0,0.051858290223450315
148,2385.0,0.03250631376210454
149,2395.0,0.04055153730075878
150,2405.0,0.04030136083941301
151,2415.0,0.045753884378067246
152,2425.0,0.07118590791672148
153,2435.0,0.07030293145537571
154,2445.0,0.08139675499402994
155,2455.0,0.08425647853268418
156,2465.0,0.07792940207133842
157,2475.0,0.06881222560999264
158,2485.0,0.05096424914864688
159,2495.0,0.05664807268730111
160,2505.0,0.08201889622595535
161,2511.88643,0.04972007515323473
162,2513.0,0.04449694429306844
163,2518.0,0.03489473011696646
164,2525.0,0.0376639902704237
165,2535.0,0.053029161918219755
166,2545.0,0.05671003356601581
167,2555.0,0.08610030521381186
168,2565.0,0.07010787686160791
169,2575.0,0.08548664850940396
170,2585.0,0.07854492015720002
171,2595.0,0.07235169180499608
172,2605.0,0.06385156345279212
173,2615.0,0.05761063510058818
174,2625.0,0.07670500674838424
175,2635.0,0.11297467839618028
176,2645.0,0.14951705004397634
177,2655.0,0.1889864216917724
178,2665.0,0.13298079333956844
179,2675.0,0.1497871649873645
180,2685.0,0.16659553663516055
181,2695.0,0.1289639082829566
182,2705.0,0.15148727993075267
183,2715.0,0.11650865157854871
184,2725.0,0.10391902322634476
185,2735.0,0.12358539487414082
186,2745.0,0.07458786652193687
187,2755.0,0.09622733816973292
188,2765.0,0.12072450981752897
189,2775.0,0.13038788146532504
190,2785.0,0.08676635311312109
191,2795.0,0.03706182476091713
192,2805.0,0.04622749640871319
193,2815.0,0.12119836805650924
194,2825.0,0.1633207397043053
195,2835.0,0.15678711135210135
196,2845.0,0.1268444829998974
197,2855.0,0.08165825464769345
198,2865.0,0.1595072262954895
199,2875.0,0.19230759794328556
200,2884.0315,0.17872365444699248
201,2885.0,0.17726702920156262
202,2895.0,0.20026901634219318
203,2910.0,0.257158997053139
204,2930.0,0.2304829713344001
205,2950.0,0.21857294561566118
206,2970.0,0.22884891989692227
207,2990.0,0.23252389417818337
208,3010.0,0.23735586845944445
209,3030.0,0.24647484274070555
210,3050.0,0.25749881702196664
211,3070.0,0.2694747913032277
212,3090.0,0.26654876558448887
213,3110.0,0.29145573986574996
214,3130.0,0.277232714147011
215,3150.0,0.2749186884282721
216,3170.0,0.2967636627095332
217,3190.0,0.2644386369907943
218,3210.0,0.2909106112720554
219,3230.0,0.2533475855533165
220,3250.0,0.3283385598345776
221,3270.0,0.37386453411583864
222,3290.0,0.36733150839709977
223,3310.0,0.35365348267836083
224,3311.31121,0.35404159915222744
225,3330.0,0.3595730215813877
226,3350.0,0.35011352993817296
227,3370.0,0.2823350382949582
228,3390.0,0.31459054665174346
229,3410.0,0.3211910550085287
230,3430.0,0.33752256336531394
231,3450.0,0.3491580717220992
232,3470.0,0.3584805800788844
233,3490.0,0.3895790884356697
234,3510.0,0.4101985967924549
235,3530.0,0.3772621051492402
236,3550.0,0.42795861350602543
237,3570.0,0.32601812186281065
238,3590.0,0.3249286302195959
239,3610.0,0.38215813857638115
240,3630.0,0.39678964693316643
241,3640.0,0.40978640111155906
242,3650.0,0.45408715528995164
243,3670.0,0.4685816636467369
244,3690.0,0.43265117200352216
245,3710.0,0.4636806803603074
246,3730.0,0.35459618871709264
247,3750.0,0.3990996970738779
248,3770.0,0.4761332054306632
249,3790.0,0.4970237137874484
250,3801.8939600000003,0.4951620166682118
251,3810.0,0.49389326366325637
252,3830.0,0.33329287445976
253,3850.0,0.4373424852562636
254,3870.0,0.43863509605276724
255,3890.0,0.4634047068492709
256,3910.0,0.5526193176457745
257,3930.0,0.3121959284422781
258,3950.0,0.49273353923878177
259,3970.0,0.34547215003528536
260,3990.0,0.660204760831789
261,4010.0,0.7166863716282926
262,4030.0,0.7139639824247962
263,4050.0,0.6908255932212999
264,4070.0,0.6616322040178035
265,4090.0,0.7588758148143072
266,4110.0,0.7078374256108108
267,4130.0,0.7228090364073144
268,4150.0,0.7166836472038179
269,4170.0,0.7241692580003216
270,4190.0,0.7091968687968252
271,4210.0,0.7160014795933289
272,4230.0,0.6894610903898325
273,4250.0,0.7180427011863362
274,4270.0,0.6846973119828397
275,4290.0,0.6437989227793434
276,4310.0,0.562953533575847
277,4330.0,0.7561491443723507
278,4350.0,0.7364137551688542
279,4365.15832,0.7972741149852953
280,4370.0,0.8167135140772663
281,4390.0,0.7445797366940821
282,4410.0,0.7826889593108979
283,4430.0,0.8344071819277136
284,4450.0,0.8364494045445293
285,4470.0,0.882723627161345
286,4490.0,0.9004168497781607
287,4510.0,1.0004500723949765
288,4530.0,0.8936122950117923
289,4550.0,0.9262765176286081
290,4570.0,0.9909247402454238
291,4590.0,0.9439699628622394
292,4610.0,0.9664271854790552
293,4630.0,0.9480534080958709
294,4650.0,0.9596226307126867
295,4670.0,0.9936478533295025
296,4690.0,0.9800370759463183
297,4710.0,0.9521372985631339
298,4730.0,0.9820795211799497
299,4750.0,1.0065727437967653
300,4770.0,0.9970509664135812
301,4790.0,0.9963711890303969
302,4810.0,0.9950104116472126
303,4830.0,1.0188236342640284
304,4850.0,0.9630278568808441
305,4870.0,0.8759230794976598
306,4890.0,0.9841233021144756
307,4910.0,0.9854845247312913
308,4930.0,0.966430747348107
309,4950.0,1.0052149699649229
310,4970.0,0.9936511925817385
311,4990.0,0.9303644151985543
312,5010.0,0.88749263781537
313,5011.87234,0.8921432703650881
314,5030.0,0.9371699009788902
315,5050.0,0.9330871683303317
316,5070.0,0.9698354356817733
317,5090.0,0.9221997030332149
318,5110.0,0.9419349703846566
319,5130.0,0.911992237736098
320,5150.0,0.8806895050875396
321,5170.0,0.8248887724389813
322,5190.0,0.8500680397904228
323,5210.0,0.9045083071418644
324,5230.0,0.959629574493306
325,5250.0,0.9950158418447476
326,5270.0,0.8915791091961892
327,5290.0,1.0038593765476307
328,5310.0,1.0562596438990723
329,5330.0,0.944659911250514
330,5350.0,1.0229101786019557
331,5370.0,1.016110445953397
332,5390.0,0.9963787133048386
333,5410.0,0.9807269806562802
334,5430.0,0.9936572480077218
335,5450.0,1.0195115153591634
336,5470.0,1.000461782710605
337,5490.0,1.0052220500620466
338,5510.0,0.9950193174134881
339,5530.0,1.0242825847649297
340,5550.0,1.0372128521163715
341,5570.0,1.0140731194678128
342,5590.0,0.9929783868192545
343,5610.0,1.023603654170696
344,5630.0,1.0188339215221376
345,5650.0,1.0304041888735793
346,5670.0,1.0059044562250208
347,5690.0,1.0338047235764622
348,5710.0,1.000464990927904
349,5730.0,1.0746352582793457
350,5750.0,1.0392555256307872
351,5754.399369999999,1.0412001059796825
352,5770.0,1.0480961155898416
353,5790.0,1.0120367965240844
354,5810.0,1.0467374774583273
355,5830.0,1.07191815839257
356,5850.0,1.0412988393268128
357,5870.0,1.0412995202610558
358,5890.0,0.9371842011952987
359,5910.0,1.0236108821295413
360,5930.0,1.0297315630637844
361,5950.0,1.0297322439980272
362,5970.0,1.0440229249322701
363,5990.0,1.028373605866513
364,6010.0,1.0140842868007556
365,6030.0,1.0358549677349986
366,6050.0,1.0528756486692414
367,6070.0,1.0481063296034843
368,6090.0,1.0154470105377271
369,6110.0,1.01816769147197
370,6130.0,0.9671343724062127
371,6150.0,0.9909530533404556
372,6170.0,0.9460407342746985
373,6190.0,0.9970784152089414
374,6210.0,0.9889130961431841
375,6230.0,0.9603337770774271
376,6250.0,0.93175245801167
377,6270.0,0.9719021389459127
378,6290.0,0.9861938198801555
379,6310.0,0.9623775008143984
380,6330.0,0.9746261817486412
381,6350.0,0.978029862682884
382,6370.0,0.9725865436171269
383,6390.0,0.9861972245513697
384,6410.0,0.9664639054856126
385,6430.0,0.9739495864198555
386,6450.0,0.9685072673540983
387,6470.0,0.9651049482883411
388,6490.0,0.946731629222584
389,6510.0,0.9759933101568268
390,6530.0,0.9753139910910696
391,6550.0,0.9460536720253125
392,6570.0,0.8814063529595553
393,6590.0,0.9569430338937982
394,6606.93448,0.9655861223251639
395,6610.0,0.9671506110577827
396,6630.0,0.9596656149763256
397,6650.0,0.9583046188948686
398,6670.0,0.9392506228134118
399,6690.0,0.9521796267319548
400,6710.0,0.9188346306504978
401,6730.0,0.9399306345690407
402,6750.0,0.9249596384875838
403,6770.0,0.9283616424061268
404,6790.0,0.9188346463246698
405,6810.0,0.9215566502432129
406,6830.0,0.9304036541617559
407,6850.0,0.9086266580802989
408,6870.0,0.9208766619988419
409,6890.0,0.9324446659173848
410,6910.0,0.9283616698359279
411,6930.0,0.922237673754471
412,6950.0,0.9195156776730139
413,6970.0,0.9297226815915569
414,6990.0,0.9249596855101
415,7010.0,0.911348689428643
416,7030.0,0.9270006933471859
417,7050.0,0.930403697265729
418,7070.0,0.905905701184272
419,7090.0,0.882768705102815
420,7110.0,0.8650747090213581
421,7130.0,0.8480627129399011
422,7150.0,0.8453407168584441
423,7170.0,0.8541867207769871
424,7190.0,0.8337727246955301
425,7210.0,0.8514647286140732
426,7230.0,0.8671167325326162
427,7250.0,0.8718797364511591
428,7270.0,0.8759637403697021
429,7290.0,0.8637137442882452
430,7310.0,0.8834487482067883
431,7330.0,0.8854907521253312
432,7350.0,0.8929757560438742
433,7370.0,0.9120297599624173
434,7390.0,0.8956977638809603
435,7410.0,0.8916147677995033
436,7430.0,0.9120297717180463
437,7450.0,0.9120297756365894
438,7470.0,0.9229177795551324
439,7490.0,0.9201957834736754
440,7510.0,0.9276817873922184
441,7530.0,0.9385697913107615
442,7550.0,0.9440137952293045
443,7570.0,0.9385697991478474
444,7585.77575,0.9256873247887454
445,7590.0,0.9222378607569434
446,7610.0,0.9086271378153472
447,7630.0,0.8922964148737512
448,7650.0,0.8766446919321551
449,7670.0,0.8398979689905591
450,7690.0,0.858952246048963
451,7710.0,0.842620523107367
452,7730.0,0.8453428001657709
453,7750.0,0.838538077224175
454,7770.0,0.8494253542825788
455,7790.0,0.8535086313409828
456,7810.0,0.8528289083993866
457,7830.0,0.8453441854577907
458,7850.0,0.8358174625161946
459,7870.0,0.8487477395745985
460,7890.0,0.8378600166330025
461,7910.0,0.8201662936914064
462,7930.0,0.8215275707498103
463,7950.0,0.8160838478082142
464,7970.0,0.8399021248666182
465,7990.0,0.8405834019250221
466,8010.0,0.8487496789834261
467,8030.0,0.85079095604183
468,8050.0,0.849429233100234
469,8070.0,0.8582765101586378
470,8090.0,0.8501117872170418
471,8110.0,0.8569160642754458
472,8130.0,0.8752903413338496
473,8150.0,0.8814156183922536
474,8170.0,0.8868598954506575
475,8190.0,0.8630421725090615
476,8210.0,0.8555564495674653
477,8230.0,0.8596397266258694
478,8250.0,0.8589600036842733
479,8270.0,0.8664452807426772
480,8290.0,0.8582795578010811
481,8310.0,0.8331018348594852
482,8330.0,0.826977111917889
483,8350.0,0.8283383889762931
484,8370.0,0.8317416660346969
485,8390.0,0.8058819430931008
486,8410.0,0.8297002201515048
487,8430.0,0.7949944972099087
488,8450.0,0.7827467742683127
489,8470.0,0.7813860513267166
490,8490.0,0.7847883283851206
491,8510.0,0.7521246054435244
492,8530.0,0.7827478825019285
493,8550.0,0.7160581595603324
494,8570.0,0.8031624366187363
495,8590.0,0.7936357136771403
496,8610.0,0.7997609907355442
497,8630.0,0.8133712677939481
498,8650.0,0.813371544852352
499,8670.0,0.733071821910756
500,8690.0,0.7949980989691598
501,8709.6359,0.8190513666887148
502,8710.0,0.8194973854289261
503,8730.0,0.8242611789038224
504,8750.0,0.8140549723787189
505,8770.0,0.8283457658536153
506,8790.0,0.8337915593285117
507,8810.0,0.818140352803408
508,8830.0,0.8256261462783046
509,8850.0,0.8249469397532009
510,8870.0,0.7963657332280972
511,8890.0,0.8106575267029936
512,8910.0,0.81814432017789
513,8930.0,0.8038541136527865
514,8950.0,0.8038549071276828
515,8970.0,0.8072577006025793
516,8990.0,0.8079394940774756
517,9010.0,0.7800402875523721
518,9030.0,0.8079410810272684
519,9050.0,0.8283568745021648
520,9070.0,0.8256356679770612
521,9090.0,0.8079434614519575
522,9110.0,0.817471254926854
523,9130.0,0.8290410484017503
524,9150.0,0.8235978418766468
525,9170.0,0.8229176353515432
526,9190.0,0.8297234288264396
527,9210.0,0.801823222301336
528,9230.0,0.7834510157762322
529,9250.0,0.7841328092511287
530,9270.0,0.788216602726025
531,9290.0,0.7800513962009216
532,9310.0,0.7848151896758179
533,9330.0,0.7841359831507143
534,9350.0,0.7807337766256106
535,9370.0,0.7684855701005071
536,9390.0,0.7800553635754035
537,9410.0,0.7644041570502998
538,9430.0,0.7814179505251962
539,9450.0,0.7705307440000926
540,9470.0,0.7848215374749891
541,9490.0,0.7855033309498853
542,9510.0,0.7752961244247818
543,9530.0,0.7773389178996782
544,9550.0,0.7589657113745747
545,9570.0,0.769174504849471
546,9590.0,0.7814242983243674
547,9610.0,0.7712170917992638
548,9630.0,0.7739398852741601
549,9650.0,0.7603306787490566
550,9670.0,0.7603314722239529
551,9690.0,0.7705402656988494
552,9710.0,0.7610130591737457
553,9730.0,0.7542088526486421
554,9750.0,0.7514876461235386
555,9770.0,0.7542104395984349
556,9790.0,0.7433232330733314
557,9810.0,0.7596560265482276
558,9830.0,0.7528518200231241
559,9850.0,0.7576166134980205
560,9870.0,0.751492406972917
561,9890.0,0.7501322004478133
562,9910.0,0.7446889939227097
563,9930.0,0.747411787397606
564,9950.0,0.7480935808725026
565,9970.0,0.7474133743473989
566,9990.0,0.7446921678222952
567,10000.0,0.7435015645597434
568,10030.0,0.7399297579200875
569,10070.0,0.729725349067213
570,10130.0,0.7351707357879013
571,10170.0,0.7256463269350266
572,10220.0,0.7256483158689335
573,10280.0,0.7249697025896217
574,10320.0,0.7147632937367471
575,10380.0,0.7086416804574353
576,10430.0,0.7100046693913422
577,10480.0,0.7004796583252489
578,10520.0,0.6957172494723745
579,10580.0,0.6841506361930627
580,10630.0,0.6784366251269695
581,10680.0,0.6688446140608764
582,10720.0,0.6705472052080018
583,10780.0,0.66442459192869
584,10820.0,0.6543551830758155
585,10870.0,0.6519751720097223
586,10920.0,0.6487101609436292
587,10980.0,0.6414315476643174
588,11020.0,0.6388471388114427
589,11080.0,0.6313635255321309
590,11130.0,0.6274185144660379
591,11170.0,0.6215001056131633
592,11220.0,0.6204810945470701
593,11280.0,0.6115014812677584
594,11330.0,0.6094614702016652
595,11380.0,0.604292459135572
596,11430.0,0.5968764480694788
597,11470.0,0.6023220392166042
598,11481.5362,0.601733767371391
599,11530.0,0.5992642016182435
600,11570.0,0.5918492583383956
601,11620.0,0.5823940792385855
602,11670.0,0.5811729001387755
603,11730.0,0.5830834852190035
604,11770.0,0.5707005419391555
605,11830.0,0.5653291270193835
606,11870.0,0.5561461837395355
607,11920.0,0.5631580046397255
608,11980.0,0.5449265897199536
609,12030.0,0.5530284106201435
610,12070.0,0.5475194673402954
611,12120.0,0.5470462882404855
612,12180.0,0.5469828733207136
613,12230.0,0.5426996942209035
614,12270.0,0.5380067509410554
615,12320.0,0.5339275718412455
616,12370.0,0.5314813927414355
617,12430.0,0.5248849778216635
618,12480.0,0.5227797987218534
619,12530.0,0.5173396196220434
620,12580.0,0.5149614405222335
621,12620.0,0.5114254972423855
622,12670.0,0.5064613181425756
623,12720.0,0.5057851390427656
624,12780.0,0.5044967241229935
625,12830.0,0.4863995450231835
626,12880.0,0.4946373659233735
627,12920.0,0.48912842264352546
628,12980.0,0.49233200772375346
629,13020.0,0.4859380644439055
630,13080.0,0.4864866495241335
631,13130.0,0.47682747042432344
632,13180.0,0.47492629132451347
633,13182.5674,0.4749019945240964
634,13230.0,0.4744548402768807
635,13280.0,0.4664304827640986
636,13320.0,0.4665029967538729
637,13380.0,0.4614737677385344
638,13430.0,0.4623644102257523
639,13470.0,0.4585579242155266
640,13520.0,0.4552295667027445
641,13570.0,0.44863420918996244
642,13630.0,0.4460549801746239
643,13670.0,0.4472844941643983
644,13730.0,0.4473592651490597
645,13770.0,0.4453897791388341
646,13820.0,0.444851421626052
647,13880.0,0.44029919261071343
648,13930.0,0.4273068350979314
649,13970.0,0.4247933490877057
650,14020.0,0.41962799157492364
651,14080.0,0.42208376255958513
652,14120.0,0.4168482765493594
