,lambda (Angstroms),Total Flux (erg/s/cm^2/Angstrom)
0,1005.0,0.006221265573139601
1,1015.0,0.0063165623737009655
2,1025.0,0.00544079917426233
3,1035.0,0.005791965974823694
4,1045.0,0.006637192775385058
5,1055.0,0.006368429575946423
6,1065.0,0.005717226376507787
7,1075.0,0.005903043177069152
8,1085.0,0.005388619977630516
9,1095.0,0.00586024677819188
10,1096.4782,0.00582232899705086
11,1105.0,0.005602566178766929
12,1115.0,0.005462413080966075
13,1125.0,0.004950019983165221
14,1135.0,0.005425036885364366
15,1145.0,0.005222273787563513
16,1155.0,0.005129750689762658
17,1165.0,0.004986207591961804
18,1175.0,0.00386340449416095
19,1185.0,0.004703851396360095
20,1195.0,0.004328918298559242
21,1205.0,0.003885945200758387
22,1215.0,0.003585182102957533
23,1225.0,0.004204469005156679
24,1235.0,0.004480095907355824
25,1245.0,0.00447196280955497
26,1255.0,0.0043576697117541155
27,1258.92541,0.00432322302299027
28,1265.0,0.0042712264705858085
29,1275.0,0.004443539660917236
30,1285.0,0.0044212228512486625
31,1295.0,0.003985836041580089
32,1305.0,0.003973049231911516
33,1315.0,0.0042535624222429435
34,1325.0,0.00409719561257437
35,1335.0,0.0038543988029057967
36,1345.0,0.004068891993237223
37,1355.0,0.0039737651835686505
38,1365.0,0.003766368373900077
39,1375.0,0.003732481564231504
40,1385.0,0.0036802247545629305
41,1395.0,0.003021637944894357
42,1405.0,0.002955091135225784
43,1415.0,0.003526174325557211
44,1425.0,0.003438537515888638
45,1435.0,0.0035257807062200643
46,1442.0,0.0035837309394520637
47,1445.43977,0.003559433501572697
48,1447.0,0.0035484089441921653
49,1455.0,0.003515835086732527
50,1465.0,0.0033648852649079794
51,1475.0,0.0034133254430834315
52,1485.0,0.003463795621258884
53,1495.0,0.0034591557994343367
54,1505.0,0.003440225977609789
55,1512.0,0.0032994401023326053
56,1517.0,0.003309710191420332
57,1525.0,0.0034064363339606934
58,1535.0,0.0033003965121361457
59,1545.0,0.0031821166903115983
60,1555.0,0.0034224468684870505
61,1565.0,0.003581807046662503
62,1575.0,0.004212757224837956
63,1585.0,0.004736867403013407
64,1595.0,0.00494930758118886
65,1605.0,0.004597597759364312
66,1615.0,0.005115587937539765
67,1625.0,0.005067388115715217
68,1635.0,0.0053866682938906695
69,1645.0,0.006518468472066122
70,1655.0,0.005265098650241573
71,1659.58691,0.006289598841199048
72,1665.0,0.007499038848624137
73,1672.0,0.006220993195724518
74,1677.0,0.009106092015081932
75,1685.0,0.009712444126053798
76,1695.0,0.009141691764768627
77,1705.0,0.009850289403483458
78,1715.0,0.011361927042198289
79,1725.0,0.011893604680913118
80,1735.0,0.013439182319627948
81,1745.0,0.01336525995834278
82,1755.0,0.01535313759705761
83,1765.0,0.01276811523577244
84,1775.0,0.014803692874487271
85,1785.0,0.0158116705132021
86,1795.0,0.01877284815191693
87,1805.0,0.01939292579063176
88,1815.0,0.019679603429346593
89,1825.0,0.01897278106806142
90,1835.0,0.01946365870677625
91,1845.0,0.015871436345491083
92,1855.0,0.019152313984205912
93,1865.0,0.022405991622920743
94,1875.0,0.021930469261635575
95,1885.0,0.022509846900350402
96,1895.0,0.024926524539065232
97,1905.0,0.02387260217778006
98,1905.46072,0.02396262583555094
99,1915.0,0.025824663446894616
100,1925.0,0.024414832160826568
101,1935.0,0.018513800874758523
102,1945.0,0.02820976958869048
103,1955.0,0.029093338302622437
104,1967.0,0.03305928075934078
105,1976.0,0.030887462601879544
106,1984.0,0.032703457573025105
107,1995.0,0.03316501315835026
108,2005.0,0.03076858187228221
109,2015.0,0.03240735058621416
110,2025.0,0.02764271930014612
111,2035.0,0.03501148801407807
112,2045.0,0.038698656728010025
113,2055.0,0.03760192544194199
114,2065.0,0.03615809415587394
115,2074.0,0.0417644759984127
116,2078.0,0.055353723483985484
117,2085.0,0.06063363158373785
118,2095.0,0.056780800297669805
119,2105.0,0.05347246901160176
120,2115.0,0.059085437725533714
121,2125.0,0.05402820643946567
122,2135.0,0.04953577515339763
123,2145.0,0.06130054386732958
124,2155.0,0.06086391258126154
125,2165.0,0.05396238129519349
126,2175.0,0.05487995000912545
127,2185.0,0.06509321872305741
128,2187.7616199999998,0.06588405520243422
129,2195.0,0.06795835918204117
130,2205.0,0.06488346114796019
131,2215.0,0.05337026311387921
132,2225.0,0.059277965079798225
133,2235.0,0.07505286704571724
134,2245.0,0.07029026901163626
135,2255.0,0.05690567097755528
136,2265.0,0.054273072943474304
137,2275.0,0.05974517490939332
138,2285.0,0.07342417687531234
139,2295.0,0.06308817884123136
140,2305.0,0.07403838080715038
141,2315.0,0.0669621827730694
142,2325.0,0.054918184738988414
143,2335.0,0.05078148670490743
144,2345.0,0.03687298867082645
145,2355.0,0.06326379063674548
146,2365.0,0.040535892602664485
147,2375.0,0.05179909456858351
148,2385.0,0.03244639653450252
149,2395.0,0.04049089850042155
150,2405.0,0.04024000046634056
151,2415.0,0.04569180243225958
152,2425.0,0.0711231043981786
153,2435.0,0.07023940636409762
154,2445.0,0.08133250833001664
155,2455.0,0.08419151029593565
156,2465.0,0.07786371226185468
157,2475.0,0.06874581422777369
158,2485.0,0.050897116193692714
159,2495.0,0.05658021815961173
160,2505.0,0.08195032012553075
161,2511.88643,0.04965100214679704
162,2513.0,0.04442790238503803
163,2518.0,0.034825827842759144
164,2525.0,0.03759528348356872
165,2535.0,0.05296073439901097
166,2545.0,0.05664188531445323
167,2555.0,0.08603243622989548
168,2565.0,0.07004028714533773
169,2575.0,0.08541933806077998
170,2585.0,0.07847788897622222
171,2595.0,0.07228493989166448
172,2605.0,0.06378509080710673
173,2615.0,0.05754444172254899
174,2625.0,0.07663909263799125
175,2635.0,0.1129090435534335
176,2645.0,0.14945169446887574
177,2655.0,0.188921345384318
178,2665.0,0.13291599629976025
179,2675.0,0.1497226472152025
180,2685.0,0.16653129813064474
181,2695.0,0.12889994904608698
182,2705.0,0.15142359996152926
183,2715.0,0.11644525087697151
184,2725.0,0.10385590179241375
185,2735.0,0.123522552707856
186,2745.0,0.07452530362329826
187,2755.0,0.09616505453874051
188,2765.0,0.12066250545418276
189,2775.0,0.13032615636962502
190,2785.0,0.08670490728506727
191,2795.0,0.03700065820050952
192,2805.0,0.046166609115951766
193,2815.0,0.12113776003139402
194,2825.0,0.16326041094683627
195,2835.0,0.15672706186227853
196,2845.0,0.12678471277772077
197,2855.0,0.08159876369316303
198,2865.0,0.15944801460860528
199,2875.0,0.19224866552404754
200,2884.0315,0.1786649742483291
201,2885.0,0.17720834955642367
202,2895.0,0.20021034241232954
203,2910.0,0.25710033169618834
204,2930.0,0.23042431740800004
205,2950.0,0.21851430311981176
206,2970.0,0.2287902888316235
207,2990.0,0.23246527454343519
208,3010.0,0.23729726025524692
209,3030.0,0.24641624596705866
210,3050.0,0.25744023167887037
211,3070.0,0.26941621739068206
212,3090.0,0.26649020310249383
213,3110.0,0.29139718881430554
214,3130.0,0.2771741745261172
215,3150.0,0.274860160237929
216,3170.0,0.2967051459497407
217,3190.0,0.2643801316615524
218,3210.0,0.29085211737336414
219,3230.0,0.2532891030851758
220,3250.0,0.32828008879698756
221,3270.0,0.37380607450879927
222,3290.0,0.367273060220611
223,3310.0,0.3535950459324227
224,3311.31121,0.3539831631556819
225,3330.0,0.3595147897674376
226,3350.0,0.3500555166323183
227,3370.0,0.28227724349719896
228,3390.0,0.31453297036207967
229,3410.0,0.3211336972269604
230,3430.0,0.3374654240918411
231,3450.0,0.3491011509567218
232,3470.0,0.35842387782160245
233,3490.0,0.3895226046864832
234,3510.0,0.41014233155136387
235,3530.0,0.37720605841624455
236,3550.0,0.42790278528112524
237,3570.0,0.3259625121460059
238,3590.0,0.3248732390108866
239,3610.0,0.3821029658757673
240,3630.0,0.39673469274064804
241,3640.0,0.4097315561730884
242,3650.0,0.4540324196055287
243,3670.0,0.4685271464704094
244,3690.0,0.43259687333529007
245,3710.0,0.46362660020017077
246,3730.0,0.35454232706505145
247,3750.0,0.39904605392993214
248,3770.0,0.4760797807948129
249,3790.0,0.4969705076596936
250,3801.8939600000003,0.49510894048678433
251,3810.0,0.493840257590698
252,3830.0,0.33324004136653335
253,3850.0,0.4372898251423687
254,3870.0,0.438582608918204
255,3890.0,0.4633523926940394
256,3910.0,0.5525671764698747
257,3930.0,0.31214396024571006
258,3950.0,0.49268174402154546
259,3970.0,0.34542052779738075
260,3990.0,0.6601533115732161
261,4010.0,0.7166350953490515
262,4030.0,0.7139128791248868
263,4050.0,0.6907746629007221
264,4070.0,0.6615814466765576
265,4090.0,0.7588252304523929
266,4110.0,0.7077870142282282
267,4130.0,0.7227587980040635
268,4150.0,0.7166335817798989
269,4170.0,0.7241193655557342
270,4190.0,0.7091471493315695
271,4210.0,0.715951933107405
272,4230.0,0.6894117168832403
273,4250.0,0.7179935006590756
274,4270.0,0.6846482844349109
275,4290.0,0.6437500682107463
276,4310.0,0.5629048519865817
277,4330.0,0.756100635762417
278,4350.0,0.7363654195382524
279,4365.15832,0.7972259104584967
280,4370.0,0.8166652855984813
281,4390.0,0.74453140927449
282,4410.0,0.7826405329504988
283,4430.0,0.8343586566265075
284,4450.0,0.8364007803025163
285,4470.0,0.882674903978525
286,4490.0,0.9003680276545337
287,4510.0,1.0004011513305424
288,4530.0,0.8935632750065513
289,4550.0,0.9262273986825601
290,4570.0,0.9908755223585687
291,4590.0,0.9439206460345775
292,4610.0,0.9663777697105862
293,4630.0,0.948003893386595
294,4650.0,0.9595730170626037
295,4670.0,0.9935981407386124
296,4690.0,0.9799872644146213
297,4710.0,0.95208738809063
298,4730.0,0.9820295117666388
299,4750.0,1.0065226354426473
300,4770.0,0.9970007591186562
301,4790.0,0.9963208827946649
302,4810.0,0.9949600064706737
303,4830.0,1.0187731301466825
304,4850.0,0.9629772538226912
305,4870.0,0.8758723774986998
306,4890.0,0.9840725011747087
307,4910.0,0.9854336248507174
308,4930.0,0.9663797485267261
309,4950.0,1.005163872202735
310,4970.0,0.9935999958787436
311,4990.0,0.9303131195547524
312,5010.0,0.8874412432307611
313,5011.87234,0.8920918665179377
314,5030.0,0.9371183894327167
315,5050.0,0.9330355379612953
316,5070.0,0.969783686489874
317,5090.0,0.9221478350184527
318,5110.0,0.9418829835470314
319,5130.0,0.91194013207561
320,5150.0,0.8806372806041887
321,5170.0,0.8248364291327673
322,5190.0,0.850015577661346
323,5210.0,0.9044557261899246
324,5230.0,0.9595768747185033
325,5250.0,0.994963023247082
326,5270.0,0.8915261717756606
327,5290.0,1.0038063203042393
328,5310.0,1.056206468832818
329,5330.0,0.9446066173613966
330,5350.0,1.0228567658899754
331,5370.0,1.0160569144185538
332,5390.0,0.9963250629471325
333,5410.0,0.9806732114757112
334,5430.0,0.9936033600042898
335,5450.0,1.0194575085328685
336,5470.0,1.0004076570614473
337,5490.0,1.005167805590026
338,5510.0,0.9949649541186045
339,5530.0,1.0242281026471831
340,5550.0,1.037158251175762
341,5570.0,1.0140183997043404
342,5590.0,0.9929235482329192
343,5610.0,1.0235486967614977
344,5630.0,1.0187788452900766
345,5650.0,1.0303489938186552
346,5670.0,1.0058491423472338
347,5690.0,1.0337492908758124
348,5710.0,1.0004094394043912
349,5730.0,1.0745795879329698
350,5750.0,1.0391997364615486
351,5754.399369999999,1.0411442906731567
352,5770.0,1.0480400642165788
353,5790.0,1.0119804425133803
354,5810.0,1.0466808208101819
355,5830.0,1.0718611991069835
356,5850.0,1.0412415774037849
357,5870.0,1.0412419557005865
358,5890.0,0.9371263339973882
359,5910.0,1.0235527122941896
360,5930.0,1.0296730905909914
361,5950.0,1.0296734688877929
362,5970.0,1.0439638471845945
363,5990.0,1.0283142254813962
364,6010.0,1.0140246037781975
365,6030.0,1.0357949820749992
366,6050.0,1.0528153603718007
367,6070.0,1.0480457386686024
368,6090.0,1.015386116965404
369,6110.0,1.0181064952622054
370,6130.0,0.9670728735590071
371,6150.0,0.9908912518558086
372,6170.0,0.9459786301526103
373,6190.0,0.9970160084494119
374,6210.0,0.9888503867462134
375,6230.0,0.960270765043015
376,6250.0,0.9316891433398167
377,6270.0,0.9718385216366182
378,6290.0,0.9861298999334197
379,6310.0,0.9623132782302213
380,6330.0,0.974561656527023
381,6350.0,0.9779650348238245
382,6370.0,0.972521413120626
383,6390.0,0.9861317914174277
384,6410.0,0.9663981697142292
385,6430.0,0.9738835480110308
386,6450.0,0.9684409263078324
387,6470.0,0.965038304604634
388,6490.0,0.9466646829014356
389,6510.0,0.9759260611982371
390,6530.0,0.9752464394950386
391,6550.0,0.9459858177918403
392,6570.0,0.8813381960886418
393,6590.0,0.9568745743854434
394,6606.93448,0.9655174065664244
395,6610.0,0.9670818950321014
396,6630.0,0.9595968972090698
397,6650.0,0.9582358993860381
398,6670.0,0.9391819015630065
399,6690.0,0.9521109037399749
400,6710.0,0.9187659059169433
401,6730.0,0.9398619080939115
402,6750.0,0.9248909102708799
403,6770.0,0.9282929124478482
404,6790.0,0.9187659146248166
405,6810.0,0.921487916801785
406,6830.0,0.9303349189787532
407,6850.0,0.9085579211557215
408,6870.0,0.92080792333269
409,6890.0,0.9323759255096582
410,6910.0,0.9282929276866266
411,6930.0,0.922168929863595
412,6950.0,0.9194469320405633
413,6970.0,0.9296539342175316
414,6990.0,0.9248909363944999
415,7010.0,0.9112799385714683
416,7030.0,0.9269319407484367
417,7050.0,0.930334942925405
418,7070.0,0.9058369451023733
419,7090.0,0.8826999472793418
420,7110.0,0.86500594945631
421,7130.0,0.8479939516332784
422,7150.0,0.8452719538102468
423,7170.0,0.8541179559872151
424,7190.0,0.8337039581641834
425,7210.0,0.8513959603411517
426,7230.0,0.8670479625181201
427,7250.0,0.8718109646950885
428,7270.0,0.8758949668720567
429,7290.0,0.8636449690490251
430,7310.0,0.8833799712259935
431,7330.0,0.8854219734029618
432,7350.0,0.8929069755799302
433,7370.0,0.9119609777568985
434,7390.0,0.8956289799338668
435,7410.0,0.8915459821108352
436,7430.0,0.9119609842878035
437,7450.0,0.9119609864647719
438,7470.0,0.9228489886417403
439,7490.0,0.9201269908187085
440,7510.0,0.9276129929956769
441,7530.0,0.9385009951726453
442,7550.0,0.9439449973496136
443,7570.0,0.938500999526582
444,7585.77575,0.9256185237937475
445,7590.0,0.9221690337538574
446,7610.0,0.9085581876751929
447,7630.0,0.8922273415965284
448,7650.0,0.876575495517864
449,7670.0,0.8398286494391995
450,7690.0,0.858882803360535
451,7710.0,0.8425509572818706
452,7730.0,0.845273111203206
453,7750.0,0.8384682651245416
454,7770.0,0.8493554190458772
455,7790.0,0.8534385729672126
456,7810.0,0.8527587268885481
457,7830.0,0.8452738808098836
458,7850.0,0.8357470347312193
459,7870.0,0.8486771886525547
460,7890.0,0.8377893425738903
461,7910.0,0.8200954964952258
462,7930.0,0.8214566504165612
463,7950.0,0.8160128043378968
464,7970.0,0.8398309582592323
465,7990.0,0.8405121121805679
466,8010.0,0.8486782661019034
467,8030.0,0.8507194200232389
468,8050.0,0.8493575739445745
469,8070.0,0.8582047278659098
470,8090.0,0.8500398817872454
471,8110.0,0.856844035708581
472,8130.0,0.8752181896299165
473,8150.0,0.881343343551252
474,8170.0,0.8867874974725874
475,8190.0,0.862969651393923
476,8210.0,0.8554838053152585
477,8230.0,0.8595669592365941
478,8250.0,0.8588871131579296
479,8270.0,0.8663722670792651
480,8290.0,0.8582064210006006
481,8310.0,0.8330285749219362
482,8330.0,0.8269037288432717
483,8350.0,0.8282648827646073
484,8370.0,0.8316680366859427
485,8390.0,0.8058081906072783
486,8410.0,0.8296263445286137
487,8430.0,0.7949204984499493
488,8450.0,0.7826726523712849
489,8470.0,0.7813118062926203
490,8490.0,0.7847139602139559
491,8510.0,0.7520501141352913
492,8530.0,0.782673268056627
493,8550.0,0.7159834219779625
494,8570.0,0.8030875758992979
495,8590.0,0.7935607298206335
496,8610.0,0.7996858837419689
497,8630.0,0.8132960376633045
498,8650.0,0.81329619158464
499,8670.0,0.7329963455059756
500,8690.0,0.7949224994273111
501,8709.6359,0.8189756462515079
502,8710.0,0.8194216585716256
503,8730.0,0.8241850993910125
504,8750.0,0.8139785402103994
505,8770.0,0.8282689810297863
506,8790.0,0.8337144218491731
507,8810.0,0.81806286266856
508,8830.0,0.8255483034879469
509,8850.0,0.8248687443073338
510,8870.0,0.7962871851267207
511,8890.0,0.8105786259461075
512,8910.0,0.8180650667654944
513,8930.0,0.8037745075848813
514,8950.0,0.8037749484042682
515,8970.0,0.8071773892236551
516,8990.0,0.8078588300430419
517,9010.0,0.7799592708624289
518,9030.0,0.8078597116818157
519,9050.0,0.8282751525012026
520,9070.0,0.8255535933205896
521,9090.0,0.8078610341399765
522,9110.0,0.8173884749593634
523,9130.0,0.8289579157787502
524,9150.0,0.8235143565981371
525,9170.0,0.822833797417524
526,9190.0,0.8296392382369109
527,9210.0,0.8017386790562978
528,9230.0,0.7833661198756846
529,9250.0,0.7840475606950715
530,9270.0,0.7881310015144584
531,9290.0,0.7799654423338453
532,9310.0,0.7847288831532322
533,9330.0,0.7840493239726191
534,9350.0,0.7806467647920059
535,9370.0,0.7683982056113928
536,9390.0,0.7799676464307798
537,9410.0,0.7643160872501666
538,9430.0,0.7813295280695535
539,9450.0,0.7704419688889403
540,9470.0,0.7847324097083272
541,9490.0,0.7854138505277141
542,9510.0,0.775206291347101
543,9530.0,0.7772487321664879
544,9550.0,0.7588751729858748
545,9570.0,0.7690836138052617
546,9590.0,0.7813330546246485
547,9610.0,0.7711254954440354
548,9630.0,0.7738479362634223
549,9650.0,0.7602383770828092
550,9670.0,0.760238817902196
551,9690.0,0.7704472587215829
552,9710.0,0.7609196995409698
553,9730.0,0.7541151403603567
554,9750.0,0.7513935811797436
555,9770.0,0.7541160219991304
556,9790.0,0.7432284628185174
557,9810.0,0.7595609036379042
558,9830.0,0.7527563444572911
559,9850.0,0.757520785276678
560,9870.0,0.751396226096065
561,9890.0,0.7500356669154519
562,9910.0,0.7445921077348387
563,9930.0,0.7473145485542256
564,9950.0,0.7479959893736126
565,9970.0,0.7473154301929994
566,9990.0,0.7445938710123863
567,10000.0,0.7434030914220796
568,10030.0,0.7398307544000486
569,10070.0,0.7296256383706738
570,10130.0,0.7350699643266119
571,10170.0,0.7255448482972371
572,10220.0,0.7255459532605186
573,10280.0,0.7248662792164564
574,10320.0,0.7146591631870817
575,10380.0,0.7085364891430196
576,10430.0,0.7098985941063012
577,10480.0,0.7003726990695828
578,10520.0,0.695609583040208
579,10580.0,0.6840419089961459
580,10630.0,0.6783270139594275
581,10680.0,0.6687341189227091
582,10720.0,0.6704360028933344
583,10780.0,0.6643123288492722
584,10820.0,0.6542422128198975
585,10870.0,0.6518613177831791
586,10920.0,0.6485954227464606
587,10980.0,0.6413157487023986
588,11020.0,0.6387306326730238
589,11080.0,0.6312459586289616
590,11130.0,0.6273000635922433
591,11170.0,0.6213809475628685
592,11220.0,0.62036105252615
593,11280.0,0.6113803784820879
594,11330.0,0.6093394834453696
595,11380.0,0.6041695884086511
596,11430.0,0.5967526933719326
597,11470.0,0.6021975773425579
598,11481.5362,0.6016091015441061
599,11530.0,0.599137889787913
600,11570.0,0.5917215879657753
601,11620.0,0.5822647106881031
602,11670.0,0.5810418334104308
603,11730.0,0.5829503806772242
604,11770.0,0.5705660788550864
605,11830.0,0.5651926261218798
606,11870.0,0.556008324299742
607,11920.0,0.5630184470220697
608,11980.0,0.5447849942888631
609,12030.0,0.5528851170111909
610,12070.0,0.5473748151890531
611,12120.0,0.5468999379113808
612,12180.0,0.5468344851781742
613,12230.0,0.542549607900502
614,12270.0,0.5378553060783642
615,12320.0,0.5337744288006919
616,12370.0,0.5313265515230197
617,12430.0,0.5247280987898131
618,12480.0,0.5226212215121409
619,12530.0,0.5171793442344685
620,12580.0,0.5147994669567963
621,12620.0,0.5112621651346586
622,12670.0,0.5062962878569864
623,12720.0,0.5056184105793142
624,12780.0,0.5043279578461075
625,12830.0,0.4862290805684353
626,12880.0,0.49446520329076304
627,12920.0,0.48895490146862525
628,12980.0,0.4921564487354186
629,13020.0,0.4857611469132809
630,13080.0,0.4863076941800742
631,13130.0,0.4766468169024019
632,13180.0,0.4747439396247297
633,13182.5674,0.47471955562627577
634,13230.0,0.4742700223760448
635,13280.0,0.46624315709116587
636,13320.0,0.46631366486326276
637,13380.0,0.46128142652140797
638,13430.0,0.4621695612365291
639,13470.0,0.4583610690086259
640,13520.0,0.455030203723747
641,13570.0,0.44843233843886804
642,13630.0,0.44585010009701326
643,13670.0,0.44707760786911016
644,13730.0,0.44714936952725537
645,13770.0,0.44517787729935226
646,13820.0,0.4446370120144733
647,13880.0,0.4400817736726186
648,13930.0,0.42708690838773966
649,13970.0,0.4245714161598365
650,14020.0,0.41940355087495756
651,14080.0,0.42185631253310285
