,lambda (Angstroms),Total Flux (erg/s/cm^2/Angstrom)
0,1005.0,0.006261587802395441
1,1015.0,0.006356627323181352
2,1025.0,0.005480606843967261
3,1035.0,0.0058315163647531705
4,1045.0,0.0066764858855390815
5,1055.0,0.006407465406324991
6,1065.0,0.005756004927110902
7,1075.0,0.005941564447896812
8,1085.0,0.005426883968682723
9,1095.0,0.005898253489468632
10,1096.4782,0.005860297677231205
11,1105.0,0.005639848650273701
12,1115.0,0.005498890313352506
13,1125.0,0.0049856919764313095
14,1135.0,0.005459903639510114
15,1145.0,0.0052563353025889175
16,1155.0,0.0051630069656677215
17,1165.0,0.005018658628746526
18,1175.0,0.0038950502918253297
19,1185.0,0.004734691954904133
20,1195.0,0.004358953617982938
21,1205.0,0.0039151752810617415
22,1215.0,0.0036136069441405462
23,1225.0,0.0042320886072193505
24,1235.0,0.004506910270298154
25,1245.0,0.004497971933376958
26,1255.0,0.004382873596455762
27,1258.92541,0.004348110818322378
28,1265.0,0.004296149058820133
29,1275.0,0.00446851952528413
30,1285.0,0.004446259991748127
31,1295.0,0.004010930458212125
32,1305.0,0.0039982009246761225
33,1315.0,0.004278771391140121
34,1325.0,0.004122461857604118
35,1335.0,0.003879722324068115
36,1345.0,0.004094272790532112
37,1355.0,0.003999203256996111
38,1365.0,0.003791863723460108
39,1375.0,0.0037580341899241055
40,1385.0,0.0037058346563881026
41,1395.0,0.0030473051228521
42,1405.0,0.0029808155893160976
43,1415.0,0.0035519560557800956
44,1425.0,0.003464376522244093
45,1435.0,0.0035516769887080904
46,1442.0,0.003609667315232889
47,1445.43977,0.0035853895790257757
48,1447.0,0.003574372521869031
49,1455.0,0.003541837121425538
50,1465.0,0.0033909353708711713
51,1475.0,0.003439423620316804
52,1485.0,0.0034899418697624377
53,1495.0,0.0034853501192080713
54,1505.0,0.0034664683686537042
55,1512.0,0.003325716143265648
56,1517.0,0.0033360102679884642
57,1525.0,0.003432774867544971
58,1535.0,0.003326783116990604
59,1545.0,0.0032085513664362377
60,1555.0,0.0034489296158818706
61,1565.0,0.003608337865327504
62,1575.0,0.004239336114773138
63,1585.0,0.004763494364218771
64,1595.0,0.0049759826136644035
65,1605.0,0.004624320863110037
66,1615.0,0.0051423591125556705
67,1625.0,0.005094207362001304
68,1635.0,0.005413535611446937
69,1645.0,0.006545383860892571
70,1655.0,0.005292062110338203
71,1659.58691,0.006316584351154669
72,1665.0,0.007526214388073792
73,1672.0,0.006248414474014325
74,1677.0,0.009133688821114705
75,1685.0,0.009740321776475316
76,1695.0,0.00916992047067608
77,1705.0,0.009878869164876842
78,1715.0,0.011390857859077603
79,1725.0,0.011922886553278365
80,1735.0,0.013468815247479128
81,1745.0,0.01339524394167989
82,1755.0,0.015383472635880652
83,1765.0,0.012798801330081416
84,1775.0,0.014834730024282178
85,1785.0,0.01584305871848294
86,1795.0,0.0188045874126837
87,1805.0,0.019425016106884463
88,1815.0,0.019712044801085227
89,1825.0,0.019005573495285987
90,1835.0,0.019496802189486753
91,1845.0,0.015904930883687517
92,1855.0,0.019186159577888277
93,1865.0,0.02244018827208904
94,1875.0,0.021965016966289802
95,1885.0,0.022544745660490563
96,1895.0,0.024961774354691327
97,1905.0,0.023908203048892088
98,1905.46072,0.023998242880491315
99,1915.0,0.02585984882565246
100,1925.0,0.024449565025157195
101,1935.0,0.018548081224661936
102,1945.0,0.028243597424166673
103,1955.0,0.02912671362367141
104,1967.0,0.03309211306307709
105,1976.0,0.030919887642631358
106,1984.0,0.03273552060223515
107,1995.0,0.03319657842169036
108,2005.0,0.030799694621195094
109,2015.0,0.03243801082069983
110,2025.0,0.02767292702020457
111,2035.0,0.035041243219709306
112,2045.0,0.03872795941921404
113,2055.0,0.03763077561871878
114,2065.0,0.03618649181822352
115,2074.0,0.04179246639777778
116,2078.0,0.05538153287757967
117,2085.0,0.06066112421723299
118,2095.0,0.056807840416737726
119,2105.0,0.05349905661624247
120,2115.0,0.0591115728157472
121,2125.0,0.05405388901525194
122,2135.0,0.04956100521475668
123,2145.0,0.06132532141426141
124,2155.0,0.060888237613766154
125,2165.0,0.053986253813270886
126,2175.0,0.05490337001277563
127,2185.0,0.06511618621228037
128,2187.7616199999998,0.06590689772436793
129,2195.0,0.06798146285485765
130,2205.0,0.06490692560714427
131,2215.0,0.053394088359430894
132,2225.0,0.059302151111717515
133,2235.0,0.07507741386400414
134,2245.0,0.07031517661629076
135,2255.0,0.05693093936857739
136,2265.0,0.054298702120864024
137,2275.0,0.05977116487315065
138,2285.0,0.07345052762543727
139,2295.0,0.0631148903777239
140,2305.0,0.07406545313001052
141,2315.0,0.06698961588229715
142,2325.0,0.05494597863458378
143,2335.0,0.050809641386870406
144,2345.0,0.03690150413915703
145,2355.0,0.06329266689144365
146,2365.0,0.04056512964373028
147,2375.0,0.05182869239601691
148,2385.0,0.032476355148303535
149,2395.0,0.04052121790059016
150,2405.0,0.040270680652876784
151,2415.0,0.045722843405163416
152,2425.0,0.07115450615745005
153,2435.0,0.07027116890973667
154,2445.0,0.08136463166202329
155,2455.0,0.08422399441430992
156,2465.0,0.07789655716659655
157,2475.0,0.06877901991888316
158,2485.0,0.0509306826711698
159,2495.0,0.05661414542345642
160,2505.0,0.08198460817574305
161,2511.88643,0.04968553865001588
162,2513.0,0.04446242333905323
163,2518.0,0.034860278979862803
164,2525.0,0.03762963687699621
165,2535.0,0.052994948158615364
166,2545.0,0.05667595944023452
167,2555.0,0.08606637072185366
168,2565.0,0.07007408200347282
169,2575.0,0.08545299328509197
170,2585.0,0.07851140456671112
171,2595.0,0.07231831584833028
172,2605.0,0.06381832712994942
173,2615.0,0.05757753841156858
174,2625.0,0.07667204969318774
175,2635.0,0.11294186097480688
176,2645.0,0.14948437225642605
177,2655.0,0.1889538835380452
178,2665.0,0.13294839481966436
179,2675.0,0.1497549061012835
180,2685.0,0.16656341738290265
181,2695.0,0.1289319286645218
182,2705.0,0.15145543994614097
183,2715.0,0.11647695122776011
184,2725.0,0.10388746250937926
185,2735.0,0.12355397379099842
186,2745.0,0.07455658507261757
187,2755.0,0.09619619635423672
188,2765.0,0.12069350763585587
189,2775.0,0.13035701891747503
190,2785.0,0.08673563019909418
191,2795.0,0.03703124148071332
192,2805.0,0.04619705276233248
193,2815.0,0.12116806404395164
194,2825.0,0.16329057532557079
195,2835.0,0.15675708660718995
196,2845.0,0.12681459788880908
197,2855.0,0.08162850917042824
198,2865.0,0.1594776204520474
199,2875.0,0.19227813173366656
200,2884.0315,0.1786943143476608
201,2885.0,0.17723768937899315
202,2895.0,0.20023967937726136
203,2910.0,0.25712966437466367
204,2930.0,0.23045364437120008
205,2950.0,0.21854362436773647
206,2970.0,0.22881960436427287
207,2990.0,0.23249458436080928
208,3010.0,0.23732656435734567
209,3030.0,0.2464455443538821
210,3050.0,0.25746952435041853
211,3070.0,0.2694455043469549
212,3090.0,0.2665194843434913
213,3110.0,0.2914264643400277
214,3130.0,0.27720344433656413
215,3150.0,0.27488942433310054
216,3170.0,0.29673440432963694
217,3190.0,0.26440938432617334
218,3210.0,0.2908813643227098
219,3230.0,0.25331834431924616
220,3250.0,0.3283093243157826
221,3270.0,0.37383530431231893
222,3290.0,0.3673022843088554
223,3310.0,0.3536242643053918
224,3311.31121,0.35401238115395467
225,3330.0,0.35954390567441263
226,3350.0,0.35008452328524564
227,3370.0,0.2823061408960786
228,3390.0,0.31456175850691154
229,3410.0,0.32116237611774456
230,3430.0,0.3374939937285775
231,3450.0,0.3491296113394105
232,3470.0,0.3584522289502434
233,3490.0,0.3895508465610764
234,3510.0,0.4101704641719094
235,3530.0,0.37723408178274237
236,3550.0,0.42793069939357536
237,3570.0,0.3259903170044083
238,3590.0,0.3249009346152413
239,3610.0,0.3821305522260742
240,3630.0,0.3967621698369072
241,3640.0,0.4097589786423237
242,3650.0,0.45405978744774017
243,3670.0,0.46855440505857315
244,3690.0,0.43262402266940614
245,3710.0,0.4636536402802391
246,3730.0,0.3545692578910721
247,3750.0,0.399072875501905
248,3770.0,0.476106493112738
249,3790.0,0.496997110723571
250,3801.8939600000003,0.49513547857749807
251,3810.0,0.49386676062697715
252,3830.0,0.3332664579131467
253,3850.0,0.43731615519931616
254,3870.0,0.43860885248548565
255,3890.0,0.46337854977165516
256,3910.0,0.5525932470578246
257,3930.0,0.3121699443439941
258,3950.0,0.4927076416301636
259,3970.0,0.3454463389163331
260,3990.0,0.6601790362025026
261,4010.0,0.716660733488672
262,4030.0,0.7139384307748415
263,4050.0,0.690800128061011
264,4070.0,0.6616068253471805
265,4090.0,0.7588505226333501
266,4110.0,0.7078122199195195
267,4130.0,0.722783917205689
268,4150.0,0.7166586144918584
269,4170.0,0.7241443117780278
270,4190.0,0.7091720090641974
271,4210.0,0.7159767063503669
272,4230.0,0.6894364036365365
273,4250.0,0.7180181009227059
274,4270.0,0.6846727982088753
275,4290.0,0.6437744954950448
276,4310.0,0.5629291927812143
277,4330.0,0.7561248900673839
278,4350.0,0.7363895873535533
279,4365.15832,0.797250012721896
280,4370.0,0.8166893998378738
281,4390.0,0.7445555729842861
282,4410.0,0.7826647461306984
283,4430.0,0.8343829192771105
284,4450.0,0.8364250924235228
285,4470.0,0.882699265569935
286,4490.0,0.9003924387163472
287,4510.0,1.0004256118627595
288,4530.0,0.8935877850091718
289,4550.0,0.926251958155584
290,4570.0,0.9909001313019962
291,4590.0,0.9439453044484085
292,4610.0,0.9664024775948207
293,4630.0,0.9480286507412329
294,4650.0,0.9595978238876453
295,4670.0,0.9936229970340574
296,4690.0,0.9800121701804697
297,4710.0,0.952112343326882
298,4730.0,0.9820545164732942
299,4750.0,1.0065476896197063
300,4770.0,0.9970258627661187
301,4790.0,0.9963460359125309
302,4810.0,0.9949852090589432
303,4830.0,1.0187983822053555
304,4850.0,0.9630025553517677
305,4870.0,0.8758977284981798
306,4890.0,0.9840979016445921
307,4910.0,0.9854590747910044
308,4930.0,0.9664052479374166
309,4950.0,1.005189421083829
310,4970.0,0.9936255942302411
311,4990.0,0.9303387673766533
312,5010.0,0.8874669405230655
313,5011.87234,0.8921175684415129
314,5030.0,0.9371441452058035
315,5050.0,0.9330613531458135
316,5070.0,0.9698095610858237
317,5090.0,0.9221737690258338
318,5110.0,0.941908976965844
319,5130.0,0.911966184905854
320,5150.0,0.8806633928458641
321,5170.0,0.8248626007858744
322,5190.0,0.8500418087258844
323,5210.0,0.9044820166658946
324,5230.0,0.9596032246059046
325,5250.0,0.9949894325459148
326,5270.0,0.8915526404859249
327,5290.0,1.0038328484259351
328,5310.0,1.0562330563659452
329,5330.0,0.9446332643059553
330,5350.0,1.0228834722459654
331,5370.0,1.0160836801859754
332,5390.0,0.9963518881259856
333,5410.0,0.9807000960659957
334,5430.0,0.9936303040060058
335,5450.0,1.019484511946016
336,5470.0,1.0004347198860262
337,5490.0,1.0051949278260364
338,5510.0,0.9949921357660464
339,5530.0,1.0242553437060564
340,5550.0,1.0371855516460666
341,5570.0,1.0140457595860766
342,5590.0,0.9929509675260868
343,5610.0,1.0235761754660968
344,5630.0,1.018806383406107
345,5650.0,1.0303765913461174
346,5670.0,1.0058767992861273
347,5690.0,1.0337770072261374
348,5710.0,1.0004372151661476
349,5730.0,1.0746074231061578
350,5750.0,1.0392276310461679
351,5754.399369999999,1.0411721983264195
352,5770.0,1.0480680899032102
353,5790.0,1.0120086195187323
354,5810.0,1.0467091491342546
355,5830.0,1.0718896787497767
356,5850.0,1.041270208365299
357,5870.0,1.041270737980821
358,5890.0,0.9371552675963435
359,5910.0,1.0235817972118655
360,5930.0,1.029702326827388
361,5950.0,1.02970285644291
362,5970.0,1.0439933860584323
363,5990.0,1.0283439156739544
364,6010.0,1.0140544452894766
365,6030.0,1.0358249749049988
366,6050.0,1.0528455045205212
367,6070.0,1.0480760341360433
368,6090.0,1.0154165637515655
369,6110.0,1.0181370933670877
370,6130.0,0.9671036229826099
371,6150.0,0.9909221525981321
372,6170.0,0.9460096822136543
373,6190.0,0.9970472118291765
374,6210.0,0.9888817414446988
375,6230.0,0.960302271060221
376,6250.0,0.9317208006757433
377,6270.0,0.9718703302912655
378,6290.0,0.9861618599067876
379,6310.0,0.9623453895223099
380,6330.0,0.9745939191378321
381,6350.0,0.9779974487533543
382,6370.0,0.9725539783688765
383,6390.0,0.9861645079843987
384,6410.0,0.9664310375999209
385,6430.0,0.9739165672154432
386,6450.0,0.9684740968309654
387,6470.0,0.9650716264464876
388,6490.0,0.9466981560620098
389,6510.0,0.975959685677532
390,6530.0,0.9752802152930542
391,6550.0,0.9460197449085764
392,6570.0,0.8813722745240986
393,6590.0,0.9569088041396209
394,6606.93448,0.9655517644457942
395,6610.0,0.967116253044942
396,6630.0,0.9596312560926977
397,6650.0,0.9582702591404534
398,6670.0,0.9392162621882092
399,6690.0,0.9521452652359648
400,6710.0,0.9188002682837205
401,6730.0,0.9398962713314761
402,6750.0,0.9249252743792318
403,6770.0,0.9283272774269875
404,6790.0,0.9188002804747433
405,6810.0,0.9215222835224989
406,6830.0,0.9303692865702545
407,6850.0,0.9085922896180102
408,6870.0,0.9208422926657659
409,6890.0,0.9324102957135215
410,6910.0,0.9283272987612773
411,6930.0,0.922203301809033
412,6950.0,0.9194813048567886
413,6970.0,0.9296883079045443
414,6990.0,0.9249253109523
415,7010.0,0.9113143140000556
416,7030.0,0.9269663170478113
417,7050.0,0.930369320095567
418,7070.0,0.9058713231433226
419,7090.0,0.8827343261910784
420,7110.0,0.8650403292388341
421,7130.0,0.8480283322865897
422,7150.0,0.8453063353343454
423,7170.0,0.8541523383821011
424,7190.0,0.8337383414298567
425,7210.0,0.8514303444776125
426,7230.0,0.8670823475253682
427,7250.0,0.8718453505731238
428,7270.0,0.8759293536208794
429,7290.0,0.8636793566686352
430,7310.0,0.8834143597163909
431,7330.0,0.8854563627641465
432,7350.0,0.8929413658119022
433,7370.0,0.9119953688596579
434,7390.0,0.8956633719074135
435,7410.0,0.8915803749551693
436,7430.0,0.911995378002925
437,7450.0,0.9119953810506806
438,7470.0,0.9228833840984363
439,7490.0,0.920161387146192
440,7510.0,0.9276473901939477
441,7530.0,0.9385353932417033
442,7550.0,0.943979396289459
443,7570.0,0.9385353993372147
444,7585.77575,0.9256529242912465
445,7590.0,0.9222034472554004
446,7610.0,0.9085926627452701
447,7630.0,0.8922618782351398
448,7650.0,0.8766100937250095
449,7670.0,0.8398633092148793
450,7690.0,0.858917524704749
451,7710.0,0.8425857401946187
452,7730.0,0.8453079556844885
453,7750.0,0.8385031711743582
454,7770.0,0.849390386664228
455,7790.0,0.8534736021540976
456,7810.0,0.8527938176439673
457,7830.0,0.8453090331338371
458,7850.0,0.8357822486237069
459,7870.0,0.8487124641135766
460,7890.0,0.8378246796034463
461,7910.0,0.820130895093316
462,7930.0,0.8214921105831858
463,7950.0,0.8160483260730556
464,7970.0,0.8398665415629253
465,7990.0,0.840547757052795
466,8010.0,0.8487139725426648
467,8030.0,0.8507551880325345
468,8050.0,0.8493934035224042
469,8070.0,0.8582406190122739
470,8090.0,0.8500758345021436
471,8110.0,0.8568800499920134
472,8130.0,0.8752542654818831
473,8150.0,0.8813794809717528
474,8170.0,0.8868236964616225
475,8190.0,0.8630059119514922
476,8210.0,0.855520127441362
477,8230.0,0.8596033429312318
478,8250.0,0.8589235584211015
479,8270.0,0.8664087739109712
480,8290.0,0.8582429894008409
481,8310.0,0.8330652048907107
482,8330.0,0.8269404203805804
483,8350.0,0.8283016358704501
484,8370.0,0.8317048513603198
485,8390.0,0.8058450668501895
486,8410.0,0.8296632823400593
487,8430.0,0.794957497829929
488,8450.0,0.7827097133197988
489,8470.0,0.7813489288096684
490,8490.0,0.7847511442995382
491,8510.0,0.7520873597894079
492,8530.0,0.7827105752792777
493,8550.0,0.7160207907691474
494,8570.0,0.8031250062590171
495,8590.0,0.7935982217488868
496,8610.0,0.7997234372387565
497,8630.0,0.8133336527286262
498,8650.0,0.813333868218496
499,8670.0,0.7330340837083659
500,8690.0,0.7949602991982355
501,8709.6359,0.8190135064701113
502,8710.0,0.8194595220002758
503,8730.0,0.8242231391474175
504,8750.0,0.8140167562945592
505,8770.0,0.8283073734417008
506,8790.0,0.8337529905888423
507,8810.0,0.8181016077359841
508,8830.0,0.8255872248831257
509,8850.0,0.8249078420302673
510,8870.0,0.796326459177409
511,8890.0,0.8106180763245506
512,8910.0,0.8181046934716922
513,8930.0,0.8038143106188339
514,8950.0,0.8038149277659755
515,8970.0,0.8072175449131173
516,8990.0,0.8078991620602588
517,9010.0,0.7799997792074005
518,9030.0,0.807900396354542
519,9050.0,0.8283160135016837
520,9070.0,0.8255946306488254
521,9090.0,0.807902247795967
522,9110.0,0.8174298649431087
523,9130.0,0.8289994820902502
524,9150.0,0.8235560992373919
525,9170.0,0.8228757163845336
526,9190.0,0.8296813335316752
527,9210.0,0.8017809506788168
528,9230.0,0.7834085678259585
529,9250.0,0.7840901849731001
530,9270.0,0.7881738021202417
531,9290.0,0.7800084192673834
532,9310.0,0.7847720364145251
533,9330.0,0.7840926535616667
534,9350.0,0.7806902707088083
535,9370.0,0.7684418878559499
536,9390.0,0.7800115050030916
537,9410.0,0.7643601221502333
538,9430.0,0.7813737392973749
539,9450.0,0.7704863564445165
540,9470.0,0.7847769735916581
541,9490.0,0.7854585907387998
542,9510.0,0.7752512078859414
543,9530.0,0.7772938250330831
544,9550.0,0.7589204421802247
545,9570.0,0.7691290593273664
546,9590.0,0.781378676474508
547,9610.0,0.7711712936216496
548,9630.0,0.7738939107687912
549,9650.0,0.7602845279159329
550,9670.0,0.7602851450630745
551,9690.0,0.7704937622102161
552,9710.0,0.7609663793573578
553,9730.0,0.7541619965044993
554,9750.0,0.7514406136516412
555,9770.0,0.7541632307987827
556,9790.0,0.7432758479459244
557,9810.0,0.7596084650930659
558,9830.0,0.7528040822402077
559,9850.0,0.7575686993873493
560,9870.0,0.751444316534491
561,9890.0,0.7500839336816325
562,9910.0,0.7446405508287742
563,9930.0,0.7473631679759158
564,9950.0,0.7480447851230575
565,9970.0,0.7473644022701991
566,9990.0,0.7446430194173408
567,10000.0,0.7434523279909115
568,10030.0,0.7398802561600681
569,10070.0,0.7296754937189434
570,10130.0,0.7351203500572565
571,10170.0,0.7255955876161319
572,10220.0,0.7255971345647261
573,10280.0,0.7249179909030391
574,10320.0,0.7147112284619144
575,10380.0,0.7085890848002274
576,10430.0,0.7099516317488217
577,10480.0,0.7004261786974159
578,10520.0,0.6956634162562912
579,10580.0,0.6840962725946044
580,10630.0,0.6783818195431984
581,10680.0,0.6687893664917927
582,10720.0,0.6704916040506681
583,10780.0,0.6643684603889811
584,10820.0,0.6542986979478566
585,10870.0,0.6519182448964507
586,10920.0,0.6486527918450449
587,10980.0,0.641373648183358
588,11020.0,0.6387888857422332
589,11080.0,0.6313047420805463
590,11130.0,0.6273592890291406
591,11170.0,0.6214405265880159
592,11220.0,0.62042107353661
593,11280.0,0.6114409298749232
594,11330.0,0.6094004768235174
595,11380.0,0.6042310237721116
596,11430.0,0.5968145707207057
597,11470.0,0.602259808279581
598,11481.5362,0.6016714344577485
599,11530.0,0.5992010457030783
600,11570.0,0.5917854231520855
601,11620.0,0.5823293949633443
602,11670.0,0.5811073667746032
603,11730.0,0.5830169329481139
604,11770.0,0.570633310397121
605,11830.0,0.5652608765706316
606,11870.0,0.5560772540196387
607,11920.0,0.5630882258308977
608,11980.0,0.5448557920044083
609,12030.0,0.5529567638156672
610,12070.0,0.5474471412646742
611,12120.0,0.5469731130759332
612,12180.0,0.5469086792494439
613,12230.0,0.5426246510607028
614,12270.0,0.5379310285097099
615,12320.0,0.5338510003209688
616,12370.0,0.5314039721322276
617,12430.0,0.5248065383057383
618,12480.0,0.5227005101169971
619,12530.0,0.517259481928256
620,12580.0,0.514880453739515
621,12620.0,0.5113438311885221
622,12670.0,0.506378802999781
623,12720.0,0.5057017748110398
624,12780.0,0.5044123409845506
625,12830.0,0.4863143127958094
626,12880.0,0.49455128460706826
627,12920.0,0.48904166205607535
628,12980.0,0.492244228229586
629,13020.0,0.4858496056785932
630,13080.0,0.48639717185210385
631,13130.0,0.4767371436633627
632,13180.0,0.4748351154746216
633,13182.5674,0.4748107750751861
634,13230.0,0.4743624313264627
635,13280.0,0.4663368199276322
636,13320.0,0.4664083308085678
637,13380.0,0.4613775971299712
638,13430.0,0.46226698573114067
639,13470.0,0.45845949661207624
640,13520.0,0.4551298852132457
641,13570.0,0.44853327381441527
642,13630.0,0.4459525401358186
643,13670.0,0.4471810510167542
644,13730.0,0.44725431733815757
645,13770.0,0.4452838282190932
646,13820.0,0.44474421682026266
647,13880.0,0.44019048314166603
648,13930.0,0.42719687174283555
649,13970.0,0.4246823826237711
650,14020.0,0.4195157712249406
651,14080.0,0.421970037546344
