,lambda (Angstroms),Total Flux (erg/s/cm^2/Angstrom)
0,1005.0,2.898456000594365
1,1015.0,2.8626015591681515
2,1025.0,2.825776057741939
3,1035.0,2.790177486315726
4,1045.0,2.755072974889513
5,1055.0,2.7188544734633
6,1065.0,2.6822535320370875
7,1075.0,2.6464896106108746
8,1085.0,2.6100254491846613
9,1095.0,2.5745473377584487
10,1096.4782,2.5691953296726253
11,1105.0,2.543893850733834
12,1115.0,2.5143212818077942
13,1125.0,2.4843764728817552
14,1135.0,2.455419073955716
15,1145.0,2.425783895029677
16,1155.0,2.3962589561036376
17,1165.0,2.3666829971775982
18,1175.0,2.336127778251559
19,1185.0,2.3075358093255196
20,1195.0,2.2777284603994805
21,1205.0,2.2478530714734415
22,1215.0,2.2181198925474024
23,1225.0,2.189306763621363
24,1235.0,2.1601499746953237
25,1245.0,2.1307094257692842
26,1255.0,2.101162716843245
27,1258.92541,2.089574840212849
28,1265.0,2.076776253489579
29,1275.0,2.0559651090788766
30,1285.0,2.034959334668175
31,1295.0,2.013540490257473
32,1305.0,1.9925442458467713
33,1315.0,1.9718413014360694
34,1325.0,1.950701477025368
35,1335.0,1.929475222614666
36,1345.0,1.9087062582039642
37,1355.0,1.8876276737932627
38,1365.0,1.8664368193825611
39,1375.0,1.845419474971859
40,1385.0,1.8243837605611573
41,1395.0,1.8027417161504558
42,1405.0,1.781691711739754
43,1415.0,1.7612793373290523
44,1425.0,1.7402082429183503
45,1435.0,1.7193120285076486
46,1442.0,1.7046815584201578
47,1445.43977,1.6974394341870478
48,1447.0,1.6951431842187143
49,1455.0,1.6833932332517116
50,1465.0,1.6685955620429582
51,1475.0,1.6539972808342054
52,1485.0,1.639401029625452
53,1495.0,1.6247496684166987
54,1505.0,1.6100840172079454
55,1512.0,1.599690526361818
56,1517.0,1.5923774357574416
57,1525.0,1.580756784790439
58,1535.0,1.5660040235816854
59,1545.0,1.5512390223729324
60,1555.0,1.5368326311641791
61,1565.0,1.5223452699554256
62,1575.0,1.5083294987466724
63,1585.0,1.4942068875379193
64,1595.0,1.479772606329166
65,1605.0,1.4647741751204126
66,1615.0,1.4506454439116594
67,1625.0,1.4359505227029061
68,1635.0,1.4216230814941528
69,1645.0,1.4081081602853995
70,1655.0,1.3922080690766465
71,1659.58691,1.3865142499879122
72,1665.0,1.3821703312718943
73,1672.0,1.373710895495405
74,1677.0,1.37146642994077
75,1685.0,1.3638654790533535
76,1695.0,1.3530355979440833
77,1705.0,1.3434850668348133
78,1715.0,1.3347375757255426
79,1725.0,1.3250101246162724
80,1735.0,1.3162965735070022
81,1745.0,1.305963522397732
82,1755.0,1.2976922712884615
83,1765.0,1.2848481201791913
84,1775.0,1.2766245690699212
85,1785.0,1.2673734179606506
86,1795.0,1.2600754668513803
87,1805.0,1.2504364157421104
88,1815.0,1.2404639646328401
89,1825.0,1.2294980135235698
90,1835.0,1.2197297624142995
91,1845.0,1.2058784113050292
92,1855.0,1.198900160195759
93,1865.0,1.1918947090864886
94,1875.0,1.1811600579772183
95,1885.0,1.1714803068679482
96,1895.0,1.1636378557586777
97,1905.0,1.1523248046494075
98,1905.46072,1.1519421697275012
99,1915.0,1.1466342094751085
100,1925.0,1.137708089890829
101,1935.0,1.1242907703065497
102,1945.0,1.1264704507222698
103,1955.0,1.1198377311379903
104,1967.0,1.1147841276368546
105,1976.0,1.105847650011003
106,1984.0,1.1016506143435794
107,1995.0,1.093844252800872
108,2005.0,1.0839315332165922
109,2015.0,1.0780540136323127
110,2025.0,1.0657730940480332
111,2035.0,1.0656255744637537
112,2045.0,1.0617964548794738
113,2055.0,1.0531834352951945
114,2065.0,1.0442233157109149
115,2074.0,1.0430650380850632
116,2078.0,1.0536477702513511
117,2085.0,1.0536662765423557
118,2095.0,1.0422971569580761
119,2105.0,1.0314725373737965
120,2115.0,1.0295692177895168
121,2125.0,1.0169956982052373
122,2135.0,1.004986978620958
123,2145.0,1.009235459036678
124,2155.0,1.0012825394523985
125,2165.0,0.9868647198681189
126,2175.0,0.9802660002838395
127,2185.0,0.9829629806995599
128,2187.7616199999998,0.981678103969926
129,2195.0,0.980070387672534
130,2205.0,0.9719086880654505
131,2215.0,0.9553086884583669
132,2225.0,0.9561295888512833
133,2235.0,0.9668176892441998
134,2245.0,0.9569682896371161
135,2255.0,0.9384968900300327
136,2265.0,0.9307774904229491
137,2275.0,0.9311627908158654
138,2285.0,0.939754991208782
139,2295.0,0.9243321916016984
140,2305.0,0.9301955919946148
141,2315.0,0.9180325923875313
142,2325.0,0.9009017927804478
143,2335.0,0.8916782931733642
144,2345.0,0.8726829935662808
145,2355.0,0.8939869939591971
146,2365.0,0.8661722943521136
147,2375.0,0.87234869474503
148,2385.0,0.8479091951379465
149,2395.0,0.8508668955308629
150,2405.0,0.8455291959237794
151,2415.0,0.8458941963166959
152,2425.0,0.8662386967096122
153,2435.0,0.8602681971025287
154,2445.0,0.866274497495445
155,2455.0,0.8640466978883615
156,2465.0,0.8526320982812781
157,2475.0,0.8384273986741945
158,2485.0,0.8154918990671108
159,2495.0,0.8160881994600274
160,2505.0,0.8363714998529437
161,2511.88643,0.8005691915785729
162,2513.0,0.7949241515006031
163,2518.0,0.7834275381497592
164,2525.0,0.7835446394585776
165,2535.0,0.7951210127568896
166,2545.0,0.7950130860552016
167,2555.0,0.8206145593535137
168,2565.0,0.8008333326518257
169,2575.0,0.8124233059501378
170,2585.0,0.8016927792484497
171,2595.0,0.7917107525467618
172,2605.0,0.7794218258450738
173,2615.0,0.7693920991433857
174,2625.0,0.7846976724416977
175,2635.0,0.8171785457400098
176,2645.0,0.8499321190383218
177,2655.0,0.8856126923366339
178,2665.0,0.8258182656349459
179,2675.0,0.838835838933258
180,2685.0,0.8518554122315699
181,2695.0,0.810434985529882
182,2705.0,0.829169558828194
183,2715.0,0.7904021321265059
184,2725.0,0.7740237054248179
185,2735.0,0.78990127872313
186,2745.0,0.737114952021442
187,2755.0,0.7549656253197541
188,2765.0,0.7756739986180661
189,2775.0,0.7815485719163782
190,2785.0,0.7341382452146901
191,2795.0,0.6806449185130021
192,2805.0,0.6860217918113142
193,2815.0,0.7572038651096262
194,2825.0,0.7955374384079382
195,2835.0,0.7852150117062502
196,2845.0,0.7514835850045621
197,2855.0,0.7025085583028743
198,2865.0,0.7765687316011862
199,2875.0,0.8055803048994983
200,2884.0315,0.7885745081738686
201,2885.0,0.7868586897897774
202,2895.0,0.8071844442132021
203,2910.0,0.8600600758483392
204,2930.0,0.8280315846951886
205,2950.0,0.8107690935420379
206,2970.0,0.8156926023888873
207,2990.0,0.8140151112357368
208,3010.0,0.8134946200825861
209,3030.0,0.8172611289294355
210,3050.0,0.8229326377762848
211,3070.0,0.8295561466231343
212,3090.0,0.8212776554699837
213,3110.0,0.840832164316833
214,3130.0,0.8212566731636823
215,3150.0,0.8135901820105317
216,3170.0,0.8300826908573812
217,3190.0,0.7924051997042305
218,3210.0,0.8135247085510798
219,3230.0,0.7706092173979292
220,3250.0,0.8402477262447787
221,3270.0,0.8804212350916281
222,3290.0,0.8685357439384773
223,3310.0,0.8495052527853268
224,3311.31121,0.8495424589490805
225,3330.0,0.8515316359957292
226,3350.0,0.8382813741822556
227,3370.0,0.7667121123687819
228,3390.0,0.7951768505553083
229,3410.0,0.7979865887418345
230,3430.0,0.8105273269283608
231,3450.0,0.8183720651148871
232,3470.0,0.8239038033014136
233,3490.0,0.85121154148794
234,3510.0,0.8680402796744664
235,3530.0,0.8313130178609927
236,3550.0,0.878218756047519
237,3570.0,0.7724874942340453
238,3590.0,0.7676072324205716
239,3610.0,0.8210459706070979
240,3630.0,0.8318867087936244
241,3640.0,0.8429880778868875
242,3650.0,0.8853934469801505
243,3670.0,0.896097185166677
244,3690.0,0.8563759233532033
245,3710.0,0.8836146615397296
246,3730.0,0.7707393997262559
247,3750.0,0.8114521379127824
248,3770.0,0.8846948760993086
249,3790.0,0.9017946142858351
250,3801.8939600000003,0.8976785537278857
251,3810.0,0.8953190139852555
252,3830.0,0.7320273310361698
253,3850.0,0.833385648087084
254,3870.0,0.8319869651379983
255,3890.0,0.8540652821889125
256,3910.0,0.9405885992398269
257,3930.0,0.6974739162907411
258,3950.0,0.8753202333416554
259,3970.0,0.7253675503925696
260,3990.0,1.0374088674434838
261,4010.0,1.091199184494398
262,4030.0,1.0857855015453124
263,4050.0,1.0599558185962268
264,4070.0,1.028071135647141
265,4090.0,1.1226234526980554
266,4110.0,1.0688937697489695
267,4130.0,1.0811740867998838
268,4150.0,1.072357403850798
269,4170.0,1.0771517209017123
270,4190.0,1.0594880379526266
271,4210.0,1.063601355003541
272,4230.0,1.034369672054455
273,4250.0,1.0602599891053694
274,4270.0,1.0242233061562835
275,4290.0,0.9806336232071979
276,4310.0,0.8970969402581122
277,4330.0,1.0876012573090266
278,4350.0,1.0651745743599408
279,4365.15832,1.1239951595858997
280,4370.0,1.1429753871348465
281,4390.0,1.068944865055506
282,4410.0,1.1051573429761654
283,4430.0,1.1549788208968248
284,4450.0,1.1551242988174844
285,4470.0,1.1995017767381437
286,4490.0,1.2152982546588034
287,4510.0,1.3134347325794629
288,4530.0,1.2047002105001223
289,4550.0,1.2354676884207818
290,4570.0,1.2982191663414413
291,4590.0,1.249367644262101
292,4610.0,1.26992812218276
293,4630.0,1.2496576001034196
294,4650.0,1.2593300780240793
295,4670.0,1.2914585559447387
296,4690.0,1.275951033865398
297,4710.0,1.2461545117860577
298,4730.0,1.274199989706717
299,4750.0,1.2967964676273764
300,4770.0,1.285377945548036
301,4790.0,1.2828014234686955
302,4810.0,1.279543901389355
303,4830.0,1.3014603793100146
304,4850.0,1.243767857230674
305,4870.0,1.1547663351513335
306,4890.0,1.261069813071993
307,4910.0,1.2605342909926525
308,4930.0,1.239583768913312
309,4950.0,1.2764712468339716
310,4970.0,1.263010724754631
311,4990.0,1.1978272026752905
312,5010.0,1.15305868059595
313,5011.87234,1.1575317455974479
314,5030.0,1.2013430554064102
315,5050.0,1.1959194758919682
316,5070.0,1.2313268963775266
317,5090.0,1.1823503168630847
318,5110.0,1.200744737348643
319,5130.0,1.1694611578342013
320,5150.0,1.1368175783197596
321,5170.0,1.079675998805318
322,5190.0,1.1035144192908761
323,5210.0,1.1566138397764343
324,5230.0,1.2103942602619926
325,5250.0,1.2444396807475508
326,5270.0,1.1396621012331092
327,5290.0,1.2506015217186675
328,5310.0,1.3016609422042258
329,5330.0,1.188720362689784
330,5350.0,1.2656297831753422
331,5370.0,1.2574892036609004
332,5390.0,1.2364166241464587
333,5410.0,1.2194240446320168
334,5430.0,1.2310134651175753
335,5450.0,1.2555268856031334
336,5470.0,1.2351363060886917
337,5490.0,1.23855572657425
338,5510.0,1.227012147059808
339,5530.0,1.2549345675453665
340,5550.0,1.266523988030925
341,5570.0,1.2420434085164829
342,5590.0,1.2196078290020413
343,5610.0,1.2488922494875994
344,5630.0,1.2427816699731578
345,5650.0,1.2530110904587162
346,5670.0,1.227170510944274
347,5690.0,1.2537299314298325
348,5710.0,1.2190493519153907
349,5730.0,1.291878772400949
350,5750.0,1.2551581928865074
351,5754.399369999999,1.2568078291615845
352,5770.0,1.262961496757561
353,5790.0,1.225950495594116
354,5810.0,1.2596994944306708
355,5830.0,1.2839284932672257
356,5850.0,1.2523574921037803
357,5870.0,1.2514064909403353
358,5890.0,1.1463394897768904
359,5910.0,1.231814488613445
360,5930.0,1.23698348745
361,5950.0,1.2360324862865548
362,5970.0,1.2493714851231097
363,5990.0,1.2327704839596647
364,6010.0,1.2175294827962193
365,6030.0,1.2383484816327743
366,6050.0,1.2544174804693293
367,6070.0,1.2486964793058841
368,6090.0,1.215085478142439
369,6110.0,1.216854476978994
370,6130.0,1.1648694758155487
371,6150.0,1.1877364746521035
372,6170.0,1.1418724734886585
373,6190.0,1.1919584723252132
374,6210.0,1.1828414711617683
375,6230.0,1.1533104699983232
376,6250.0,1.123777468834878
377,6270.0,1.162975467671433
378,6290.0,1.1763154665079878
379,6310.0,1.1515474653445426
380,6330.0,1.1628444641810975
381,6350.0,1.1652964630176523
382,6370.0,1.1589014618542073
383,6390.0,1.1715604606907621
384,6410.0,1.150875459527317
385,6430.0,1.1574094583638719
386,6450.0,1.1510154572004268
387,6470.0,1.1466614560369817
388,6490.0,1.1273364548735365
389,6510.0,1.1556464537100914
390,6530.0,1.1540154525466462
391,6550.0,1.1238034513832011
392,6570.0,1.058204450219756
393,6590.0,1.1327894490563108
394,6606.93448,1.1406267254151938
395,6610.0,1.142089621319751
396,6630.0,1.1339418154829404
397,6650.0,1.1319180096461299
398,6670.0,1.1122012038093194
399,6690.0,1.124467397972509
400,6710.0,1.0904595921356985
401,6730.0,1.1108927862988878
402,6750.0,1.0952589804620774
403,6770.0,1.097998174625267
404,6790.0,1.0878083687884565
405,6810.0,1.0898675629516459
406,6830.0,1.0980517571148354
407,6850.0,1.0756119512780247
408,6870.0,1.0871991454412144
409,6890.0,1.0981043396044037
410,6910.0,1.0933585337675933
411,6930.0,1.0865717279307827
412,6950.0,1.0831869220939723
413,6970.0,1.0927311162571618
414,6990.0,1.0873053104203512
415,7010.0,1.0730315045835406
416,7030.0,1.0880206987467302
417,7050.0,1.0907608929099197
418,7070.0,1.065600087073109
419,7090.0,1.0418002812362988
420,7110.0,1.023443475399488
421,7130.0,1.0057686695626777
422,7150.0,1.002383863725867
423,7170.0,1.0105670578890567
424,7190.0,0.989490252052246
425,7210.0,1.0065194462154357
426,7230.0,1.021508640378625
427,7250.0,1.0256088345418146
428,7270.0,1.029030028705004
429,7290.0,1.0161172228681936
430,7310.0,1.0351894170313831
431,7330.0,1.0365686111945724
432,7350.0,1.043390805357762
433,7370.0,1.0617819995209514
434,7390.0,1.0447871936841409
435,7410.0,1.0400413878473305
436,7430.0,1.05979358201052
437,7450.0,1.0591307761737094
438,7470.0,1.0693559703368989
439,7490.0,1.0659711645000884
440,7510.0,1.0727943586632778
441,7530.0,1.0830195528264674
442,7550.0,1.087800746989657
443,7570.0,1.0816939411528463
444,7585.77575,1.0682886507438434
445,7590.0,1.064742039750706
446,7610.0,1.0506713678887794
447,7630.0,1.0338806960268527
448,7650.0,1.017769024164926
449,7670.0,0.9805623523029995
450,7690.0,0.9991566804410729
451,7710.0,0.9823650085791462
452,7730.0,0.9846273367172196
453,7750.0,0.977362664855293
454,7770.0,0.9877899929933663
455,7790.0,0.9914133211314398
456,7810.0,0.990273649269513
457,7830.0,0.9823289774075865
458,7850.0,0.9723423055456599
459,7870.0,0.9848126336837333
460,7890.0,0.9734649618218066
461,7910.0,0.95531128995988
462,7930.0,0.9562126180979533
463,7950.0,0.9503089462360267
464,7970.0,0.9736672743741001
465,7990.0,0.9738886025121735
466,8010.0,0.9815949306502468
467,8030.0,0.9831762587883202
468,8050.0,0.9813545869263935
469,8070.0,0.9897419150644668
470,8090.0,0.9811172432025403
471,8110.0,0.9874615713406137
472,8130.0,1.005375899478687
473,8150.0,1.0110412276167604
474,8170.0,1.0160255557548337
475,8190.0,0.9917478838929071
476,8210.0,0.9838022120309805
477,8230.0,0.9874255401690539
478,8250.0,0.9862858683071273
479,8270.0,0.9933111964452006
480,8290.0,0.984685524583274
481,8310.0,0.9590478527213475
482,8330.0,0.9524631808594208
483,8350.0,0.9533645089974943
484,8370.0,0.9563078371355676
485,8390.0,0.9299881652736409
486,8410.0,0.9533464934117143
487,8430.0,0.9181808215497876
488,8450.0,0.9054731496878611
489,8470.0,0.9036524778259344
490,8490.0,0.9065948059640078
491,8510.0,0.8734711341020811
492,8530.0,0.9036344622401545
493,8550.0,0.8364847903782279
494,8570.0,0.9231291185163013
495,8590.0,0.9131424466543747
496,8610.0,0.918807774792448
497,8630.0,0.9319581029305214
498,8650.0,0.9314984310685948
499,8670.0,0.8507387592066682
500,8690.0,0.9122050873447415
501,8709.6359,0.9358067795140604
502,8710.0,0.9362472786826463
503,8730.0,0.9407078822852337
504,8750.0,0.9301984858878211
505,8770.0,0.9441860894904085
506,8790.0,0.9493286930929957
507,8810.0,0.9333742966955831
508,8830.0,0.9405569002981706
509,8850.0,0.9395745039007579
510,8870.0,0.9106901075033453
511,8890.0,0.9246787111059326
512,8910.0,0.93186231470852
513,8930.0,0.9172689183111074
514,8950.0,0.9169665219136948
515,8970.0,0.9200661255162821
516,8990.0,0.9204447291188694
517,9010.0,0.8922423327214568
518,9030.0,0.9198399363240441
519,9050.0,0.9399525399266315
520,9070.0,0.9369281435292189
521,9090.0,0.9189327471318063
522,9110.0,0.9281573507343936
523,9130.0,0.939423954336981
524,9150.0,0.9336775579395683
525,9170.0,0.9326941615421558
526,9190.0,0.939196765144743
527,9210.0,0.9109933687473305
528,9230.0,0.8923179723499177
529,9250.0,0.8926965759525052
530,9270.0,0.8964771795550925
531,9290.0,0.88800878315768
532,9310.0,0.8924693867602673
533,9330.0,0.8914869903628546
534,9350.0,0.887781593965442
535,9370.0,0.8752301975680293
536,9390.0,0.8864968011706168
537,9410.0,0.8705424047732041
538,9430.0,0.8872530083757915
539,9450.0,0.8760626119783788
540,9470.0,0.8900502155809662
541,9490.0,0.8904288191835534
542,9510.0,0.8799184227861409
543,9530.0,0.8816580263887284
544,9550.0,0.8629816299913157
545,9570.0,0.8728872335939031
546,9590.0,0.8848338371964903
547,9610.0,0.8743234407990778
548,9630.0,0.8767430444016651
549,9650.0,0.8628306480042525
550,9670.0,0.8625282516068398
551,9690.0,0.8724338552094272
552,9710.0,0.8626034588120145
553,9730.0,0.8554960624146019
554,9750.0,0.8524716660171894
555,9770.0,0.8548912696197766
556,9790.0,0.8437008732223641
557,9810.0,0.8597304768249513
558,9830.0,0.8526230804275388
559,9850.0,0.857084684030126
560,9870.0,0.8506572876327135
561,9890.0,0.8489938912353008
562,9910.0,0.8432474948378882
563,9930.0,0.8456670984404755
564,9950.0,0.846045702043063
565,9970.0,0.8450623056456503
566,9990.0,0.8420379092482376
567,10000.0,0.8406957110495312
568,10030.0,0.836845030085666
569,10070.0,0.8262687888005122
570,10130.0,0.8311564268727817
571,10170.0,0.8212601855876278
572,10220.0,0.8207973839811856
573,10280.0,0.8195610220534549
574,10320.0,0.8089827807683012
575,10380.0,0.8023034188405705
576,10430.0,0.8032016172341283
577,10480.0,0.7932118156276861
578,10520.0,0.7880775743425323
579,10580.0,0.7759532124148018
580,10630.0,0.7697744108083595
581,10680.0,0.7597176092019173
582,10720.0,0.7610483679167636
583,10780.0,0.7543680059890329
584,10820.0,0.7439267647038792
585,10870.0,0.741081963097437
586,10920.0,0.7373521614909948
587,10980.0,0.7295157995632642
588,11020.0,0.7265595582781103
589,11080.0,0.7185181963503796
590,11130.0,0.7141083947439375
591,11170.0,0.7078181534587837
592,11220.0,0.7063343518523415
593,11280.0,0.6967969899246109
594,11330.0,0.6942921883181686
595,11380.0,0.6886583867117264
596,11430.0,0.6807775851052842
597,11470.0,0.6858513438201305
598,11481.5362,0.6851558336422856
599,11530.0,0.6824487278822998
600,11570.0,0.6748377289841649
601,11620.0,0.6651374803614962
602,11670.0,0.6636712317388275
603,11730.0,0.6652877333916251
604,11770.0,0.6527087344934901
605,11830.0,0.6470432361462877
606,11870.0,0.6376642372481527
607,11920.0,0.644430988625484
608,11980.0,0.6259054902782815
609,12030.0,0.6337622416556128
610,12070.0,0.6280572427574778
611,12120.0,0.6273389941348091
612,12180.0,0.6269814957876068
613,12230.0,0.622453247164938
614,12270.0,0.617564248266803
615,12320.0,0.6132399996441343
616,12370.0,0.6105487510214656
617,12430.0,0.6036582526742632
618,12480.0,0.6013080040515945
619,12530.0,0.5956227554289257
620,12580.0,0.592999506806257
621,12620.0,0.5892675079081221
622,12670.0,0.5840582592854534
623,12720.0,0.5831370106627847
624,12780.0,0.5815545123155823
625,12830.0,0.5632122636929136
626,12880.0,0.5712050150702448
627,12920.0,0.5655000161721099
628,12980.0,0.5684095178249075
629,13020.0,0.5618195189267725
630,13080.0,0.56207402057957
631,13130.0,0.5521697719569013
632,13180.0,0.5500235233342325
633,13182.5674,0.5499866427039558
634,13230.0,0.5494556235849358
635,13280.0,0.5413428618187456
636,13320.0,0.5413446524057933
637,13380.0,0.536209338286365
638,13430.0,0.5370115765201747
639,13470.0,0.5331343671072224
640,13520.0,0.5297176053410322
641,13570.0,0.523033843574842
642,13630.0,0.5203485294554135
643,13670.0,0.5215073200424614
644,13730.0,0.5214760059230329
645,13770.0,0.5194357965100808
646,13820.0,0.5188090347438905
647,13880.0,0.5141507206244621
648,13930.0,0.5010699588582719
649,13970.0,0.49848574944531954
650,14020.0,0.4932319876791293
651,14080.0,0.49558167355970095
652,14120.0,0.49027546414674866
653,14180.0,0.49310315002732036
654,14230.0,0.48757638826113003
655,14280.0,0.48130062649493977
656,14330.0,0.48734186472874946
657,14380.0,0.4887571029625592
658,14420.0,0.4786868935496069
659,14480.0,0.48491657943017863
660,14520.0,0.4804263700172264
661,14570.0,0.48184160825103606
662,14620.0,0.4753618464848458
663,14670.0,0.4730330847186555
664,14720.0,0.4683233229524652
665,14770.0,0.4700095611862749
