,lambda (Angstroms),Total Flux (erg/s/cm^2/Angstrom)
0,1005.0,0.9702323068647883
1,1015.0,0.958344786389384
2,1025.0,0.9454862059139798
3,1035.0,0.9338545554385753
4,1045.0,0.9227169649631711
5,1055.0,0.9104653844877668
6,1065.0,0.8978313640123625
7,1075.0,0.8860343635369583
8,1085.0,0.873537123061554
9,1095.0,0.8620259325861497
10,1096.4782,0.8602167147552754
11,1105.0,0.8516375235779446
12,1115.0,0.8416879072692649
13,1125.0,0.8313660509605851
14,1135.0,0.8220316046519053
15,1145.0,0.8120193783432257
16,1155.0,0.8021173920345459
17,1165.0,0.7921643857258662
18,1175.0,0.7812321194171865
19,1185.0,0.7722631031085068
20,1195.0,0.7620787067998268
21,1205.0,0.7518262704911471
22,1215.0,0.7417160441824674
23,1225.0,0.7325258678737877
24,1235.0,0.7229920315651079
25,1245.0,0.7131744352564281
26,1255.0,0.7032506789477485
27,1258.92541,0.699365615760723
28,1265.0,0.6950646978298596
29,1275.0,0.688242429692959
30,1285.0,0.6812255315560585
31,1295.0,0.6737955634191577
32,1305.0,0.6667881952822572
33,1315.0,0.6600741271453565
34,1325.0,0.6529231790084561
35,1335.0,0.6456858008715555
36,1345.0,0.6389057127346549
37,1355.0,0.6318160045977544
38,1365.0,0.6246140264608537
39,1375.0,0.6175855583239531
40,1385.0,0.6105387201870525
41,1395.0,0.602885552050152
42,1405.0,0.5958244239132514
43,1415.0,0.5894009257763508
44,1425.0,0.5823187076394503
45,1435.0,0.5754113695025497
46,1442.0,0.5705731128067193
47,1445.43977,0.5681428402676426
48,1447.0,0.5673700614062381
49,1455.0,0.563431631083904
50,1465.0,0.5583983606809861
51,1475.0,0.5535644802780685
52,1485.0,0.5487326298751507
53,1495.0,0.543845669472233
54,1505.0,0.5389444190693151
55,1512.0,0.5353860087872728
56,1517.0,0.532955118585814
57,1525.0,0.5291459882634797
58,1535.0,0.5241576278605619
59,1545.0,0.5191570274576442
60,1555.0,0.5145150370547265
61,1565.0,0.5097920766518087
62,1575.0,0.5055407062488908
63,1585.0,0.5011824958459732
64,1595.0,0.4965126154430554
65,1605.0,0.4912785850401376
66,1615.0,0.4869142546372198
67,1625.0,0.48198373423430213
68,1635.0,0.47742069383138436
69,1645.0,0.47367017342846657
70,1655.0,0.4675344830255489
71,1659.58691,0.4663195067068441
72,1665.0,0.4656775104239648
73,1672.0,0.46200525849846835
74,1677.0,0.46318020998025666
75,1685.0,0.4610503263511179
76,1695.0,0.4570592793146945
77,1705.0,0.4543475822782711
78,1715.0,0.45243892524184764
79,1725.0,0.44955030820542424
80,1735.0,0.4476755911690008
81,1745.0,0.44418137413257736
82,1755.0,0.4427489570961539
83,1765.0,0.43674364005973054
84,1775.0,0.4353589230233071
85,1785.0,0.4329466059868836
86,1795.0,0.4324874889504602
87,1805.0,0.4296872719140369
88,1815.0,0.42655365487761343
89,1825.0,0.42242653784118994
90,1835.0,0.41949712080476653
91,1845.0,0.41248460376834317
92,1855.0,0.4123451867319197
93,1865.0,0.41217856969549627
94,1875.0,0.4082827526590728
95,1885.0,0.40544183562264946
96,1895.0,0.404438218586226
97,1905.0,0.39996400154980255
98,1905.46072,0.3998964453913005
99,1915.0,0.3993692031583696
100,1925.0,0.3954546966302764
101,1935.0,0.38704899010218324
102,1945.0,0.39424028357409
103,1955.0,0.3926191770459968
104,1967.0,0.39357950921228496
105,1976.0,0.3891534833370011
106,1984.0,0.38896573811452656
107,1995.0,0.38667215093362406
108,2005.0,0.38177104440553083
109,2015.0,0.3809051378774376
110,2025.0,0.37363583134934447
111,2035.0,0.3784999248212513
112,2045.0,0.379682418293158
113,2055.0,0.3760810117650649
114,2065.0,0.3721325052369716
115,2074.0,0.37548467936168783
116,2078.0,0.3880720567504505
117,2085.0,0.39159869218078525
118,2095.0,0.3852411856526921
119,2105.0,0.37942817912459886
120,2115.0,0.3825364725965057
121,2125.0,0.3749745660684125
122,2135.0,0.3679774595403193
123,2145.0,0.37723755301222606
124,2155.0,0.37429624648413296
125,2165.0,0.36489003995603964
126,2175.0,0.36330293342794656
127,2185.0,0.3710115268998533
128,2187.7616199999998,0.371110667255042
129,2195.0,0.37195719589084475
130,2205.0,0.36718609602181684
131,2215.0,0.353976696152789
132,2225.0,0.35818819628376114
133,2235.0,0.37226689641473326
134,2245.0,0.36580809654570545
135,2255.0,0.35072729667667757
136,2265.0,0.3463984968076498
137,2275.0,0.3501743969386219
138,2285.0,0.36215719706959404
139,2295.0,0.35012499720056617
140,2305.0,0.35937899733153833
141,2315.0,0.3506065974625105
142,2325.0,0.3368663975934827
143,2335.0,0.3310334977244548
144,2345.0,0.31542879785542693
145,2355.0,0.3401233979863991
146,2365.0,0.31569929811737124
147,2375.0,0.3252662982483434
148,2385.0,0.30421739837931555
149,2395.0,0.31056569851028765
150,2405.0,0.30861859864125984
151,2415.0,0.312374198772232
152,2425.0,0.3361092989032041
153,2435.0,0.3335293990341763
154,2445.0,0.3429262991651484
155,2455.0,0.3440890992961205
156,2465.0,0.33606509942709273
157,2475.0,0.3252509995580648
158,2485.0,0.305706099689037
159,2495.0,0.3096929998200092
160,2505.0,0.3333668999509813
161,2511.88643,0.2998995044520243
162,2513.0,0.2945357838335344
163,2518.0,0.2843023127165864
164,2525.0,0.28618781315285924
165,2535.0,0.3002904709189632
166,2545.0,0.3027088286850672
167,2555.0,0.33083658645117126
168,2565.0,0.31358164421727525
169,2575.0,0.3276979019833792
170,2585.0,0.31949365974948324
171,2595.0,0.3120379175155873
172,2605.0,0.30227527528169124
173,2615.0,0.2947718330477953
174,2625.0,0.31260369081389927
175,2635.0,0.3476108485800033
176,2645.0,0.38289070634610733
177,2655.0,0.42109756411221133
178,2665.0,0.36382942187831535
179,2675.0,0.37937327964441936
180,2685.0,0.3949191374105233
181,2695.0,0.35602499517662733
182,2705.0,0.3772858529427313
183,2715.0,0.34104471070883535
184,2725.0,0.3271925684749393
185,2735.0,0.34559642624104336
186,2745.0,0.29533638400714735
187,2755.0,0.3157133417732514
188,2765.0,0.3389479995393554
189,2775.0,0.3473488573054594
190,2785.0,0.30246481507156336
191,2795.0,0.2514977728376674
192,2805.0,0.2594009306037714
193,2815.0,0.3331092883698754
194,2825.0,0.3739691461359794
195,2835.0,0.36617300390208346
196,2845.0,0.3349678616681874
197,2855.0,0.2885191194342914
198,2865.0,0.36510557720039544
199,2875.0,0.39664343496649945
200,2884.0315,0.3819192520579562
201,2885.0,0.3803762299299258
202,2895.0,0.4024861480710674
203,2910.0,0.45803802528277976
204,2930.0,0.4295778615650629
205,2950.0,0.415883697847346
206,2970.0,0.42437553412962914
207,2990.0,0.4262663704119123
208,3010.0,0.4293142066941954
209,3030.0,0.43664904297647855
210,3050.0,0.44588887925876164
211,3070.0,0.4560807155410448
212,3090.0,0.4513705518233279
213,3110.0,0.47449338810561104
214,3130.0,0.4584862243878941
215,3150.0,0.45438806067017723
216,3170.0,0.4744488969524604
217,3190.0,0.4403397332347435
218,3210.0,0.4650275695170266
219,3230.0,0.42568040579930977
220,3250.0,0.49888724208159296
221,3270.0,0.5426290783638761
222,3290.0,0.5343119146461591
223,3310.0,0.5188497509284422
224,3311.31121,0.5191208984230269
225,3330.0,0.523471878665243
226,3350.0,0.5127491247274185
227,3370.0,0.443707370789594
228,3390.0,0.4746996168517694
229,3410.0,0.4800368629139449
230,3430.0,0.49510510897612037
231,3450.0,0.5054773550382958
232,3470.0,0.5135366011004712
233,3490.0,0.5433718471626467
234,3510.0,0.5627280932248221
235,3530.0,0.5285283392869976
236,3550.0,0.5779615853491731
237,3570.0,0.4747578314113484
238,3590.0,0.4724050774735239
239,3610.0,0.5283713235356993
240,3630.0,0.5417395695978748
241,3640.0,0.5541046926289626
242,3650.0,0.5977738156600503
243,3670.0,0.6110050617222257
244,3690.0,0.5738113077844011
245,3710.0,0.6035775538465765
246,3730.0,0.493229799908752
247,3750.0,0.5364700459709275
248,3770.0,0.6122402920331029
249,3790.0,0.6318675380952784
250,3801.8939600000003,0.6292545814159619
251,3810.0,0.6276223379950852
252,3830.0,0.46612511034538995
253,3850.0,0.5692778826956947
254,3870.0,0.5696736550459994
255,3890.0,0.5935464273963043
256,3910.0,0.6818641997466091
257,3930.0,0.4405439720969137
258,3950.0,0.6201847444472185
259,3970.0,0.4720265167975232
260,3990.0,0.785862289147828
261,4010.0,0.8414470614981326
262,4030.0,0.8378278338484374
263,4050.0,0.8137926061987422
264,4070.0,0.783702378549047
265,4090.0,0.8800491508993518
266,4110.0,0.8281139232496565
267,4130.0,0.8421886955999612
268,4150.0,0.835166467950266
269,4170.0,0.8417552403005707
270,4190.0,0.8258860126508755
271,4210.0,0.8317937850011803
272,4230.0,0.804356557351485
273,4250.0,0.8320413297017898
274,4270.0,0.7977991020520945
275,4290.0,0.7560038744023992
276,4310.0,0.6742616467527041
277,4330.0,0.8665604191030088
278,4350.0,0.8459281914533135
279,4365.15832,0.9061088230619654
280,4370.0,0.9253951290449489
281,4390.0,0.852628955018502
282,4410.0,0.8901057809920552
283,4430.0,0.9411916069656083
284,4450.0,0.9426014329391614
285,4470.0,0.9882432589127146
286,4490.0,1.0053040848862678
287,4510.0,1.104704910859821
288,4530.0,0.9972347368333742
289,4550.0,1.0292665628069273
290,4570.0,1.0932823887804803
291,4590.0,1.0456952147540337
292,4610.0,1.0675200407275867
293,4630.0,1.0485138667011398
294,4650.0,1.0594506926746932
295,4670.0,1.0928435186482461
296,4690.0,1.0786003446217995
297,4710.0,1.0500681705953525
298,4730.0,1.0793779965689057
299,4750.0,1.1032388225424588
300,4770.0,1.093084648516012
301,4790.0,1.0917724744895652
302,4810.0,1.0897793004631184
303,4830.0,1.1129601264366715
304,4850.0,1.0565319524102248
305,4870.0,0.9687947783837778
306,4890.0,1.076362604357331
307,4910.0,1.077091430330884
308,4930.0,1.0574052563044374
309,4950.0,1.0955570822779905
310,4970.0,1.0833609082515436
311,4990.0,1.0194417342250968
312,5010.0,0.97593756019865
313,5011.87234,0.9805289896718158
314,5030.0,1.0251503518021368
315,5050.0,1.0206204919639894
316,5070.0,1.0569216321258421
317,5090.0,1.008838772287695
318,5110.0,1.0281269124495478
319,5130.0,0.9977370526114004
320,5150.0,0.9659871927732532
321,5170.0,0.909739332935106
322,5190.0,0.9344714730969587
323,5210.0,0.9884646132588115
324,5230.0,1.0431387534206642
325,5250.0,1.078077893582517
326,5270.0,0.9741940337443697
327,5290.0,1.0860271739062226
328,5310.0,1.1379803140680753
329,5330.0,1.025933454229928
330,5350.0,1.1037365943917807
331,5370.0,1.0964897345536335
332,5390.0,1.0763108747154861
333,5410.0,1.0602120148773388
334,5430.0,1.0726951550391917
335,5450.0,1.0981022952010444
336,5470.0,1.0786054353628973
337,5490.0,1.0829185755247501
338,5510.0,1.0722687156866029
339,5530.0,1.1010848558484554
340,5550.0,1.1135679960103084
341,5570.0,1.089981136172161
342,5590.0,1.0684392763340138
343,5610.0,1.0986174164958664
344,5630.0,1.0934005566577192
345,5650.0,1.1045236968195722
346,5670.0,1.0795768369814247
347,5690.0,1.1070299771432774
348,5710.0,1.0732431173051302
349,5730.0,1.146966257466983
350,5750.0,1.111139397628836
351,5754.399369999999,1.112985624080528
352,5770.0,1.1196338322525203
353,5790.0,1.0832568318647053
354,5810.0,1.1176398314768903
355,5830.0,1.1425028310890752
356,5850.0,1.1115658307012601
357,5870.0,1.1112488303134451
358,5890.0,1.0068158299256302
359,5910.0,1.092924829537815
360,5930.0,1.09872782915
361,5950.0,1.098410828762185
362,5970.0,1.1123838283743699
363,5990.0,1.096416827986555
364,6010.0,1.0818098275987398
365,6030.0,1.1032628272109248
366,6050.0,1.1199658268231099
367,6070.0,1.1148788264352947
368,6090.0,1.0819018260474795
369,6110.0,1.0843048256596646
370,6130.0,1.0329538252718495
371,6150.0,1.0564548248840344
372,6170.0,1.0112248244962194
373,6190.0,1.0619448241084044
374,6210.0,1.0534618237205895
375,6230.0,1.0245648233327744
376,6250.0,0.9956658229449594
377,6270.0,1.0354978225571443
378,6290.0,1.0494718221693293
379,6310.0,1.0253378217815141
380,6330.0,1.0372688213936991
381,6350.0,1.0403548210058842
382,6370.0,1.0345938206180691
383,6390.0,1.047886820230254
384,6410.0,1.0278358198424389
385,6430.0,1.035003819454624
386,6450.0,1.029243819066809
387,6470.0,1.025523818678994
388,6490.0,1.0068328182911788
389,6510.0,1.0357768179033637
390,6530.0,1.0347798175155487
391,6550.0,1.0052018171277337
392,6570.0,0.9402368167399187
393,6590.0,1.0154558163521037
394,6606.93448,1.0238299163837312
395,6610.0,1.0253605404399169
396,6630.0,1.0176546051609803
397,6650.0,1.0160726698820433
398,6670.0,0.9967977346031065
399,6690.0,1.0095057993241696
400,6710.0,0.9759398640452329
401,6730.0,0.996814928766296
402,6750.0,0.9816229934873592
403,6770.0,0.9848040582084223
404,6790.0,0.9750561229294855
405,6810.0,0.9775571876505487
406,6830.0,0.9861832523716118
407,6850.0,0.9641853170926749
408,6870.0,0.9762143818137381
409,6890.0,0.9875614465348013
410,6910.0,0.9832575112558645
411,6930.0,0.9769125759769276
412,6950.0,0.9739696406979907
413,6970.0,0.9839557054190539
414,6990.0,0.978971770140117
415,7010.0,0.9651398348611802
416,7030.0,0.9805708995822433
417,7050.0,0.9837529643033066
418,7070.0,0.9590340290243697
419,7090.0,0.9356760937454329
420,7110.0,0.9177611584664961
421,7130.0,0.9005282231875592
422,7150.0,0.8975852879086224
423,7170.0,0.9062103526296855
424,7190.0,0.8855754173507486
425,7210.0,0.9030464820718119
426,7230.0,0.9184775467928751
427,7250.0,0.9230196115139382
428,7270.0,0.9268826762350013
429,7290.0,0.9144117409560645
430,7310.0,0.9339258056771277
431,7330.0,0.9357468703981908
432,7350.0,0.9430109351192539
433,7370.0,0.9618439998403172
434,7390.0,0.9452910645613803
435,7410.0,0.9409871292824435
436,7430.0,0.9611811940035067
437,7450.0,0.9609602587245698
438,7470.0,0.971627323445633
439,7490.0,0.9686843881666961
440,7510.0,0.9759494528877593
441,7530.0,0.9866165176088224
442,7550.0,0.9918395823298857
443,7570.0,0.9861746470509488
444,7585.77575,0.9731178986146146
445,7590.0,0.9696360132502353
446,7610.0,0.9558717892962597
447,7630.0,0.9393875653422842
448,7650.0,0.9235823413883086
449,7670.0,0.8866821174343331
450,7690.0,0.9055828934803576
451,7710.0,0.889097669526382
452,7730.0,0.8916664455724065
453,7750.0,0.884708221618431
454,7770.0,0.8954419976644554
455,7790.0,0.8993717737104799
456,7810.0,0.8985385497565044
457,7830.0,0.8909003258025289
458,7850.0,0.8812201018485534
459,7870.0,0.8939968778945778
460,7890.0,0.8829556539406023
461,7910.0,0.8651084299866267
462,7930.0,0.8663162060326511
463,7950.0,0.8607189820786756
464,7970.0,0.8843837581247
465,7990.0,0.8849115341707245
466,8010.0,0.892924310216749
467,8030.0,0.8948120862627734
468,8050.0,0.8932968623087979
469,8070.0,0.9019906383548223
470,8090.0,0.8936724144008468
471,8110.0,0.9003231904468713
472,8130.0,0.9185439664928957
473,8150.0,0.9245157425389201
474,8170.0,0.9298065185849446
475,8190.0,0.905835294630969
476,8210.0,0.8981960706769935
477,8230.0,0.902125846723018
478,8250.0,0.9012926227690424
479,8270.0,0.9086243988150668
480,8290.0,0.9003051748610913
481,8310.0,0.8749739509071158
482,8330.0,0.8686957269531402
483,8350.0,0.8699035029991647
484,8370.0,0.8731532790451891
485,8390.0,0.8471400550912136
486,8410.0,0.8708048311372381
487,8430.0,0.8359456071832625
488,8450.0,0.823544383229287
489,8470.0,0.8220301592753114
490,8490.0,0.8252789353213359
491,8510.0,0.7924617113673603
492,8530.0,0.8229314874133848
493,8550.0,0.7560882634594093
494,8570.0,0.8430390395054337
495,8590.0,0.8333588155514583
496,8610.0,0.8393305915974827
497,8630.0,0.8527873676435072
498,8650.0,0.8526341436895316
499,8670.0,0.7721809197355561
500,8690.0,0.8339536957815805
501,8709.6359,0.8578562569746863
502,8710.0,0.8583004262275488
503,8730.0,0.8629626274284112
504,8750.0,0.8526548286292737
505,8770.0,0.8668440298301362
506,8790.0,0.8721882310309985
507,8810.0,0.856435432231861
508,8830.0,0.8638196334327235
509,8850.0,0.863038834633586
510,8870.0,0.8343560358344485
511,8890.0,0.8485462370353108
512,8910.0,0.8559314382361733
513,8930.0,0.8415396394370358
514,8950.0,0.8414388406378983
515,8970.0,0.8447400418387607
516,8990.0,0.8453202430396232
517,9010.0,0.8173194442404856
518,9030.0,0.8451186454413481
519,9050.0,0.8654328466422105
520,9070.0,0.862610047843073
521,9090.0,0.8448162490439354
522,9110.0,0.854242450244798
523,9130.0,0.8657106514456603
524,9150.0,0.8601658526465228
525,9170.0,0.8593840538473853
526,9190.0,0.8660882550482477
527,9210.0,0.8380864562491102
528,9230.0,0.8196126574499726
529,9250.0,0.820192858650835
530,9270.0,0.8241750598516975
531,9290.0,0.81590826105256
532,9310.0,0.8205704622534225
533,9330.0,0.8197896634542848
534,9350.0,0.8162858646551473
535,9370.0,0.8039360658560097
536,9390.0,0.8154042670568723
537,9410.0,0.7996514682577347
538,9430.0,0.8165636694585972
539,9450.0,0.8055748706594597
540,9470.0,0.8197640718603221
541,9490.0,0.8203442730611845
542,9510.0,0.8100354742620469
543,9530.0,0.8119766754629095
544,9550.0,0.7935018766637719
545,9570.0,0.8036090778646344
546,9590.0,0.8157572790654968
547,9610.0,0.8054484802663593
548,9630.0,0.8080696814672217
549,9650.0,0.7943588826680842
550,9670.0,0.7942580838689466
551,9690.0,0.8043652850698091
552,9710.0,0.7947364862706715
553,9730.0,0.787830687471534
554,9750.0,0.7850078886723965
555,9770.0,0.7876290898732589
556,9790.0,0.7766402910741214
557,9810.0,0.7928714922749838
558,9830.0,0.7859656934758462
559,9850.0,0.7906288946767087
560,9870.0,0.7844030958775712
561,9890.0,0.7829412970784336
562,9910.0,0.777396498279296
563,9930.0,0.7800176994801585
564,9950.0,0.780597900681021
565,9970.0,0.7798161018818834
566,9990.0,0.7769933030827458
567,10000.0,0.775751903683177
568,10030.0,0.7720863433618886
569,10070.0,0.7617569296001707
570,10130.0,0.7670148089575939
571,10170.0,0.757365395195876
572,10220.0,0.7572111279937286
573,10280.0,0.7563450073511516
574,10320.0,0.7460135935894338
575,10380.0,0.7397044729468568
576,10430.0,0.7409112057447095
577,10480.0,0.731229938542562
578,10520.0,0.726342524780844
579,10580.0,0.7145884041382673
580,10630.0,0.7087181369361198
581,10680.0,0.6989698697339725
582,10720.0,0.7005474559722545
583,10780.0,0.6942373353296776
584,10820.0,0.6840429215679598
585,10870.0,0.6815066543658124
586,10920.0,0.678085387163665
587,10980.0,0.670619266521088
588,11020.0,0.6679098527593701
589,11080.0,0.6602387321167932
590,11130.0,0.6561374649146459
591,11170.0,0.650094051152928
592,11220.0,0.6489187839507805
593,11280.0,0.6397516633082037
594,11330.0,0.6375553961060563
595,11380.0,0.6322301289039088
596,11430.0,0.6246578617017614
597,11470.0,0.6299784479400434
598,11481.5362,0.6293541240540952
599,11530.0,0.6268029092940999
600,11570.0,0.619320576328055
601,11620.0,0.6097811601204988
602,11670.0,0.6084757439129425
603,11730.0,0.610285244463875
604,11770.0,0.59783491149783
605,11830.0,0.5923624120487626
606,11870.0,0.5831120790827176
607,11920.0,0.5900396628751613
608,11980.0,0.5717071634260938
609,12030.0,0.5797247472185376
610,12070.0,0.5741484142524926
611,12120.0,0.5735909980449364
612,12180.0,0.5734264985958689
613,12230.0,0.5690590823883127
614,12270.0,0.5642987494222677
615,12320.0,0.5601353332147114
616,12370.0,0.5576049170071552
617,12430.0,0.5509074175580877
618,12480.0,0.5487180013505315
619,12530.0,0.5431935851429752
620,12580.0,0.540731168935419
621,12620.0,0.5371278359693741
622,12670.0,0.5320794197618178
623,12720.0,0.5313190035542615
624,12780.0,0.5299295041051941
625,12830.0,0.5117480878976378
626,12880.0,0.5199016716900816
627,12920.0,0.5143253387240366
628,12980.0,0.5174278392749692
629,13020.0,0.5109665063089242
630,13080.0,0.5114140068598567
631,13130.0,0.5016705906523005
632,13180.0,0.4996851744447442
633,13182.5674,0.4996565522373186
634,13230.0,0.4991778745283119
635,13280.0,0.4911202872729152
636,13320.0,0.4911662174685978
637,13380.0,0.48609711276212164
638,13430.0,0.4869545255067249
639,13470.0,0.4831214557024075
640,13520.0,0.47975986844701074
641,13570.0,0.47313128119161396
642,13630.0,0.4705121764851378
643,13670.0,0.47171510668082045
644,13730.0,0.4717500019743443
645,13770.0,0.4697539321700269
646,13820.0,0.4691823449146302
647,13880.0,0.464590240208154
648,13930.0,0.4515646529527573
649,13970.0,0.44902458314843985
650,14020.0,0.4438259958930431
651,14080.0,0.446241891186567
652,14120.0,0.44097982138224956
653,14180.0,0.44387371667577347
654,14230.0,0.43840212942037665
655,14280.0,0.4321815421649799
656,14330.0,0.43827795490958316
657,14380.0,0.4397483676541864
658,14420.0,0.429722297849869
659,14480.0,0.4360181931433929
660,14520.0,0.43157212333907546
661,14570.0,0.4330425360836787
