,lambda (Angstroms),Total Flux (erg/s/cm^2/Angstrom)
0,1011.58,1.1699887708952892
1,1023.29,0.8284446071782013
2,1035.14,0.994500795901729
3,1047.13,1.3637743370658721
4,1059.25,1.196848276924873
5,1071.52,1.1406215229702472
6,1083.93,1.005712121456237
7,1096.4782,1.185740247911793
8,1096.48,1.1857660546504734
9,1109.17,1.0917923448160618
10,1122.02,0.9537623187032023
11,1135.01,1.1065182658467005
12,1148.15,1.032878041479154
13,1161.45,1.0162855008331595
14,1174.9,0.6505867886761197
15,1188.5,0.9206389050080349
16,1202.26,0.7189537050615021
17,1216.19,0.47013504406911827
18,1230.27,0.8550292115656893
19,1244.51,0.9051970627838124
20,1258.92541,0.8967360022686807
21,1258.93,0.8967333793633391
22,1273.5,0.9627623823994743
23,1288.25,0.9366685707854038
24,1303.17,0.8585869342239171
25,1318.26,0.9388454727150138
26,1333.52,0.8468981862586942
27,1348.96,0.868521085152169
28,1364.58,0.8277561693954382
29,1380.38,0.7745964389885017
30,1396.37,0.5846979042285705
31,1412.54,0.6893175548184336
32,1428.89,0.6783863907580913
33,1445.43977,0.6988761478860955
34,1445.44,0.6988764326039029
35,1462.18,0.6722408998866424
36,1479.11,0.6753355313739051
37,1496.24,0.6555723357080346
38,1513.56,0.6065763042466874
39,1531.09,0.5253244542745502
40,1548.82,0.4298547771492796
41,1566.75,0.5100032728708758
42,1584.89,0.5411919500816819
43,1603.25,0.48840681742404124
44,1621.81,0.4741608576132673
45,1640.59,0.4840060879340468
46,1659.58691,0.47311627970115855
47,1659.59,0.47311452521794073
48,1678.8,0.5021247660887096
49,1698.24,0.4722834585680301
50,1717.91,0.4332646026559022
51,1737.8,0.45980213523891067
52,1757.92,0.45679911943047075
53,1778.28,0.43661361834399776
54,1798.87,0.4249955688660764
55,1819.7,0.41842403411012197
56,1840.77,0.39013401407613446
57,1862.09,0.3772285718775292
58,1883.65,0.35259764440089075
59,1905.46,0.3402062947596346
60,1905.46072,0.3402055024429034
61,1927.53,0.31560075711610186
62,1949.84,0.32262625657745453
63,1972.42,0.3159505594836556
64,1995.26,0.2884787471885994
65,2018.37,0.2982297383383915
66,2041.74,0.2842216142869264
67,2065.38,0.25715429368030956
68,2089.3,0.26823069516464654
69,2113.49,0.2626339000938318
70,2137.96,0.25082582711397083
71,2162.72,0.2428103948711691
72,2187.76,0.23292368471932115
73,2187.7616199999998,0.2329230450930895
74,2213.09,0.22329295863503543
75,2238.72,0.2244712021234073
76,2264.64,0.22112032663447242
77,2290.87,0.21636346189393374
78,2317.39,0.21751147817608832
79,2344.23,0.2142865700694906
80,2371.37,0.21398160784843762
81,2398.83,0.20893972123863236
82,2426.61,0.2119499102400748
83,2454.71,0.218893174852765
84,2483.13,0.2142275150767029
85,2511.88643,0.21108445083690813
86,2511.89,0.21108402851955715
87,2540.97,0.21243102715989512
88,2570.4,0.2230761471731395
89,2600.16,0.21515343876655274
90,2630.27,0.21994885173287243
91,2660.73,0.2309933860720985
92,2691.53,0.22327306688786222
93,2722.7,0.2192248188692699
94,2754.23,0.21332566711995266
95,2786.12,0.22403961163991062
96,2818.38,0.2342576273255125
97,2851.02,0.22488568907312706
98,2884.03,0.23780882198638553
99,2884.0315,0.23780966864000244
100,2917.43,0.2567431023679919
101,2951.21,0.25158636691552433
102,2985.38,0.2521506114267494
103,3019.95,0.24652983538791565
104,3054.92,0.25616203879902305
105,3090.3,0.2620012211463202
106,3126.08,0.27596338294355854
107,3162.28,0.27972752316323507
108,3198.9,0.29598964180534987
109,3235.94,0.29332073886990284
110,3273.41,0.3132118138431426
111,3311.31,0.3182138667250692
112,3311.31121,0.31821400407396416
113,3349.65,0.32253021433256207
114,3388.44,0.3246911188711765
115,3427.68,0.3320945814670835
116,3467.37,0.3246136021202829
117,3507.52,0.3373301710098258
118,3548.13,0.3521472881357122
119,3589.22,0.3208369338560439
120,3630.78,0.35447111799177006
121,3672.82,0.3425668307219415
122,3715.35,0.4338900622256093
123,3758.37,0.3559608125027733
124,3801.89,0.3871460717324846
125,3801.8939600000003,0.3871482738592873
126,3845.92,0.41163983919380576
127,3890.45,0.38619821873359783
128,3935.5,0.3706741939922467
129,3981.07,0.4805027649697523
130,4027.17,0.6009309238914773
131,4073.8,0.5740566707574218
132,4120.98,0.5832719900183109
133,4168.69,0.6119078972234194
134,4216.97,0.6390333612741977
135,4265.79,0.6448664054945583
136,4315.19,0.6230849987859511
137,4365.15832,0.7081952874042577
138,4365.16,0.7081981509762393
139,4415.7,0.7229576258164355
140,4466.84,0.7397213674730964
141,4518.56,0.8088353670523395
142,4570.88,0.8238136334480473
143,4623.81,0.8565471711071606
144,4677.35,0.8371749800296795
145,4731.51,0.8468430646625451
146,4786.3,0.8684724294526985
147,4841.72,0.8527250744001397
148,4897.79,0.8866170083987507
149,4954.5,1.0361452270015905
150,5011.87,1.2082407391025414
151,5011.87234,1.208228436355393
152,5069.91,0.9030957354422976
153,5128.61,0.8969430844674201
154,5188.0,0.8548548019904527
155,5248.07,0.9433658826708463
156,5308.84,0.9944463371896997
157,5370.32,0.9653001708875621
158,5432.5,0.9831873784238845
159,5495.41,1.0037079758203145
160,5559.04,1.0199729577363035
161,5623.41,1.0037693348529495
162,5688.53,1.0177021125108026
163,5754.399369999999,1.0294671781842473
164,5754.4,1.0294672912303455
165,5821.03,1.0616479225693214
166,5888.44,0.9459836148784969
167,5956.62,1.03542235455569
168,6025.6,1.035516182407447
169,6095.37,1.0475410848315856
170,6165.95,0.9984450890324699
171,6237.35,1.010034208612282
172,6309.57,1.043042443571022
173,6382.64,1.069741834715236
174,6456.54,1.0625223548405598
175,6531.31,1.0807840583557218
176,6606.93,1.0791569180563574
177,6606.93448,1.079156104973557
178,6683.44,1.0651675230039197
179,6760.83,1.0676081287810504
180,6839.12,1.0786587416030116
181,6918.31,1.0858593614698027
182,6998.42,1.0940899885379762
183,7079.46,1.0973406228858076
184,7161.43,1.074961264513297
185,7244.36,1.0737519136552722
186,7328.25,1.109222570311733
187,7413.1,1.1212232344826794
188,7498.94,1.1532639064029393
189,7585.77575,1.161474184315356
190,7585.78,1.1614745884696636
191,7673.61,1.1378331975740354
192,7762.47,1.1530823767271097
193,7852.36,1.1528721259288854
194,7943.28,1.1240024451793638
195,8035.08,1.1676432514617427
196,8128.12,1.1803247440163456
197,8222.24,1.1355868342919175
198,8317.45,1.136669527822912
199,8413.76,1.1422128301437826
200,8511.18,1.1054767467889826
201,8609.74,1.123131294361872
202,8709.44,1.1760764728624515
203,8709.6359,1.176040256740996
204,8810.29,1.1575361207247374
205,8912.3,1.1844978093048695
206,9015.5,1.1045613840668498
207,9119.9,1.1694768608609463
208,9225.5,1.1079242396871587
209,9332.33,1.0840435680962899
210,9440.39,1.0345948460883403
211,9549.71,1.1682781212141127
212,9660.29,1.1249433934736066
213,9772.15,1.1095506945673579
214,9885.42,1.1281102305488455
215,9999.87,1.1270116368619139
216,10000.0,1.1270017531286367
217,10115.7,1.1182057155548295
218,10232.8,1.11203181310088
219,10351.2,1.103649976631643
220,10471.0,1.0988203650690196
221,10592.3,1.081093137334911
222,10714.9,1.0864879755855155
223,10839.0,1.0770551976646343
224,10964.5,1.0548846446503672
225,11091.5,1.0360364754646147
226,11219.9,1.0362405311854759
227,11349.8,1.0249369707348521
228,11481.3,1.0156159530346438
229,11481.5362,1.0155716796767966
230,11614.2,0.9908993531239395
231,11748.7,0.9895079837878469
232,11884.7,0.9827431939758872
233,12022.4,0.972059594291278
234,12161.6,0.9615055741308015
235,12302.4,0.9489254387960666
236,12444.9,0.9280714935886824
237,12589.0,0.9056544332070398
238,12735.0,0.9122391735559652
239,12882.5,0.9024154934290236
240,13031.7,0.8947410034294324
241,13182.5674,0.8861415617571642
242,13182.6,0.8861397510066136
243,13335.2,0.8778637511318949
244,13489.6,0.864797866592861
245,13645.8,0.8424160973895118
246,13803.8,0.8488404435218476
247,13963.7,0.8381763558418506
248,14125.4,0.8258273834975386
249,14288.9,0.8010215264889113
250,14454.4,0.8035636865199338
251,14621.8,0.7589074127386237
252,14791.1,0.773356705144981
253,14962.4,0.7986910145909881
254,15135.6,0.7853368902246625
255,15135.6125,0.7853369466524666
256,15310.9,0.7867195161005925
257,15488.2,0.7925089476105142
258,15667.5,0.7611951425892446
259,15848.9,0.7944698892102245
260,16032.5,0.7768149756468946
261,16218.1,0.7480528255523735
262,16405.9,0.7511790152735425
263,16595.9,0.7643075448104014
264,16788.0,0.7378906259895097
265,16982.4,0.7475308351577485
266,17179.1,0.7250541723151177
267,17378.0,0.7164638492881769
268,17378.0083,0.7164631262065724
269,17579.2,0.7003367175708908
270,17782.8,0.6710312729903002
271,17988.7,0.6613289731909702
272,18197.0,0.6630153027286076
273,18407.7,0.6308182616032126
274,18620.9,0.6326643343704922
275,18836.5,0.6267320364747391
276,19054.6,0.6248118524716605
277,19275.2,0.6079397823612566
278,19498.4,0.595420310699234
279,19724.2,0.6035954374855927
280,19952.6,0.6009661627203331
281,19952.6231,0.6009656748123724
282,20183.7,0.599121977433139
283,20417.4,0.5986408655750879
284,20653.8,0.606423322386199
285,20893.0,0.6096371467060713
286,21134.9,0.611803539695106
287,21379.6,0.6186523001929017
288,21627.2,0.6198832270390572
289,21877.6,0.6201435213939736
290,22130.9,0.6339809820972497
291,22387.2,0.627750407988484
292,22646.4,0.637213000228078
293,22908.6765,0.6467734998735275
294,22908.7,0.6467748718021609
295,23173.9,0.635102687964044
296,23442.3,0.6516752364476393
297,23713.7,0.6434515339828395
298,23988.3,0.6725985638397517
299,24266.1,0.687512326018376
300,24547.1,0.6901388205187122
301,24831.3,0.7063960473407604
302,25118.9,0.724462989754628
303,25409.7,0.7492096644902072
304,25704.0,0.773999046452659
305,26001.6,0.7976041523718763
306,26302.679900000003,0.8198244820957006
307,26302.7,0.8198263494495159
308,26607.3,0.8492670563922939
309,26915.3,0.8800194225721218
310,27227.0,0.9115771532157986
311,27542.3,0.9418563465810575
312,27861.2,0.972510002667899
313,28183.8,1.002889023218589
314,28510.2,1.0342513099753938
315,28840.3,1.064669961196047
316,29174.3,1.0972797803650813
317,29512.1,1.1287298657402305
318,29853.8,1.1602971190637605
319,30199.5,1.1922524420779377
320,30199.5172,1.1922540329374014
321,30549.2,1.2280262890053717
322,30903.0,1.2638174861001756
323,31260.8,1.2998899822011394
324,31622.8,1.3363895422585705
325,31988.9,1.3718732837973149
326,32359.4,1.4082088542428348
327,32734.1,1.443184488644822
328,33113.1,1.4782480694784308
329,33496.5,1.5150534792188148
330,33884.4,1.5493946003411285
331,34276.8,1.5859474328453715
332,34673.685,1.6219746151085697
333,34673.7,1.6219759338168496
334,35075.2,1.6569453882553047
335,35481.3,1.691358276044736
336,35892.2,1.724596789939533
337,36307.8,1.760077333562502
338,36728.2,1.794371503290836
339,37153.5,1.829513895501733
340,37583.7,1.8647295101951906
341,38018.9,1.9001679437484054
342,38459.2,1.935529792538571
343,38904.5,1.9711144601884942
344,39355.0,2.0075771394525637
345,39810.7,2.04428283033078
346,39810.7171,2.044284225086118
347,40271.7,2.0738666882615155
348,40738.0,2.103933678876558
349,41209.8,2.133514813923045
350,41686.9,2.1635793790580147
351,42169.7,2.195454802967391
352,42658.0,2.2278363713082125
353,43151.9,2.25726094125196
354,43651.6,2.290665227141594
355,44157.0,2.3230963718056348
356,44668.4,2.357558946758525
357,45185.6,2.3927312376573013
358,45708.8,2.430497958844928
359,45708.818999999996,2.4304993235930183
360,46238.1,2.457765958890027
361,46773.5,2.486027954343332
362,47315.1,2.514610157065613
363,47863.0,2.5467143929805656
364,48417.2,2.578320662088188
365,48977.9,2.610133616235868
366,49545.0,2.642515429499911
367,50118.7,2.6741397537277045
368,50699.1,2.7069474148429418
369,51286.1,2.7403405869219286
370,51880.0,2.776107747735745
371,52480.746,2.814317462680404
372,52480.8,2.81431957875247
373,53088.4,2.8367679652707274
374,53703.2,2.8609730140387075
375,54325.0,2.8856639566605846
376,54954.1,2.9179419457300972
377,55590.4,2.943670597049332
378,56234.1,2.966240679014116
379,56885.3,2.9874005758223596
380,57544.0,2.9997012874740654
381,58210.3,3.0117401981671446
382,58884.4,3.025114076297424
383,59566.2,3.042973537666989
384,60255.9586,3.0666793120253284
385,60256.0,3.0666801451886956
386,60953.7,3.073580004342147
387,61659.5,3.0910266111796214
388,62373.5,3.09531992554907
389,63095.7,3.077509947450493
390,63826.4,3.0620265564277425
391,64565.4,3.052157832784917
392,65313.1,3.04396261591382
393,66069.3,3.0367619861185497
394,66834.4,3.02471678279091
395,67000.0,3.019571448769928
396,67608.3,2.9978362465957313
397,68391.2,2.9658914258457267
398,69183.1,2.95596904961386
399,69242.2916,2.9542974138042366
400,69984.2,2.9244516290252216
401,70794.6,2.8725841052696115
402,71559.6261,2.830140341868865
403,71614.3,2.8265119313775897
404,72443.6,2.7715857228378864
405,73282.5,2.727647353196072
406,73954.515,2.6809868365456544
407,74131.0,2.6620630892560193
408,74989.4,2.5870423058388368
409,75857.8,2.49904426725603
410,76429.5536,2.441879504391801
411,76736.1,2.397978112307909
412,77624.7,2.269057985483484
413,78523.6,2.122412602293661
414,78987.42450000001,2.0539048056082447
415,79432.8,1.983133841345487
416,80352.6,1.8372266722526458
417,81283.1,1.6819408260459827
418,81630.8998,1.6259257233114324
419,82224.3,1.5359494945204852
420,83176.4,1.4050290433463652
421,84139.5,1.265897568894315
422,84362.84430000001,1.23518328193791
423,85113.8,1.1685353817960364
424,86099.4,1.0822133510835863
425,87096.4,0.9947269734249892
426,87186.21900000001,0.9872552153118309
427,88104.9,0.9343608472394087
428,89125.1,0.8822097289529538
429,90104.0836,0.8322265008155968
430,90157.1,0.8300513343802912
431,91201.1,0.7903193905516191
432,92257.1,0.7538405852996292
433,93119.6005,0.725028754715828
434,93325.4,0.7237336854565586
435,94406.1,0.7189338139918366
436,95499.3,0.7162148218707722
437,96236.03790000001,0.7154419508059371
438,96605.1,0.7201888474790928
439,97723.7,0.7359168853460986
440,98855.3,0.7526910420154209
441,99456.7731,0.7627746597817618
442,100000.0,0.7757293236364027
443,101158.0,0.8046144137772243
444,102329.0,0.8349486983669498
445,102785.297,0.8470216097177462
446,103514.0,0.8651975710447479
447,104713.0,0.897135660696816
448,105925.0,0.9296302425636274
449,106225.216,0.9378573381786712
450,107152.0,0.9677634313240535
451,108393.0,1.008088964895731
452,109648.0,1.0496523658888455
453,109780.26,1.0545914554400735
454,110917.0,1.0967670838730965
455,112202.0,1.144360127647839
456,113454.28,1.184876089993137
457,113501.0,1.1863634649856558
458,114815.0,1.2241089582437816
459,116145.0,1.2675594361991145
460,117251.259,1.3036835947897947
461,117490.0,1.3115322038833217
462,118850.0,1.3561569921223826
463,120226.0,1.3996282955171968
464,121175.312,1.4296808101454084
465,121619.0,1.4418559031162794
466,123027.0,1.4806774200653348
467,124451.0,1.517939988343357
468,125230.691,1.5378298819750034
469,125893.0,1.5526359947346973
470,127350.0,1.5870666824318849
471,128825.0,1.617218393724508
472,129421.79100000001,1.6211817384966585
473,130317.0,1.621571735034269
474,131826.0,1.6401550302294332
475,133352.0,1.656935632925139
476,133753.155,1.6610625223363922
477,134896.0,1.6667041169790908
478,136458.0,1.6680279986425879
479,138038.0,1.6799388866248703
480,138229.477,1.6808079648416534
481,139637.0,1.6817292932187615
482,141254.0,1.674911047548022
483,142855.609,1.6822675211344522
484,142889.0,1.6822306163893201
485,144544.0,1.6694252522825976
486,146218.0,1.656607491246553
487,147636.563,1.6469539245561664
488,147911.0,1.6451896885460882
489,149624.0,1.6317093481218028
490,151356.0,1.6186717663267869
491,152577.522,1.6095581522038809
492,153109.0,1.6053291753791028
493,154882.0,1.592246830064829
494,156675.0,1.5784237814757185
495,157683.84,1.5704516168974307
496,158489.0,1.564745182165352
497,160325.0,1.5536969212136733
498,162181.0,1.543599256547924
499,162961.05099999998,1.5402354387364738
500,164059.0,1.534738122751245
501,165959.0,1.5255910477905084
502,167880.0,1.5160407625275742
503,168414.875,1.5137003198077479
504,169824.0,1.5109027782320459
505,171791.0,1.507524285980022
506,173780.0,1.5017112569564963
507,174051.222,1.5010322461828758
508,175792.0,1.497248319270412
509,177828.0,1.4936251676800472
510,179876.201,1.4909715320127779
511,179887.0,1.490944660433204
512,181970.0,1.485364873479192
513,184077.0,1.481003790852162
514,185896.125,1.478866604286477
515,186209.0,1.47919178087278
516,188365.0,1.4814834508165957
517,190546.0,1.4851347917940823
518,192117.51799999998,1.4882379428746586
519,192752.0,1.4886360975467572
520,194984.0,1.4967198958651748
521,197242.0,1.5009721676407066
522,198547.123,1.5000811784726968
523,199526.0,1.4995474143591723
524,201837.0,1.5034236531355787
525,204174.0,1.4927629378696599
526,205191.907,1.491213233815944
527,206538.0,1.4867178503104939
528,208930.0,1.4842134866994312
529,211349.0,1.481870723499113
530,212059.073,1.4801556482942586
531,213796.0,1.476365435552331
532,216272.0,1.474270709848938
533,218776.0,1.4720409145495457
534,219156.062,1.4717121929289767
535,221309.0,1.4700430306451175
536,223872.0,1.4677088936363898
537,226464.0,1.463803319260025
538,226490.56699999998,1.463788412508777
539,229087.0,1.4569367093901373
540,231739.0,1.454995205567827
541,234070.535,1.4528060801541984
542,234423.0,1.4526032453358932
543,237137.0,1.4752629253872478
544,239883.0,1.466568677568906
545,241904.18300000002,1.4601637715045872
546,242661.0,1.457432726222923
547,245471.0,1.4472820536982869
548,248313.0,1.4370123827676755
549,250000.0,1.4309068436716224
550,251189.0,1.4264741900465183
551,254097.0,1.4156258303476137
552,257040.0,1.4035995677637503
553,260016.0,1.391421682459782
554,263027.0,1.3790898942708547
555,266072.0,1.3655453432793951
556,269153.0,1.3528857493205493
557,272270.0,1.3400661123943163
558,275422.87,1.3281649232137913
559,275423.0,1.3281644670158435
560,278612.0,1.3169624272472578
561,281838.0,1.3056170279705388
562,285102.0,1.2941313946043855
563,288403.0,1.2825044017300986
564,291743.0,1.2695983001850766
565,295121.0,1.25426296455062
566,298538.0,1.2398765202454283
567,301995.0,1.2241600926882001
568,305492.0,1.208258681878936
569,309030.0,1.1921564132363347
570,312608.0,1.1758591613416973
571,316227.766,1.1605141690104128
572,316228.0,1.1605133695903116
573,319890.0,1.147985101552385
574,323594.0,1.1352996627723524
575,327341.0,1.1224490015658772
576,331131.0,1.1094371179329605
577,334965.0,1.0974369601892657
578,338844.0,1.086472476650457
579,342768.0,1.0765746673165346
580,346737.0,1.0665625321874983
581,350752.0,1.0564340195790125
582,354813.0,1.041215129491077
583,358922.0,1.0258067585550201
584,363078.0,1.0089679584551778
585,363078.055,1.0089677518875155
586,367282.0,0.9976982765847422
587,371535.0,0.9850408004866438
588,375837.0,0.9722324710311959
589,380189.0,0.9580373116192691
590,384592.0,0.9436923456517339
591,389045.0,0.9304335497277196
592,393550.0,0.9157889706489672
593,398107.0,0.9022246084154768
594,402717.0,0.8872694864281186
595,407380.0,0.8733896046868929
596,412098.0,0.8581180099935403
597,416869.0,0.8426846555463199
598,416869.38300000003,0.8426834183901459
599,421696.0,0.8320517075973053
600,426580.0,0.8200920515234962
601,431519.0,0.8092461921155225
602,436516.0,0.7982932819187936
603,441570.0,0.7860242700848395
604,446684.0,0.7748513091590696
605,451856.0,0.7623672974445445
606,457088.0,0.7509703366382035
607,462381.0,0.7382664775885164
608,467735.0,0.7254557202954831
609,473151.0,0.7137161156075735
610,478630.0,0.7006757143732574
611,478630.092,0.7006754961231317
612,484172.0,0.6920001810058778
613,489779.0,0.6832524743357609
614,495450.0,0.6732916623995681
615,501187.0,0.6644284606577345
616,506991.0,0.6543537268404777
617,512861.0,0.6453626032175801
618,518800.0,0.6351706629796945
619,524808.0,0.6260509061268208
620,530884.0,0.6157434749287416
621,537032.0,0.6053778003063268
622,543250.0,0.5960591667991416
623,549540.874,0.5855663577584521
624,549541.0,0.5855662145515619
625,555904.0,0.5773061149520854
626,562341.0,0.5679618094166726
627,568853.0,0.5586356870542978
628,575440.0,0.5503767478649605
629,582103.0,0.541071380957635
630,588844.0,0.5317743645502686
631,595662.0,0.5224893095338877
632,602560.0,0.5102073832354138
633,609537.0,0.497042196545873
634,616595.0,0.485934527683213
