,lambda (Angstroms),Total Flux (erg/s/cm^2/Angstrom)
0,1011.58,1.168384599585225
1,1023.29,0.8268524722497121
2,1035.14,0.9929208412569004
3,1047.13,1.3622067066067896
4,1059.25,1.195293104274901
5,1071.52,1.1390789623101922
6,1083.93,1.0041823166881843
7,1096.4782,1.1842233410876584
8,1096.48,1.1842491536170348
9,1109.17,1.0903162681902703
10,1122.02,0.9523275812136017
11,1135.01,1.1051253178807672
12,1148.15,1.0315273655948975
13,1161.45,1.014977611759124
14,1174.9,0.6493221689703154
15,1188.5,0.9194180372284716
16,1202.26,0.7177771039367239
17,1216.19,0.4690032564982031
18,1230.27,0.8539427201066473
19,1244.51,0.9041563821651875
20,1258.92541,0.8957416967938098
21,1258.93,0.8957390728381526
22,1273.5,0.9617647418662578
23,1288.25,0.9356675550553141
24,1303.17,0.85758250439638
25,1318.26,0.9378375898894552
26,1333.52,0.8458868115345399
27,1348.96,0.8675061773405759
28,1364.58,0.826737687307563
29,1380.38,0.7735743414355014
30,1396.37,0.5836721477333326
31,1412.54,0.688288098192115
32,1428.89,0.6773531928118488
33,1445.43977,0.6978391629071781
34,1445.44,0.6978394475808133
35,1462.18,0.671200699911833
36,1479.11,0.6742920799574817
37,1496.24,0.6545255944395825
38,1513.56,0.6055262366363124
39,1531.09,0.5242710199913169
40,1548.82,0.42879793778277303
41,1566.75,0.5089429900106811
42,1584.89,0.5401281833968636
43,1603.25,0.4873395246631432
44,1621.81,0.4730900003658746
45,1640.59,0.48293162394870304
46,1659.58691,0.47203816731984843
47,1659.59,0.4720364085028428
48,1678.8,0.5010197069578852
49,1698.24,0.4711511344418012
50,1717.91,0.43210469095459064
51,1737.8,0.45861432740804164
52,1757.92,0.45558309289036614
53,1778.28,0.43536903648977604
54,1798.87,0.42372210911805946
55,1819.7,0.4171213598634282
56,1840.77,0.3888017887258824
57,1862.09,0.3758664447936338
58,1883.65,0.3512052789784706
59,1905.46,0.3387833403686047
60,1905.46072,0.3387825470420588
61,1927.53,0.31421769997919036
62,1949.84,0.32128353289357575
63,1972.42,0.31464865737617653
64,1995.26,0.287218136702244
65,2018.37,0.2970109075965267
66,2041.74,0.28304503333427605
67,2065.38,0.2560204506402408
68,2089.3,0.2671400962391695
69,2113.49,0.2615870334063136
70,2137.96,0.24982319886642174
71,2162.72,0.24185252934424262
72,2187.76,0.23201108811502758
73,2187.7616199999998,0.23201045141753612
74,2213.09,0.22234385671613868
75,2238.72,0.22348515720709458
76,2264.64,0.22009692071570078
77,2290.87,0.21530224813972623
78,2317.39,0.216412038581402
79,2344.23,0.21314844338738156
80,2371.37,0.21280436165989594
81,2398.83,0.20772289429671406
82,2426.61,0.21069304129783598
83,2454.71,0.21759580266326167
84,2483.13,0.21288917839299115
85,2511.88643,0.20970466472989627
86,2511.89,0.20970424440410002
87,2540.97,0.21106746556880732
88,2570.4,0.22172900335688628
89,2600.16,0.21382289681842992
90,2630.27,0.21863510690334523
91,2660.73,0.22969663361163217
92,2691.53,0.22199349646833727
93,2722.7,0.21796263689832102
94,2754.23,0.21208107442662985
95,2786.12,0.22281280905326384
96,2818.38,0.23304882125317639
97,2851.02,0.22369509150132105
98,2884.03,0.23663663932274429
99,2884.0315,0.23663748681314892
100,2917.43,0.2555713018417715
101,2951.21,0.2504149520454078
102,2985.38,0.2509795866652495
103,3019.95,0.24535920530171215
104,3054.92,0.2549918079547957
105,3090.3,0.2608313942249157
106,3126.08,0.27479396451165666
107,3162.28,0.2785585180158495
108,3198.9,0.2948210547374943
109,3235.94,0.2921525746765911
110,3273.41,0.3120440774335554
111,3311.31,0.31704656300838713
112,3311.31121,0.31704670037109633
113,3349.65,0.32137127781421493
114,3388.44,0.3235406480109151
115,3427.68,0.33095267447439825
116,3467.37,0.3234803572046645
117,3507.52,0.3362056885631979
118,3548.13,0.3510316685499984
119,3589.22,0.31973028188803415
120,3630.78,0.3533735362158211
121,3672.82,0.3414784238948434
122,3715.35,0.432810937286585
123,3758.37,0.3548910763910459
124,3801.89,0.3860858335697102
125,3801.8939600000003,0.38608803656075646
126,3845.92,0.4105872082618489
127,3890.45,0.38515328123724274
128,3935.5,0.36963703977174744
129,3981.07,0.4794734838653629
130,4027.17,0.599909607471149
131,4073.8,0.5730434105891059
132,4120.98,0.5822668811253529
133,4168.69,0.6109110311737707
134,4216.97,0.6380448365465983
135,4265.79,0.6438863153846565
136,4315.19,0.6221134435001843
137,4365.15832,0.7072323651311125
138,4365.16,0.707235228537075
139,4415.7,0.7219897089683387
140,4466.84,0.7387483969235193
141,4518.56,0.8078572854851529
142,4570.88,0.8228303815707034
143,4623.81,0.8555586886389027
144,4677.35,0.8361812066897507
145,4731.51,0.8458439391819795
146,4786.3,0.8674678895743211
147,4841.72,0.8517150578667754
148,4897.79,0.8856014509768061
149,4954.5,1.0351240654456815
150,5011.87,1.2072139081908655
151,5011.87234,1.207201605212476
152,5069.91,0.9020620164551204
153,5128.61,0.8959023990302156
154,5188.0,0.8538070682147966
155,5248.07,0.9423110198551027
156,5308.84,0.9933842622586553
157,5370.32,0.9642307995792151
158,5432.5,0.9821106276630213
159,5495.41,1.0026237589713558
160,5559.04,1.0188811893504583
161,5623.41,1.0026699271078496
162,5688.53,1.016594976397291
163,5754.399369999999,1.0283522247679344
164,5754.4,1.0283523376236021
165,5821.03,1.0605128286650278
166,5888.44,0.9448281449054976
167,5956.62,1.0342462757655366
168,6025.6,1.0343192529835699
169,6095.37,1.0463230659801221
170,6165.95,0.9972057359141433
171,6237.35,1.0087732733651082
172,6309.57,1.041759678333017
173,6382.64,1.0684369825562947
174,6456.54,1.061195164875991
175,6531.31,1.0794342676100057
176,6606.93,1.077784269599389
177,6606.93448,1.0777834551624157
178,6683.44,1.0637947401141599
179,6760.83,1.0662352112741504
180,6839.12,1.0772856879134534
181,6918.31,1.0844861700320687
182,6998.42,1.0927166577517593
183,7079.46,1.095967151133406
184,7161.43,1.073587650177009
185,7244.36,1.0723781550652116
186,7328.25,1.1078486657980147
187,7413.1,1.1198491823754173
188,7498.94,1.1518897049800638
189,7585.77575,1.1600998318447957
190,7585.78,1.160100235476405
191,7673.61,1.1364480425575831
192,7762.47,1.151686293009974
193,7852.36,1.1514649868335776
194,7943.28,1.122584124028394
195,8035.08,1.1662136400257999
196,8128.12,1.1788836897904909
197,8222.24,1.1341342044492693
198,8317.45,1.1352051883067094
199,8413.76,1.1407366456673864
200,8511.18,1.1039885808358754
201,8609.74,1.1216310067259005
202,8709.44,1.1745639233374623
203,8709.6359,1.1745276831226863
204,8810.29,1.1559880938970182
205,8912.3,1.1829138516815652
206,9015.5,1.1029410764964387
207,9119.9,1.1678197806696249
208,9225.5,1.1062299642011235
209,9332.33,1.0823116640748922
210,9440.39,1.0328248802909314
211,9549.71,1.1664696498331986
212,9660.29,1.123095972701694
213,9772.15,1.1076638735523894
214,9885.42,1.126183512649102
215,9999.87,1.1250446064481552
216,10000.0,1.125034676925216
217,10115.7,1.1161977787648674
218,10232.8,1.1099825213006844
219,10351.2,1.1015588707135
220,10471.0,1.0966869506092376
221,10592.3,1.0789168845938197
222,10714.9,1.084268425455401
223,10839.0,1.0747918204058267
224,10964.5,1.0525769458391745
225,11091.5,1.033683925361367
226,11219.9,1.0338426353664814
227,11349.8,1.0224931994604405
228,11481.3,1.0131257412491674
229,11481.5362,1.0130813844749802
230,11614.2,0.9883190524297307
231,11748.7,0.986836431834992
232,11884.7,0.9799793730923567
233,12022.4,0.9692023511154384
234,12161.6,0.9585538909906234
235,12302.4,0.9458782301747185
236,12444.9,0.9249276061245307
237,12589.0,0.9024127813832532
238,12735.0,0.9088984683213063
239,12882.5,0.8989747171114628
240,13031.7,0.8911990026673363
241,13182.5674,0.8824972053063048
242,13182.6,0.8824953618940328
243,13335.2,0.8740664731025849
244,13489.6,0.8608458962388919
245,13645.8,0.8383076313029536
246,13803.8,0.8445736782947704
247,13963.7,0.8337493878769949
248,14125.4,0.8212384093869745
249,14288.9,0.7962687428247088
250,14454.4,0.7986450895155041
251,14621.8,0.7538210987967073
252,14791.1,0.7681007706683185
253,14962.4,0.7932634557929907
254,15135.6,0.7797358035080708
255,15135.6125,0.7797358474122087
256,15310.9,0.780811401411572
257,15488.2,0.7862902925859554
258,15667.5,0.7546624442360791
259,15848.9,0.7876194693857302
260,16032.5,0.7696429810586958
261,16218.1,0.7405557532074016
262,16405.9,0.7433530118794219
263,16595.9,0.7561487570747567
264,16788.0,0.7293953757696188
265,16982.4,0.7386950940115822
266,17179.1,0.7158739118006471
267,17378.0,0.7069352161130265
268,17378.0083,0.7069344784940007
269,17579.2,0.6901443358884706
270,17782.8,0.660167212325789
271,17988.7,0.649785645815199
272,18197.0,0.6507847910111393
273,18407.7,0.6178926479136099
274,18620.9,0.6190353711770494
275,18836.5,0.6123918061470193
276,19054.6,0.6097521074779582
277,19275.2,0.5921522751698662
278,19498.4,0.578896463877182
279,19724.2,0.5863266735999054
280,19952.6,0.5829439043380369
281,19952.6231,0.5829433402228833
282,20183.7,0.5796624268924414
283,20417.4,0.5777277843361794
284,20653.8,0.5840399174114881
285,20893.0,0.585766002993611
286,21134.9,0.5864278642073047
287,21379.6,0.5917546779278124
288,21627.2,0.5914456210303778
289,21877.6,0.5901485166397572
290,22130.9,0.6024105416311942
291,22387.2,0.594585872879932
292,22646.4,0.6024363335107275
293,22908.6765,0.610365566813989
294,22908.7,0.6103666780683473
295,23173.9,0.5957527573053676
296,23442.3,0.6093480727926083
297,23713.7,0.5981138597644308
298,23988.3,0.6242148829864735
299,24266.1,0.6360471424587368
300,24547.1,0.6355566381812207
301,24831.3,0.6486613701539249
302,25118.9,0.6635381031424884
303,25409.7,0.6850590723812723
304,25704.0,0.7065839250187349
305,26001.6,0.7268878962892371
306,26302.679900000003,0.7457684904958516
307,26302.7,0.7457700495718458
308,26607.3,0.7705390438606731
309,26915.3,0.7965675508894281
310,27227.0,0.8233446747233989
311,27542.3,0.8487880473408225
312,27861.2,0.8745506687416993
313,28183.8,0.8999819069477915
314,28510.2,0.9263381299808618
315,28840.3,0.9516939698191478
316,29174.3,0.9791811625061745
317,29512.1,1.0054503400201793
318,29853.8,1.0317768703829249
319,30199.5,1.0584301216161738
320,30199.5172,1.058431448675711
321,30549.2,1.088078447004178
322,30903.0,1.1176722669668036
323,31260.8,1.1474773194897752
324,31622.8,1.1776358662011104
325,31988.9,1.2067067762868005
326,32359.4,1.2365524421888714
327,32734.1,1.264964602279306
328,33113.1,1.2933893873721127
329,33496.5,1.3234789282813004
330,33884.4,1.3510253558208778
331,34276.8,1.3807046699908445
332,34673.685,1.4097797719173983
333,34673.7,1.4097808374131053
334,35075.2,1.4379726353096813
335,35481.3,1.4655302147014613
336,35892.2,1.4918323921751924
337,36307.8,1.5202972594375015
338,36728.2,1.5474947247817616
339,37153.5,1.5754576965013478
340,37583.7,1.6034111745962591
341,38018.9,1.631503067359871
342,38459.2,1.6594322830855552
343,38904.5,1.68749991347994
344,39355.0,1.7163577751297718
345,39810.7,1.745370868035051
346,39810.7171,1.7453719741280556
347,40271.7,1.7689543130922902
348,40738.0,1.7929519724595453
349,41209.8,1.8163921886068128
350,41686.9,1.8402468503784561
351,42169.7,1.8658381800857489
352,42658.0,1.8918640665730546
353,43151.9,1.9148600654181913
354,43651.6,1.9417602877767957
355,44157.0,1.9676131780710495
356,44668.4,1.9954194030344081
357,45185.6,2.0238598515112347
358,45708.8,2.0548166346571666
359,45708.818999999996,2.0548177521024606
360,46238.1,2.077584412470021
361,46773.5,2.1012944089337027
362,47315.1,2.1252718999399214
363,47863.0,2.1527178612071065
364,48417.2,2.1796122927352575
365,48977.9,2.2066581459612307
366,49545.0,2.2342184451665976
367,50118.7,2.2609651417882146
368,50699.1,2.2888382115445105
369,51286.1,2.317240678717056
370,51880.0,2.347958470461135
371,52480.746,2.381060611283605
372,52480.8,2.3810625612519214
373,53088.4,2.401641972988344
374,53703.2,2.4239558998078836
375,54325.0,2.446734188513788
376,54954.1,2.4770770689011865
377,55590.4,2.5008484643717033
378,56234.1,2.52143852812209
379,56885.3,2.540595336750725
380,57544.0,2.5508698902576064
381,58210.3,2.560859265241113
382,58884.4,2.572159614897996
383,59566.2,2.58792186262988
384,60255.9586,2.6095059427338523
385,60256.0,2.6095067795912072
386,60953.7,2.616468892266114
387,61659.5,2.6339784753619275
388,62373.5,2.638335497649277
389,63095.7,2.620589959128161
390,63826.4,2.605171766110466
391,64565.4,2.595368981054935
392,65313.1,2.587240479044082
393,66069.3,2.58010732253665
394,66834.4,2.5681303866151524
395,67000.0,2.5629998285482376
396,67608.3,2.5419488584633467
397,68391.2,2.5108846645466762
398,69183.1,2.501853038588558
399,69242.2916,2.5002479830717785
400,69984.2,2.4732130447973946
401,70794.6,2.4244158596541423
402,71559.6261,2.384870528107161
403,71614.3,2.38158150218257
404,72443.6,2.3318031177628002
405,73282.5,2.2930721635969453
406,73954.515,2.250583134979757
407,74131.0,2.2342370694213485
408,74989.4,2.1717537934302067
409,75857.8,2.096439318976912
410,76429.5536,2.047625400714111
411,76736.1,2.011146309572818
412,77624.7,1.903741544264932
413,78523.6,1.7788609128950696
414,78987.42450000001,1.721583536868812
415,79432.8,1.6627047654909344
416,80352.6,1.54135763397428
417,81283.1,1.4109175313690978
418,81630.8998,1.3641892041911794
419,82224.3,1.2888144957381553
420,83176.4,1.1813219226027285
421,84139.5,1.065888998028912
422,84362.84430000001,1.0406704394844777
423,85113.8,0.984362408063584
424,86099.4,0.9116110508427894
425,87096.4,0.8378523126638805
426,87186.21900000001,0.8316172675401168
427,88104.9,0.7861437700750957
428,89125.1,0.7422335669634086
429,90104.0836,0.7001583184428802
430,90157.1,0.6982932600735599
431,91201.1,0.6646679704290371
432,92257.1,0.6343660107886004
433,93119.6005,0.6105991919741056
434,93325.4,0.6092679775773233
435,94406.1,0.6042782997714284
436,95499.3,0.6013673058994895
437,96236.03790000001,0.600465039511991
438,96605.1,0.6040062147059612
439,97723.7,0.6160797997136322
440,98855.3,0.6291570326786607
441,99456.7731,0.6372756450005999
442,100000.0,0.6476005850505353
443,101158.0,0.6708798773822856
444,102329.0,0.6955454320631832
445,102785.297,0.7054094412353216
446,103514.0,0.7203032219236929
447,104713.0,0.7468408472086348
448,105925.0,0.7738764108828213
449,106225.216,0.7807512914766466
450,107152.0,0.8054811132520416
451,108393.0,0.838875417141124
452,109648.0,0.8734293956913242
453,109780.26,0.8776297870654209
454,110917.0,0.9135175096790751
455,112202.0,0.954002543726097
456,113454.28,0.98759148784429
457,113501.0,0.9888258060999546
458,114815.0,1.0194540786340525
459,116145.0,1.0557006725993112
460,117251.259,1.0858328300629423
461,117490.0,1.0923766030203612
462,118850.0,1.1295683272062975
463,120226.0,1.1655191187355975
464,121175.312,1.1903831797591033
465,121619.0,1.2005490357571063
466,123027.0,1.2329944378285937
467,124451.0,1.2638084353781665
468,125230.691,1.2801675055829622
469,125893.0,1.2924386625714313
470,127350.0,1.321292753002577
471,128825.0,1.3457989728968394
472,129421.79100000001,1.3474781288845028
473,130317.0,1.3456762383599872
474,131826.0,1.3605648012895593
475,133352.0,1.3736090478306637
476,133753.155,1.3767537236421794
477,134896.0,1.3809560909837373
478,136458.0,1.380312887833124
479,138038.0,1.3902340229304548
480,138229.477,1.3908619670249898
481,139637.0,1.3912256725034813
482,141254.0,1.3837668147595727
483,142855.609,1.3904887737746385
484,142889.0,1.3904809238583602
485,144544.0,1.3791156406642426
486,146218.0,1.3677544931917636
487,147636.563,1.359335274235291
488,147911.0,1.3577868688691797
489,149624.0,1.3456537152058468
490,151356.0,1.333978262698612
491,152577.522,1.3258253130629285
492,153109.0,1.3220729141837468
493,154882.0,1.310580423383756
494,156675.0,1.2983651633700033
495,157683.84,1.2912976287004518
496,158489.0,1.2861673639063849
497,160325.0,1.276432938721746
498,162181.0,1.2676634217594964
499,162961.05099999998,1.2648578059654294
500,164059.0,1.2603156510287463
501,165959.0,1.25282148161484
502,167880.0,1.24494237085478
503,168414.875,1.243067242795144
504,169824.0,1.2407470497360358
505,171791.0,1.2380348890955728
506,173780.0,1.2328956442994972
507,174051.222,1.2323085114070922
508,175792.0,1.2289866927658761
509,177828.0,1.2259040193067035
510,179876.201,1.2237941006575022
511,179887.0,1.2237729581147143
512,181970.0,1.2192982349282606
513,184077.0,1.2160549484405705
514,185896.125,1.214882835867281
515,186209.0,1.21522005178994
516,188365.0,1.2175946839684633
517,190546.0,1.2213299491731753
518,192117.51799999998,1.2244935717960352
519,192752.0,1.2251060758697
520,194984.0,1.2339439190062471
521,197242.0,1.238959019276105
522,198547.123,1.2385089446399826
523,199526.0,1.238275988946023
524,201837.0,1.242862396883228
525,204174.0,1.232919840565291
526,205191.907,1.2316829388309007
527,206538.0,1.2281447724637176
528,208930.0,1.2273413785440022
529,211349.0,1.2267187849437546
530,212059.073,1.2255086481384172
531,213796.0,1.2228635609851464
532,216272.0,1.2224012187713962
533,218776.0,1.2218222668718688
534,219156.062,1.2217441134798301
535,221309.0,1.2214514682795359
536,223872.0,1.2207560283838585
537,226464.0,1.2185076927577974
538,226490.56699999998,1.2185097720643732
539,229087.0,1.2145169961923292
540,231739.0,1.2154956043305323
541,234070.535,1.2158737274990512
542,234423.0,1.2160305241501392
543,237137.0,1.2414593864123038
544,239883.0,1.2355669714424824
545,241904.18300000002,1.2312243439368933
546,242661.0,1.2293394537289402
547,245471.0,1.2223304862097786
548,248313.0,1.2152382977081921
549,250000.0,1.2110188996599096
550,251189.0,1.207944370036181
551,254097.0,1.200417645825922
552,257040.0,1.1917529971495835
553,260016.0,1.1829744196909417
554,263027.0,1.1740819177662203
555,266072.0,1.1640154892173076
556,269153.0,1.1548751383604272
557,272270.0,1.1456158651955795
558,275422.87,1.1373160119445884
559,275423.0,1.1373156965678781
560,278612.0,1.1295681100812005
561,281838.0,1.121717243977086
562,285102.0,1.1137673069145222
563,288403.0,1.1057160902345213
564,291743.0,1.0964280112550595
565,295121.0,1.084751861317149
566,298538.0,1.0740668490797773
567,301995.0,1.0620951832019334
568,305492.0,1.049981863683617
569,309030.0,1.037712099183816
570,312608.0,1.0252906810435425
571,316227.766,1.013866765080536
572,316228.0,1.0138661763480201
573,319890.0,1.0046350789851883
574,323594.0,0.9952846266007185
575,327341.0,0.9858076678845713
576,331131.0,0.9762082028367471
577,334965.0,0.9676600801472066
578,338844.0,0.9601881485059109
579,342768.0,0.9538234079128602
580,346737.0,0.9473848583680543
581,350752.0,0.9408713485614542
582,354813.0,0.9293088784930599
583,358922.0,0.9176001455427935
584,363078.0,0.9045033010206939
585,363078.055,0.904503143973618
586,367282.0,0.8960144373436885
587,371535.0,0.8861701781562785
588,375837.0,0.876207477468708
589,380189.0,0.8648910201483204
590,384592.0,0.8534584910624596
591,389045.0,0.8431452053437819
592,393550.0,0.8314805327269745
593,398107.0,0.8209304732120375
594,402717.0,0.8090247116663145
595,407380.0,0.7982292480898056
596,412098.0,0.786078452217198
597,416869.0,0.7738009543138045
598,416869.38300000003,0.7737999704992897
599,421696.0,0.765258883686793
600,426580.0,0.755414706740497
601,431519.0,0.7467081494231842
602,436516.0,0.7379196637146171
603,441570.0,0.7278397656215418
604,446684.0,0.7188819071237209
605,451856.0,0.7086381202346457
606,457088.0,0.699507372940825
607,462381.0,0.6890961492355128
608,467735.0,0.6786044491187091
609,473151.0,0.6692107565836682
610,478630.0,0.6585435556236446
611,478630.092,0.6585433772228392
612,484172.0,0.6512748074490161
613,489779.0,0.6439503689278141
614,495450.0,0.6354290707552196
615,501187.0,0.6280221360671269
616,506991.0,0.6194206764314827
617,512861.0,0.6119195802803401
618,518800.0,0.6032351823175401
619,524808.0,0.5956404825430829
620,530884.0,0.5868753693890212
621,537032.0,0.5780702891271431
622,543250.0,0.5703300186215545
623,549540.874,0.5614340707531563
624,549541.0,0.5614339446512149
625,555904.0,0.5540376449627331
626,562341.0,0.5455671851018565
627,568853.0,0.5371250899311205
628,575440.0,0.5297603594505249
629,582103.0,0.521359518522605
630,588844.0,0.5129776168724312
631,595662.0,0.5046181296374683
632,602560.0,0.4932726314053219
633,609537.0,0.4810545973134568
