,lambda (Angstroms),Total Flux (erg/s/cm^2/Angstrom)
0,1011.58,1.1635720856550322
1,1023.29,0.8220760674642446
2,1035.14,0.9881809773224144
3,1047.13,1.3575038152295413
4,1059.25,1.190627586324986
5,1071.52,1.1344512803300275
6,1083.93,0.9995929023840263
7,1096.4782,1.1796726206152546
8,1096.48,1.1796984505167194
9,1109.17,1.0858880383128957
10,1122.02,0.9480233687448002
11,1135.01,1.1009464739829666
12,1148.15,1.0274753379421282
13,1161.45,1.0110539445370177
14,1174.9,0.6455283098529022
15,1188.5,0.9157554338897816
16,1202.26,0.7142473005623892
17,1216.19,0.4656078937854576
18,1230.27,0.850683245729521
19,1244.51,0.9010343403093125
20,1258.92541,0.8927587803691969
21,1258.93,0.8927561532625933
22,1273.5,0.9587718202666083
23,1288.25,0.9326645078650448
24,1303.17,0.8545692149137686
25,1318.26,0.9348139414127793
26,1333.52,0.8428526873620771
27,1348.96,0.8644614539057965
28,1364.58,0.8236822410439376
29,1380.38,0.7705080487765003
30,1396.37,0.5805948782476189
31,1412.54,0.6851997283131592
32,1428.89,0.6742535989731213
33,1445.43977,0.6947282079704254
34,1445.44,0.6947284925115448
35,1462.18,0.6680800999874047
36,1479.11,0.6711617257082116
37,1496.24,0.6513853706342261
38,1513.56,0.6023760338051876
39,1531.09,0.5211107171416167
40,1548.82,0.4256274196832533
41,1566.75,0.5057621414300973
42,1584.89,0.5369368833424091
43,1603.25,0.484137646380449
44,1621.81,0.46987742862369636
45,1640.59,0.4797082319926719
46,1659.58691,0.46880383017591815
47,1659.59,0.46880205835754896
48,1678.8,0.49770452956541217
49,1698.24,0.46775416206311443
50,1717.91,0.4286249558506558
51,1737.8,0.4550509039154345
52,1757.92,0.4519350132700523
53,1778.28,0.43163529092711084
54,1798.87,0.4199017298740085
55,1819.7,0.41321333712334685
56,1840.77,0.38480511267512607
57,1862.09,0.3717800635419477
58,1883.65,0.34702818271121005
59,1905.46,0.33451447719551497
60,1905.46072,0.33451368083952515
61,1927.53,0.3100685285684558
62,1949.84,0.31725536184193937
63,1972.42,0.3107429510537395
64,1995.26,0.2834363052431777
65,2018.37,0.2933544153709324
66,2041.74,0.2795152904763251
67,2065.38,0.2526189215200344
68,2089.3,0.2638682994627385
69,2113.49,0.2584464333437591
70,2137.96,0.24681531412377453
71,2162.72,0.23897893276346321
72,2187.76,0.2292732983021468
73,2187.7616199999998,0.22927267039087595
74,2213.09,0.21949655095944837
75,2238.72,0.22052702245815636
76,2264.64,0.21702670295938584
77,2290.87,0.21211860687710374
78,2317.39,0.21311371979734314
79,2344.23,0.2097340633410545
80,2371.37,0.20927262309427086
81,2398.83,0.20407241347095917
82,2426.61,0.20692243447111944
83,2454.71,0.21370368609475165
84,2483.13,0.20887416834185588
85,2511.88643,0.2055653064088606
86,2511.89,0.20556489205772857
87,2540.97,0.2069767807955439
88,2570.4,0.21768757190812663
89,2600.16,0.2098312709740614
90,2630.27,0.21469387241476362
91,2660.73,0.22580637623023317
92,2691.53,0.21815478520976245
93,2722.7,0.21417609098547444
94,2754.23,0.2083472963466614
95,2786.12,0.2191324012933234
96,2818.38,0.22942240303616807
97,2851.02,0.220123298785903
98,2884.03,0.2331200913318206
99,2884.0315,0.23312094133258834
100,2917.43,0.25205590026311026
101,2951.21,0.24690070743505826
102,2985.38,0.24746651238074993
103,3019.95,0.24184731504310175
104,3054.92,0.25148111542211365
105,3090.3,0.2573219134607022
106,3126.08,0.27128570921595097
107,3162.28,0.2750515025736928
108,3198.9,0.29131529353392777
109,3235.94,0.2886480820966559
110,3273.41,0.3085408682047936
111,3311.31,0.313544651858341
112,3311.31121,0.31354478926249285
113,3349.65,0.31789446825917356
114,3388.44,0.32008923543013074
115,3427.68,0.32752695349634264
116,3467.37,0.3200806224578092
117,3507.52,0.332832241223314
118,3548.13,0.34768480979285693
119,3589.22,0.31641032598400487
120,3630.78,0.35008079088797445
121,3672.82,0.33821320341354905
122,3715.35,0.42957356246951217
123,3758.37,0.3516818680558637
124,3801.89,0.3829051190813872
125,3801.8939600000003,0.382907324665164
126,3845.92,0.40742931546597844
127,3890.45,0.3820184687481775
128,3935.5,0.36652557711024963
129,3981.07,0.4763856405521947
130,4027.17,0.5968456582101641
131,4073.8,0.570003630084158
132,4120.98,0.5792515544464789
133,4168.69,0.6079204330248243
134,4216.97,0.6350792623637997
135,4265.79,0.6409460450549509
136,4315.19,0.6191987776428834
137,4365.15832,0.704343598311677
138,4365.16,0.7043464612195821
139,4415.7,0.7190859584240483
140,4466.84,0.7358294852747884
141,4518.56,0.8049230407835932
142,4570.88,0.819880625938672
143,4623.81,0.852593241234129
144,4677.35,0.8331998866699644
145,4731.51,0.8428465627402828
146,4786.3,0.8644542699391887
147,4841.72,0.8486850082666823
148,4897.79,0.8825547787109723
149,4954.5,1.0320605807779544
150,5011.87,1.2041334154558379
151,5011.87234,1.2041211117837256
152,5069.91,0.8989608594935886
153,5128.61,0.8927803427186023
154,5188.0,0.8506638668878281
155,5248.07,0.9391464314078718
156,5308.84,0.9901980374655222
157,5370.32,0.9610226856541736
158,5432.5,0.9788803753804316
159,5495.41,0.9993711084244794
160,5559.04,1.0156058841929227
161,5623.41,0.9993717038725499
162,5688.53,1.013273568056756
163,5754.399369999999,1.0250073645189959
164,5754.4,1.025007476803372
165,5821.03,1.057107546952147
166,5888.44,0.9413617349864997
167,5956.62,1.0307180393950766
168,6025.6,1.0307284647119386
169,6095.37,1.0426690094257318
170,6165.95,0.9934876765591633
171,6237.35,1.0049904676235868
172,6309.57,1.0379113826190023
173,6382.64,1.0645224260794708
174,6456.54,1.0572135949822845
175,6531.31,1.075384895372858
176,6606.93,1.0736663242284843
177,6606.93448,1.0736655057289926
178,6683.44,1.0596763914448801
179,6760.83,1.0621164587534502
180,6839.12,1.0731665268447792
181,6918.31,1.0803665957188668
182,6998.42,1.0885966653931085
183,7079.46,1.0918467358762007
184,7161.43,1.0694668071681441
185,7244.36,1.0682568792950302
186,7328.25,1.1037269522568594
187,7413.1,1.1157270260536312
188,7498.94,1.1477671007114378
189,7585.77575,1.155976774433115
190,7585.78,1.1559771764966291
191,7673.61,1.1322925775082262
192,7762.47,1.1474980418585679
193,7852.36,1.147243569547654
194,7943.28,1.1183291605754848
195,8035.08,1.1619248057179714
196,8128.12,1.1745605271129274
197,8222.24,1.1297763149213242
198,8317.45,1.1308121697581013
199,8413.76,1.136308092238198
200,8511.18,1.0995240829765538
201,8609.74,1.1171301438179857
202,8709.44,1.1700262747624945
203,8709.6359,1.169989962267757
204,8810.29,1.1513440134138597
205,8912.3,1.1781619788116522
206,9015.5,1.0980801537852054
207,9119.9,1.1628485400956607
208,9225.5,1.1011471377430178
209,9332.33,1.0771159520106988
210,9440.39,1.0275149828987045
211,9549.71,1.161044235690457
212,9660.29,1.1175537103859563
213,9772.15,1.102003410507484
214,9885.42,1.1204033589498716
215,9999.87,1.1191435152068794
216,10000.0,1.119133448314954
217,10115.7,1.110173968394981
218,10232.8,1.1038346459000978
219,10351.2,1.0952855529590715
220,10471.0,1.0902867072298912
221,10592.3,1.0723881263705457
222,10714.9,1.0776097750650573
223,10839.0,1.0680016886294037
224,10964.5,1.0456538494055962
225,11091.5,1.0266262750516237
226,11219.9,1.0266489479094973
227,11349.8,1.0151618856372058
228,11481.3,1.0056551058927383
229,11481.5362,1.005610498869531
230,11614.2,0.9805781503471044
231,11748.7,0.9788217759764274
232,11884.7,0.9716879104417653
233,12022.4,0.9606306215879198
234,12161.6,0.9496988415700891
235,12302.4,0.9367366043106741
236,12444.9,0.9154959437320758
237,12589.0,0.8926878259118933
238,12735.0,0.8988763526173295
239,12882.5,0.8886523881587804
240,13031.7,0.880573000381048
241,13182.5674,0.8715641359537266
242,13182.6,0.8715621945562904
243,13335.2,0.862674639014655
244,13489.6,0.8489899851769845
245,13645.8,0.8259822330432791
246,13803.8,0.8317733826135386
247,13963.7,0.8204684839824278
248,14125.4,0.807471487055282
249,14288.9,0.7820103918321013
250,14454.4,0.7838892985022148
251,14621.8,0.7385621569709582
252,14791.1,0.7523329672383312
253,14962.4,0.7769807793989987
254,15135.6,0.7629325433582959
255,15135.6125,0.7629325496914352
256,15310.9,0.7630870573445102
257,15488.2,0.7676343275122793
258,15667.5,0.7350643491765827
259,15848.9,0.7670682099122471
260,16032.5,0.7481269972940994
261,16218.1,0.7180645361724859
262,16405.9,0.7198750016970603
263,16595.9,0.7316723938678225
264,16788.0,0.7039096251099455
265,16982.4,0.7121878705730832
266,17179.1,0.6883331302572353
267,17378.0,0.6783493165875752
268,17378.0083,0.6783485353562857
269,17579.2,0.6595671908412101
270,17782.8,0.6275750303322556
271,17988.7,0.6151556636878857
272,18197.0,0.6140932558587342
273,18407.7,0.5791158068448014
274,18620.9,0.5781484815967214
275,18836.5,0.5693711151638599
276,19054.6,0.5645728724968512
277,19275.2,0.5447897535956953
278,19498.4,0.529324923411026
279,19724.2,0.5345203819428436
280,19952.6,0.5288771291911482
281,19952.6231,0.5288763364544157
282,20183.7,0.5212837752703487
283,20417.4,0.5149885406194542
284,20653.8,0.5168897024873554
285,20893.0,0.5141525718562302
286,21134.9,0.5103008377439007
287,21379.6,0.5110618111325447
288,21627.2,0.5061328030043397
289,21877.6,0.5001635023771082
290,22130.9,0.5076992202330277
291,22387.2,0.495092267554276
292,22646.4,0.4981063333586753
293,22908.6765,0.5011417676353735
294,22908.7,0.5011420968669067
295,23173.9,0.4777029653293382
296,23442.3,0.48236658182751546
297,23713.7,0.46210083710920435
298,23988.3,0.4790638404266391
299,24266.1,0.4816515917798196
300,24547.1,0.4718100911687458
301,24831.3,0.4754573385934178
302,25118.9,0.4807634433060698
303,25409.7,0.49260729605446746
304,25704.0,0.5043385607169621
305,26001.6,0.5147391280413196
306,26302.679900000003,0.5236005156963045
307,26302.7,0.5236011499388351
308,26607.3,0.5343550062658105
309,26915.3,0.5462119358413469
310,27227.0,0.5586472392461999
311,27542.3,0.5695831496201175
312,27861.2,0.5806726669630998
313,28183.8,0.5912605581353988
314,28510.2,0.6025985899972659
315,28840.3,0.6127659956884497
316,29174.3,0.6248853089294535
317,29512.1,0.6356117628600256
318,29853.8,0.6462161243404179
319,30199.5,0.656963160230882
320,30199.5172,0.6569636958906393
321,30549.2,0.6682349210005969
322,30903.0,0.6792366095666862
323,31260.8,0.6902393313556822
324,31622.8,0.7013748380287301
325,31988.9,0.7112072537552572
326,32359.4,0.7215832060269816
327,32734.1,0.730304943182758
328,33113.1,0.738813341053159
329,33496.5,0.7487552754687572
330,33884.4,0.7559176222601254
331,34276.8,0.7649763814272635
332,34673.685,0.7731952423438848
333,34673.7,0.7731955482018722
334,35075.2,0.7810543764728117
335,35481.3,0.7880460306716373
336,35892.2,0.7935391988821703
337,36307.8,0.8009570370625002
338,36728.2,0.8068643892545373
339,37153.5,0.8132890995001926
340,37583.7,0.8194561677994656
341,38018.9,0.8255084381942672
342,38459.2,0.8311397547265079
343,38904.5,0.8366562733542772
344,39355.0,0.8426996821613959
345,39810.7,0.8486349811478644
346,39810.7171,0.8486352212538685
347,40271.7,0.8542171875846128
348,40738.0,0.8600068532085064
349,41209.8,0.8650243126581161
350,41686.9,0.8702492643397794
351,42169.7,0.8769883114408212
352,42658.0,0.8839471523675791
353,43151.9,0.8876574379168845
354,43651.6,0.8950454696823994
355,44157.0,0.9011635968672929
356,44668.4,0.9090007718620583
357,45185.6,0.9172456930730335
358,45708.8,0.9277726620938809
359,45708.818999999996,0.9277730376307879
360,46238.1,0.937039773210003
361,46773.5,0.9470937727048147
362,47315.1,0.957257128562846
363,47863.0,0.9707282658867296
364,48417.2,0.9834871846764653
365,48977.9,0.9962317351373187
366,49545.0,1.0093274921666568
367,50118.7,1.021441305969745
368,50699.1,1.0345106016492158
369,51286.1,1.0479409541024365
370,51880.0,1.063510638637305
371,52480.746,1.0812900570932065
372,52480.8,1.0812915087502744
373,53088.4,1.096263996141192
374,53703.2,1.112904557115412
375,54325.0,1.1299448840733983
376,54954.1,1.1544824384144552
377,55590.4,1.1723820663388147
378,56234.1,1.1870320754460129
379,56885.3,1.2001796195358179
380,57544.0,1.2043756986082295
381,58210.3,1.208216466463016
382,58884.4,1.2132962306997137
383,59566.2,1.2227668375185543
384,60255.9586,1.2379858348594235
385,60256.0,1.237986682798744
386,60953.7,1.2451355560380164
387,61659.5,1.2628340679088468
388,62373.5,1.2673822139498967
389,63095.7,1.249829994161166
390,63826.4,1.234607395158638
391,64565.4,1.2250024258649908
392,65313.1,1.2170740684348689
393,66069.3,1.21014333179095
394,66834.4,1.1983711980878788
395,67000.0,1.193284967883167
396,67608.3,1.1742866940661925
397,68391.2,1.1458643806495252
398,69183.1,1.1395050055126512
399,69242.2916,1.1380996908744054
400,69984.2,1.1194972921139135
401,70794.6,1.0799111228077347
402,71559.6261,1.04906108682205
403,71614.3,1.0467902145975099
404,72443.6,1.012455302537543
405,73282.5,0.9893465947995637
406,73954.515,0.9593720302820649
407,74131.0,0.9507590099173355
408,74989.4,0.9258882562043153
409,75857.8,0.8886244741395588
410,76429.5536,0.8648630896810404
411,76736.1,0.8506509013675454
412,77624.7,0.807792220609276
413,78523.6,0.7482058446992956
414,78987.42450000001,0.7246197306505127
415,79432.8,0.7014175379272763
416,80352.6,0.6537505191391829
417,81283.1,0.5978476473384425
418,81630.8998,0.57897964683042
419,82224.3,0.547409499391165
420,83176.4,0.5102005603718184
421,84139.5,0.46586328543270167
422,84362.84430000001,0.45713191212418075
423,85113.8,0.43184348686622626
424,86099.4,0.3998041501203985
425,87096.4,0.36722833038055436
426,87186.21900000001,0.3647034242249742
427,88104.9,0.34149253858215656
428,89125.1,0.3223050809947727
429,90104.0836,0.3039537713247305
430,90157.1,0.30301903715336564
431,91201.1,0.28771371006129104
432,92257.1,0.27594228725551434
433,93119.6005,0.26731050374893844
434,93325.4,0.2658708539396176
435,94406.1,0.26031175711020405
436,95499.3,0.25682475798564136
437,96236.03790000001,0.25553430563015267
438,96605.1,0.25545831638656585
439,97723.7,0.2565685428162332
440,98855.3,0.2585550046683801
441,99456.7731,0.2607786006571138
442,100000.0,0.2632143692929336
443,101158.0,0.26967626819746937
444,102329.0,0.2773356331518833
445,102785.297,0.28057293578804776
446,103514.0,0.2856201745605276
447,104713.0,0.2959564067440907
448,105925.0,0.306614915840403
449,106225.216,0.30943315137057226
450,107152.0,0.31863415903600595
451,108393.0,0.33123477387730343
452,109648.0,0.3447604850987606
453,109780.26,0.34674478194146335
454,110917.0,0.3637687870970107
455,112202.0,0.38292979196087096
456,113454.28,0.3957376813977491
457,113501.0,0.39621282944285063
458,114815.0,0.4054894398048646
459,116145.0,0.42012438179990164
460,117251.259,0.4322805358823853
461,117490.0,0.4349098004314802
462,118850.0,0.44980233245804246
463,120226.0,0.46319158839079966
464,121175.312,0.47249028860018777
465,121619.0,0.4766284336795866
466,123027.0,0.4899454911183705
467,124451.0,0.5014137764825952
468,125230.691,0.5071803764068389
469,125893.0,0.511846666081633
470,127350.0,0.5239709647146539
471,128825.0,0.5315407104138342
472,129421.79100000001,0.5263673000480349
473,130317.0,0.517989748337141
474,131826.0,0.521794114469937
475,133352.0,0.5236292925472377
476,133753.155,0.5238273275595415
477,134896.0,0.5237120129976768
478,136458.0,0.5171675554047319
479,138038.0,0.5211194318472079
480,138229.477,0.5210239735749985
481,139637.0,0.5197148103576401
482,141254.0,0.5103341163942247
483,142855.609,0.5151525316951974
484,142889.0,0.51523184626548
485,144544.0,0.5081868058091775
486,146218.0,0.5011954990273948
487,147636.563,0.49647932327266453
488,147911.0,0.49557840983845425
489,149624.0,0.4874868164579781
490,151356.0,0.47989775181408745
491,152577.522,0.47462679564007126
492,153109.0,0.4723041305976781
493,154882.0,0.46558120334053654
494,156675.0,0.4581893090528576
495,157683.84,0.4538356641095148
496,158489.0,0.45043390912948356
497,160325.0,0.4446409912459637
498,162181.0,0.43985591739421376
499,162961.05099999998,0.43872490765229544
500,164059.0,0.43704823586124947
501,165959.0,0.43451278308783425
502,167880.0,0.4316471958363971
503,168414.875,0.43116801175733094
504,169824.0,0.43027986424800513
505,171791.0,0.4295666984422246
506,173780.0,0.4264488063284996
507,174051.222,0.42613730707974073
508,175792.0,0.424201813252268
509,177828.0,0.42274057418667194
510,179876.201,0.42226180659167395
511,179887.0,0.42225785115924486
512,181970.0,0.4210983192754658
513,184077.0,0.42120842120579577
514,185896.125,0.4229315306096919
515,186209.0,0.42330486454142
516,188365.0,0.42592838342406625
517,190546.0,0.42991542131045357
518,192117.51799999998,0.43326045856016404
519,192752.0,0.43451601083852853
520,194984.0,0.44561598842946387
521,197242.0,0.4529195741823008
522,198547.123,0.45379224314183886
523,199526.0,0.4544617127065747
524,201837.0,0.46117862812617544
525,204174.0,0.4533905486521844
526,205191.907,0.45309205387577045
527,206538.0,0.4524255389233882
528,208930.0,0.4567250540777146
529,211349.0,0.46126296927767924
530,212059.073,0.46156764767089187
531,213796.0,0.4623579372835923
532,216272.0,0.4667927455387709
533,218776.0,0.4711663238388384
534,219156.062,0.4718398751323902
535,221309.0,0.47567678118279083
536,223872.0,0.4798974326262655
537,226464.0,0.4826208132511139
538,226490.56699999998,0.48267385073116115
539,229087.0,0.48725785659890414
540,231739.0,0.4969968006186475
541,234070.535,0.5050766695336094
542,234423.0,0.506312360592877
543,237137.0,0.5400487694874719
544,239883.0,0.5425618530632118
545,241904.18300000002,0.5444060612338111
546,242661.0,0.5450596362469915
547,245471.0,0.5474757837442541
548,248313.0,0.5499160425297418
549,250000.0,0.5513550676247715
550,251189.0,0.5523549100051687
551,254097.0,0.5547930922608459
552,257040.0,0.5562132853070834
553,260016.0,0.5576326313844202
554,263027.0,0.5590579882523172
555,266072.0,0.5594259270310439
556,269153.0,0.560843305480061
557,272270.0,0.5622651235993685
558,275422.87,0.5647692781369801
559,275423.0,0.5647693852239826
560,278612.0,0.5673851585830286
561,281838.0,0.5700178919967265
562,285102.0,0.5726750438449317
563,288403.0,0.5753511557477887
564,291743.0,0.5769171444650085
565,295121.0,0.5762185516167355
566,298538.0,0.5766378355828253
567,301995.0,0.5759004547431333
568,305492.0,0.5751514090976595
569,309030.0,0.5743791570262594
570,312608.0,0.5735852401490775
571,316227.766,0.5739245532909052
572,316228.0,0.5739245966211457
573,319890.0,0.5745850112835983
574,323594.0,0.575239518085817
575,327341.0,0.5758836668406531
576,331131.0,0.5765214575481067
577,334965.0,0.5783294400210296
578,338844.0,0.581335164072273
579,342768.0,0.5855696297018372
580,346737.0,0.5898518369097221
581,350752.0,0.5941833355087792
582,354813.0,0.5935901254990086
583,358922.0,0.5929803065061134
584,363078.0,0.591109328717242
585,363078.055,0.5911093202319251
586,367282.0,0.5909629196205268
587,371535.0,0.5895583111651826
588,375837.0,0.588132496781244
589,380189.0,0.5854521457354743
590,384592.0,0.5827569272946371
591,389045.0,0.5812801721919688
592,393550.0,0.5785552189609964
593,398107.0,0.5770480676017197
594,402717.0,0.5742903873809021
595,407380.0,0.5727481782985436
596,412098.0,0.5699597788881711
597,416869.0,0.5671498506162578
598,416869.38300000003,0.5671496268267208
599,421696.0,0.5648804119552561
600,426580.0,0.5613826723914995
601,431519.0,0.5590940213461691
602,436516.0,0.5567988091020881
603,441570.0,0.5532862522316488
604,446684.0,0.5509737010176744
605,451856.0,0.5474505886049493
606,457088.0,0.5451184818486893
607,462381.0,0.5415851641765018
608,467735.0,0.5380506355883871
609,473151.0,0.5356946795119526
610,478630.0,0.5321470793748064
611,478630.092,0.5321470205219615
612,484172.0,0.5290986867784309
613,489779.0,0.5260440527039734
614,495450.0,0.5218412958221742
615,501187.0,0.5188031622953039
616,506991.0,0.5146215252044976
617,512861.0,0.51159051146862
618,518800.0,0.5074287403310771
619,524808.0,0.504409211791869
620,530884.0,0.5002710527698602
621,537032.0,0.49614775558959184
622,543250.0,0.4931425740887935
623,549540.874,0.4890372097372688
624,549541.0,0.48903713495017354
625,555904.0,0.48423223499467616
626,562341.0,0.47838331215740804
627,568853.0,0.47259329856158866
628,575440.0,0.46791119420721783
629,582103.0,0.462223931217515
