,lambda (Angstroms),Total Flux (erg/s/cm^2/Angstrom)
0,1000.94,0.7350742344084269
1,1012.53,0.924803651429632
2,1024.25,0.5897048824467609
3,1036.11,0.8131599131518077
4,1048.11,1.3921307435447725
5,1060.25,1.290413373625655
6,1072.52,1.2963458177024614
7,1084.94,1.23240804715918
8,1096.4782,1.5182488369434295
9,1097.51,1.543806917743978
10,1110.22,1.4948500004980352
11,1123.07,1.3728724563115395
12,1136.08,1.676874195621554
13,1149.23,1.6236953079910155
14,1162.54,1.7197257038569875
15,1176.0,1.176645428000938
16,1189.62,1.6843744356413992
17,1203.39,1.231912771559839
18,1217.33,0.6041303461933213
19,1231.42,1.6841872491047822
20,1245.68,1.9201133907312857
21,1258.92541,1.9445530358476901
22,1260.11,1.9467444531654372
23,1274.7,2.179099100483952
24,1289.46,2.204323801952169
25,1304.39,1.9783685575700878
26,1319.49,2.334863367337708
27,1334.77,2.119768234440307
28,1350.23,2.224733158877884
29,1365.86,2.184148137465162
30,1381.68,2.0859131765726953
31,1397.68,1.608368273015207
32,1413.86,1.9245234267926965
33,1430.24,1.9025186442757178
34,1445.43977,2.014456574681538
35,1446.8,2.0244738494626406
36,1463.55,1.9921283273572752
37,1480.5,2.015182858719308
38,1497.64,2.0013174408753702
39,1514.98,1.8507320764988306
40,1532.52,1.6270167655896899
41,1550.27,1.3818515108213174
42,1568.22,1.6232963095203439
43,1586.38,1.7114911643601387
44,1604.75,1.5754660753407022
45,1623.33,1.5361110424620343
46,1642.13,1.5396560683975047
47,1659.58691,1.5170823974204435
48,1661.15,1.5150637869147099
49,1680.38,1.5900913298746275
50,1699.84,1.5326693218663072
51,1719.52,1.4141677433666284
52,1739.43,1.4944566138987116
53,1759.57,1.4944959334625567
54,1779.95,1.4405357215812842
55,1800.56,1.3821559587317729
56,1821.41,1.375856664437144
57,1842.5,1.2753678386973968
58,1863.84,1.204169501035652
59,1885.42,1.1395816319287888
60,1905.46072,1.0654251099162961
61,1907.25,1.0587962548511143
62,1929.33,0.9635346893851612
63,1951.67,0.9881444696157144
64,1974.27,0.9096285955427735
65,1997.14,0.8202160420008197
66,2020.26,0.8163968593208908
67,2043.66,0.7602119720064299
68,2067.32,0.680778430388475
69,2091.26,0.6933451841359881
70,2115.47,0.6426622584144881
71,2139.97,0.6095256028929372
72,2164.75,0.5969912427368543
73,2187.7616199999998,0.5759447527082798
74,2189.82,0.5740714627920949
75,2215.17,0.5597963257419922
76,2240.82,0.5715427906202906
77,2266.77,0.5862198574269901
78,2293.02,0.6082195261620909
79,2319.57,0.6368667968255928
80,2346.43,0.6369206894817758
81,2373.6,0.66538620413064
82,2401.08,0.6669723407721855
83,2428.89,0.7015971395349722
84,2457.01,0.7517065602904401
85,2485.47,0.7483176632314292
86,2511.88643,0.7659522370343338
87,2514.24,0.7675168382540052
88,2543.36,0.7639752253957223
89,2572.81,0.8128363562790867
90,2602.6,0.8053772231386936
91,2632.74,0.8202928182091386
92,2663.22,0.849032149255826
93,2694.06,0.8354622007479467
94,2725.26,0.8034349726855009
95,2756.82,0.7960594650684883
96,2788.67,0.8071227322547416
97,2820.97,0.8334836499977863
98,2853.63,0.8107892881862645
99,2884.0315,0.8246073800854461
100,2886.67,0.825808638260137
101,2920.1,0.8547711069880506
102,2953.91,0.8277075696769756
103,2988.12,0.8372730260090704
104,3022.72,0.8015014761432556
105,3057.72,0.8089019199206108
106,3093.12,0.8089013573411356
107,3128.94,0.8239097880869886
108,3165.17,0.8144962123170907
109,3201.82,0.8315166298725212
110,3238.9,0.833429040594359
111,3276.4,0.8391944446415252
112,3311.31121,0.8251263469074285
113,3314.34,0.8239049696978745
114,3352.72,0.8238933100355734
115,3391.55,0.8144695136654027
116,3430.78,0.8163465957771255
117,3470.51,0.7941275259912157
118,3510.69,0.790476319497436
119,3551.35,0.797762967181929
120,3592.5,0.7411794660067416
121,3634.1,0.7742438281236846
122,3676.18,0.7531720444189001
123,3718.75,0.7958661118544352
124,3761.81,0.8181090304302903
125,3801.8939600000003,0.8129255898777544
126,3805.38,0.8124750147346651
127,3849.44,0.9369134184851122
128,3894.03,0.8161966947727302
129,3939.1,0.9514358556223138
130,3984.72,0.9630888841991501
131,4030.87,1.152280785313157
132,4077.53,1.1157695637742524
133,4124.76,1.0709982051526825
134,4172.5,1.117536723878201
135,4220.83,1.126025100711136
136,4269.69,1.1075233500812416
137,4319.13,1.0432314599637225
138,4365.15832,1.1004890394859546
139,4369.17,1.1054809421838436
140,4419.86,1.1021379150480823
141,4471.04,1.095314955316217
142,4522.81,1.1526920767441442
143,4575.17,1.1376892793318643
144,4628.16,1.1463665685817361
145,4681.74,1.113113938991401
146,4735.94,1.1054713946876278
147,4790.8,1.1029389411727755
148,4846.28,1.0655565729444851
149,4902.4,1.0729242927539362
150,4959.17,1.1709221019767184
151,5011.87234,1.4805131268924778
152,5016.56,1.5080501260639412
153,5074.65,1.0461697226079358
154,5133.44,1.0219194347928462
155,5192.88,0.966622254358607
156,5252.99,1.0209991846092443
157,5313.82,1.0366192338048235
158,5375.35,1.0119093986413186
159,5437.6,1.0014996824227553
160,5500.56,1.0015100834971211
161,5564.27,1.0068306084724679
162,5628.68,0.9742792490887305
163,5693.85,0.9709370152579875
164,5754.399369999999,0.9672648377215738
165,5759.79,0.9669392862633768
166,5826.49,0.973659351063945
167,5893.96,0.9073447398509668
168,5962.22,0.9280444610396743
169,6031.25,0.9178905062148353
170,6101.08,0.9189758879992984
171,6171.74,0.8767116190159124
172,6243.19,0.8727216824342123
173,6315.49,0.876772103499896
174,6388.61,0.8910208695901143
175,6462.6,0.8728140017429485
176,6537.43,0.8716434873355503
177,6606.93448,0.8680032923058881
178,6613.12,0.8676767471309282
179,6689.72,0.8394409326054842
180,6767.19,0.8350171201866052
181,6845.52,0.8380923098500774
182,6924.79,0.8317635017896083
183,7005.0,0.8298556960051977
184,7086.11,0.819246892399992
185,7168.16,0.7980730910708449
186,7251.15,0.7835402920177562
187,7335.14,0.7962414953860064
188,7420.07,0.7980727010303151
189,7505.97,0.8017479090233226
190,7585.77575,0.8063283701348987
191,7592.88,0.8067373185035399
192,7680.83,0.7817603754922163
193,7769.76,0.7819546002563206
194,7859.72,0.7741080013558238
195,7950.73,0.7472235822147145
196,8042.81,0.7556943462569806
197,8135.94,0.758318290058634
198,8230.14,0.744018417043663
199,8325.45,0.7274777340600443
200,8421.84,0.7298362359717954
201,8519.38,0.6907259347628752
202,8618.02,0.7024158218733133
203,8709.6359,0.7353743035738652
204,8717.81,0.7383175142439239
205,8818.75,0.7159990053823285
206,8920.87,0.7304930750777305
207,9024.17,0.6687607233301299
208,9128.68,0.706841964848603
209,9234.38,0.6586607898270987
210,9341.32,0.6465852227807443
211,9449.48,0.6259162539034889
212,9558.89,0.8577868979044088
213,9669.58,0.65721316949258
214,9781.56,0.645319073571028
215,9894.83,0.6559696101397529
216,10000.0,0.6488822463061698
217,10009.4,0.6482487962917378
218,10125.3,0.6480087726557294
219,10242.5,0.6367273880988686
220,10361.1,0.6283766917810896
221,10481.1,0.6228446837023924
222,10602.5,0.6106103638627772
223,10725.2,0.6112296831023093
224,10849.4,0.6043297397408578
225,10975.1,0.5911125337784225
226,11102.2,0.5763410160550693
227,11230.7,0.5721971865707977
228,11360.8,0.5657481436454769
229,11481.5362,0.5575524467278442
230,11492.3,0.5568266628303391
231,11625.4,0.5421213626607948
232,11760.0,0.5387864790933969
233,11896.2,0.5310881065682884
234,12033.9,0.5227881506453265
235,12173.3,0.514625800204797
236,12314.2,0.5054408663664138
237,12456.8,0.4919175380104634
238,12601.1,0.4798598151369454
239,12747.0,0.47999760330571695
240,12894.6,0.47253599695692106
241,13043.9,0.46732299609055766
242,13182.5674,0.4616280863272353
243,13194.9,0.4611271532954407
244,13347.7,0.45508325399797184
245,13502.3,0.447089865049093
246,13658.6,0.4323168469849937
247,13816.8,0.43500147873329487
248,13976.8,0.4303126208301862
249,14138.6,0.41755627327566747
250,14302.4,0.40474271499735986
251,14468.0,0.4068116670676423
252,14635.5,0.38293726895032537
253,14805.0,0.39459266010921956
254,14976.4,0.4075207010805143
255,15135.6125,0.4002109101968986
256,15149.8,0.39957433527042574
257,15325.2,0.4009039758688868
258,15502.7,0.403149736451708
259,15682.2,0.38324037321011034
260,15863.8,0.3915171299528727
261,16047.5,0.3928460066799953
262,16233.3,0.361226003391478
263,16421.3,0.3744283638960999
264,16611.5,0.38510108819386096
265,16803.8,0.3650479324759822
266,16998.4,0.37045938436002174
267,17195.2,0.35716920003720043
268,17378.0083,0.34688053890777854
269,17394.3,0.345998718025729
270,17595.7,0.3348905940229409
271,17799.5,0.3158074913825824
272,18005.6,0.3139969508812188
273,18214.1,0.30884643174228477
274,18425.0,0.28722593396578033
275,18638.3,0.2802674575517054
276,18854.2,0.2759019209469291
277,19072.5,0.27397640570458237
278,19293.3,0.2613913710480997
279,19516.7,0.25164527620091576
280,19742.7,0.25268312116303043
281,19952.6231,0.24420472827039752
282,19971.4,0.24352270313052202
283,20202.6,0.24055637729158122
284,20436.6,0.23724729318123455
285,20673.2,0.23177371924743967
286,20912.6,0.22838338704223884
287,21154.7,0.223859430789611
288,21399.7,0.2238255820415985
289,21647.5,0.21677197502218015
290,21898.2,0.21411947550737717
291,22151.7,0.21278121772116831
292,22408.2,0.20778293321559604
293,22667.7,0.19582562199066036
294,22908.6765,0.19320256943014835
295,22930.2,0.1931142792406944
296,23195.7,0.1871798170369226
297,23464.3,0.18411222137615757
298,23736.0,0.1808904922583994
299,24010.8,0.177243629683648
300,24288.9,0.1753157218159684
301,24570.1,0.17512078049129556
302,24854.7,0.17526923795572702
303,25142.4,0.17634646196316525
304,25433.6,0.17919102884174018
305,25728.1,0.1825141504273869
306,26026.0,0.18631237080213786
307,26302.679900000003,0.18950076538589994
308,26327.4,0.18993169546559957
309,26632.2,0.19556890167462626
310,26940.6,0.20199586583100365
311,27252.6,0.20871578793473175
312,27568.1,0.21472753304282866
313,27887.4,0.2208651059842402
314,28210.3,0.22698923687300238
315,28536.9,0.23396196065209734
316,28867.4,0.24031234720748879
317,29201.7,0.24739246159619493
318,29539.8,0.25421310381821566
319,29881.8,0.261458008816533
320,30199.5172,0.26837979854532057
321,30227.9,0.2690842524978857
322,30577.9,0.277675161751056
323,30932.0,0.2864607419983348
324,31290.1,0.29561045492279275
325,31652.5,0.3048287154752182
326,32019.0,0.3141296470217522
327,32389.8,0.32351772619625374
328,32764.8,0.33260341468179333
329,33144.2,0.34145038911222986
330,33528.0,0.3508853494875635
331,33916.2,0.360312395807794
332,34309.0,0.3698135047067806
333,34673.685,0.3785999111333709
334,34706.2,0.3793545238397895
335,35124.3,0.38887320924650126
336,35530.9,0.398084665683643
337,35942.4,0.40727076315999283
338,36358.7,0.4169039518584239
339,36779.5,0.42609688232755644
340,37205.6,0.43562265310440373
341,37636.5,0.4451682151033325
342,38072.2,0.45498286832434237
343,38512.8,0.4649697625845606
344,38959.0,0.4748446466038735
345,39410.1,0.4850140716623945
346,39810.7171,0.4938836444485984
347,39866.3,0.49481520399406576
348,40328.1,0.5028569971007806
349,40795.1,0.5108368049414819
350,41267.4,0.5192116393379771
351,41745.1,0.5275284121120734
352,42228.8,0.5360744941946157
353,42717.7,0.5449568910111443
354,43212.2,0.552796549848889
355,43712.8,0.5617024298168871
356,44218.8,0.5707410481624864
357,44730.9,0.580366287638339
358,45249.0,0.5904573364226373
359,45708.818999999996,0.5997796066401677
360,45772.9,0.6006761282648669
361,46302.8,0.6081604310134672
362,46838.9,0.6162156100161554
363,47381.2,0.6246264652729319
364,47929.9,0.633201463759735
365,48485.1,0.6422836889645334
366,49046.5,0.6511256904234203
367,49614.2,0.6598680516243641
368,50188.9,0.6685760569831498
369,50770.1,0.6775642890599313
370,51358.0,0.6882591148306464
371,51952.8,0.6995165012712341
372,52480.746,0.7098800941088808
373,52554.2,0.7107671935355439
374,53162.8,0.7183720931497751
375,53778.5,0.7260893934989077
376,54401.0,0.7337818100448473
377,55030.9,0.7439129118637828
378,55668.4,0.752108555314444
379,56312.8,0.7602307431412769
380,56964.9,0.7674889007792001
381,57624.7,0.7739150282282139
382,58291.7,0.7801879845914937
383,58966.7,0.7862931953039584
384,59649.7,0.794952660365608
385,60255.9586,0.8061358812797639
386,60340.3,0.8073200590567927
387,61038.9,0.8196492902073887
388,61745.8,0.828709490465557
389,62460.8,0.8255856846720787
390,63184.0,0.8189488604065637
391,63915.6,0.8129439928282298
392,64655.9,0.8074020446759056
393,65404.5,0.8012910656311534
394,66161.8,0.7952770060124108
395,66927.8,0.7916918658196775
396,67000.0,0.7911837401040465
397,67702.8,0.7852244809413539
398,68486.8,0.7785699237312045
399,69242.2916,0.7750779487346043
400,69279.9,0.7747646632221183
401,70082.3,0.7653649344992456
402,70893.8,0.7554792138379653
403,71559.6261,0.7483384825202841
404,71714.6,0.7461546611901677
405,72545.1,0.7368495075364503
406,73385.1,0.7344062666344364
407,73954.515,0.7310121670384924
408,74234.7,0.7260666084740967
409,75094.4,0.7101539346328478
410,75963.9,0.6903730157018648
411,76429.5536,0.6780795328664332
412,76843.4,0.661619441498264
413,77733.3,0.6238521862839357
414,78633.3,0.5806085199249118
415,78987.42450000001,0.564329146690396
416,79544.1,0.5368097576510868
417,80464.9,0.48984445208050387
418,81396.9,0.442430658692381
419,81630.8998,0.43087829256661697
420,82339.2,0.3979756737609632
421,83292.7,0.35806125250653914
422,84257.3,0.31698043010274496
423,84362.84430000001,0.31268032755694963
424,85233.0,0.29035542866533604
425,86219.8,0.2653403157182468
426,87186.21900000001,0.24030838300165328
427,87218.4,0.239729782414113
428,88228.1,0.2223694713186009
429,89250.0,0.20877708047131593
430,90104.0836,0.19775799257805796
431,90283.3,0.19600173829470197
432,91328.8,0.18617994624941475
433,92386.1,0.17699197599644279
434,93119.6005,0.17079592763442836
435,93455.9,0.17077557176361932
436,94538.2,0.17094597386068228
437,95633.0,0.17133853197383445
438,96236.03790000001,0.17163861542309664
439,96740.3,0.1740594740236716
440,97860.4,0.17962030351642003
441,98993.7,0.18542776206845277
442,99456.7731,0.18790575783936894
443,100140.0,0.19305874406815998
444,101300.0,0.2020031065649441
445,102473.0,0.2112821707103991
446,102785.297,0.21380120828890514
447,103659.0,0.22043903315964097
448,104859.0,0.2298892635628539
449,106074.0,0.23964694059610694
450,106225.216,0.24101656401432686
451,107302.0,0.25238980570401115
452,108544.0,0.2661379702933642
453,109780.26,0.28033134027922285
454,109801.0,0.2805679044999282
455,111073.0,0.30005037410138546
456,112359.0,0.31579814226763864
457,113454.28,0.3261300310062254
458,113660.0,0.3280376568582108
459,114976.0,0.33831922629494104
460,116307.0,0.3513725915079258
461,117251.259,0.3623732444044447
462,117654.0,0.3670926815687868
463,119017.0,0.38527555023718596
464,120395.0,0.403347538516756
465,121175.312,0.41342885377379246
466,121789.0,0.42055701920848954
467,123199.0,0.437537495259406
468,124626.0,0.45550993371660997
469,125230.691,0.46229822806834275
470,126069.0,0.4708910687695642
471,127528.0,0.48396136250276367
472,129005.0,0.48892555704966956
473,129421.79100000001,0.48968123973425837
474,130499.0,0.4895665631371558
475,132010.0,0.49456845672237415
476,133539.0,0.4996976991391836
477,133753.155,0.5004345229626488
478,135085.0,0.5028123222087426
479,136649.0,0.5044990154543406
480,138229.477,0.5080483497228674
481,138232.0,0.5080509842633311
482,139832.0,0.5101763428965527
483,141451.0,0.5111631795385437
484,142855.609,0.5129550339478414
485,143090.0,0.5128408821500587
486,144746.0,0.5104340744889587
487,146422.0,0.5076120420976521
488,147636.563,0.5048719298757911
489,148118.0,0.5038418712965768
490,149833.0,0.49800639429829097
491,151568.0,0.49212262252451483
492,152577.522,0.48870890429548436
493,153323.0,0.4860736443065972
494,155099.0,0.4795654179948166
495,156894.0,0.4714978756357814
496,157683.84,0.46852421582437626
497,158711.0,0.46491601998631854
498,160549.0,0.45979076491165316
499,162408.0,0.45537149147106404
500,162961.05099999998,0.4542628056499646
501,164289.0,0.45131537985915227
502,166191.0,0.4471724090367971
503,168115.0,0.4430905968064022
504,168414.875,0.4424957654631142
505,170062.0,0.4404464573798428
506,172031.0,0.43823977892448707
507,174023.0,0.43580205485995244
508,174051.222,0.43577583694082267
509,176039.0,0.43413201893770037
510,178077.0,0.4331166329108725
511,179876.201,0.432655354633596
512,180139.0,0.43249101685798075
513,182225.0,0.43143904974509695
514,184335.0,0.4308046591371466
515,185896.125,0.43072264220693446
516,186469.0,0.43108491578141206
517,188628.0,0.4323345714405806
518,190813.0,0.4342152344397854
519,192117.51799999998,0.4352403514164288
520,193022.0,0.43557421285032294
521,195257.0,0.43795326968057124
522,197518.0,0.43974969961041077
523,198547.123,0.4427057892024201
524,199806.0,0.4463753392756606
525,202119.0,0.45984382640926846
526,204460.0,0.4653469362146192
527,205191.907,0.4670455937228624
528,206827.0,0.46992133498823624
529,209222.0,0.475469611104759
530,211645.0,0.4794341710339176
531,212059.073,0.47990331297211497
532,214095.0,0.48235687813644124
533,216575.0,0.4857069251259946
534,219082.0,0.48928019359486974
535,219156.062,0.48938729410072057
536,221619.0,0.4930172097032999
537,224185.0,0.4984634690035691
538,226490.56699999998,0.49892482147569994
539,226782.0,0.4987958252490486
540,229408.0,0.49818287272139394
541,232064.0,0.4980849382532101
542,234070.535,0.49793450477711837
543,234751.0,0.49795999101833543
544,237469.0,0.5014246008630887
545,240219.0,0.5003857609341231
546,241904.18300000002,0.49950362051354846
547,243001.0,0.49878028718297673
548,245815.0,0.496504800254289
549,248661.0,0.4946345110577556
550,250000.0,0.4935547311395725
551,251540.0,0.4922609945783849
552,254453.0,0.4898143192173319
553,257399.0,0.4868951737955459
554,260380.0,0.4834903783093464
555,263395.0,0.4800405227605735
556,266445.0,0.47654401714738714
557,269530.0,0.4730028614697872
558,272651.0,0.4698724657259332
559,275422.87,0.4674960189083962
560,275808.0,0.4671974600665382
561,279002.0,0.46472231262984254
562,282233.0,0.46269337387969733
563,285501.0,0.46016764381610265
564,288807.0,0.457122614565722
565,292151.0,0.4530562861285553
566,295534.0,0.4479551506312662
567,298956.0,0.44328620807385455
568,302418.0,0.4385569505829841
569,305920.0,0.43327637815865466
570,309462.0,0.42842849080086626
571,313045.0,0.4230257806362825
572,316227.766,0.41909404100947634
573,316670.0,0.4186603104310557
574,320338.0,0.4150551202237647
575,324046.0,0.4119047970807343
576,327799.0,0.40820607438499723
577,331595.0,0.4049634587833405
578,335434.0,0.40167795027576403
579,339318.0,0.40041004221548093
580,343248.0,0.39914448127909763
581,347222.0,0.3978827741134011
582,351243.0,0.394995160748211
583,355309.0,0.39044014783031417
584,359424.0,0.3852827220661368
585,363078.055,0.381179625323133
586,363587.0,0.3807773916911029
587,367795.0,0.3769028206776296
588,372056.0,0.37352244922125843
589,376365.0,0.3684688811373572
590,380722.0,0.3633761164259258
591,385132.0,0.35877755127159666
592,389590.0,0.35413478948973737
593,394101.0,0.34944522726498023
594,398663.0,0.34524470612347236
595,403281.0,0.340457622249846
596,407951.0,0.33562465869639535
597,412674.0,0.3307428947000469
598,416869.38300000003,0.32641271387535264
599,417451.0,0.3259972615672978
600,422288.0,0.322021847166074
601,427177.0,0.3180210799534251
602,432122.0,0.3139905481746259
603,437128.0,0.3104482371362703
604,442187.0,0.30635697034780823
605,447309.0,0.3022317184224272
606,452490.0,0.29859089311485215
607,457729.0,0.2944010973637644
608,463028.0,0.2901811252918015
609,468389.0,0.28643877102160087
610,473812.0,0.28215003455316245
611,478630.092,0.2787998277620132
612,479299.0,0.2785016666987786
613,484851.0,0.2750249075388919
614,490465.0,0.2720362411261391
615,496142.0,0.26903131411773196
616,501889.0,0.2655106531141533
617,507701.0,0.262469024829344
618,513580.0,0.2589167225777277
619,519528.0,0.25583903967372806
620,525542.0,0.2527410361457096
621,531628.0,0.24913959193694335
622,537785.0,0.24648406039021747
623,544010.0,0.2433255015338964
624,549540.874,0.24011470912677363
625,550309.0,0.23979505484962027
626,556684.0,0.23622837546584324
627,563128.0,0.2326766571993242
628,569649.0,0.2295953882955423
