,lambda (Angstroms),Total Flux (erg/s/cm^2/Angstrom)
0,1000.94,0.7360377634406099
1,1012.53,0.9257600734709028
2,1024.25,0.5906541177810869
3,1036.11,0.8141018759311538
4,1048.11,1.3930653479211035
5,1060.25,1.2913405337509356
6,1072.52,1.2972654538606592
7,1084.94,1.2333200673702571
8,1096.4782,1.5191537819273675
9,1097.51,1.544709882491397
10,1110.22,1.4957285721400502
11,1123.07,1.373726366159342
12,1136.08,1.6777031366022201
13,1149.23,1.6244990114157365
14,1162.54,1.7205038626528393
15,1176.0,1.1773977542870544
16,1189.62,1.685100622344856
17,1203.39,1.2326125307997702
18,1217.33,0.6048033517047448
19,1231.42,1.6848332130068318
20,1245.68,1.9207319867589796
21,1258.92541,1.945146211208016
22,1260.11,1.947337790236339
23,1274.7,2.179694429262789
24,1289.46,2.204921145645956
25,1304.39,1.9789679393858397
26,1319.49,2.3354648104824403
27,1334.77,2.1203717634861525
28,1350.23,2.225338798396977
29,1365.86,2.184755910664517
30,1381.68,2.0865231093895646
31,1397.68,1.608980390021724
32,1413.86,1.9251377525609952
33,1430.24,1.9031352061081683
34,1445.43977,2.015075211462756
35,1446.8,2.0250926420894864
36,1463.55,1.9927490390818217
37,1480.5,2.0158055124561547
38,1497.64,2.001942058393386
39,1514.98,1.8513586807126152
40,1532.52,1.6276453794138428
41,1550.27,1.382482158316168
42,1568.22,1.6239290136004914
43,1586.38,1.7121259490859126
44,1604.75,1.5761029647724316
45,1623.33,1.5367500606600488
46,1642.13,1.5402972405678637
47,1659.58691,1.5177255696813006
48,1661.15,1.5157082670210142
49,1680.38,1.5907518998208965
50,1699.84,1.5333461740947245
51,1719.52,1.4148610619523263
52,1739.43,1.4951665912838739
53,1759.57,1.495222762089367
54,1779.95,1.4412796022589773
55,1800.56,1.3829170839025329
56,1821.41,1.3766352349102056
57,1842.5,1.2761640552819955
58,1863.84,1.204983572908074
59,1885.42,1.1404137598982698
60,1905.46072,1.066274006059338
61,1907.25,1.0596432212158773
62,1929.33,0.9643578419788017
63,1951.67,0.9889435280224492
64,1974.27,0.9104032793468193
65,1997.14,0.820966060001171
66,2020.26,0.8171219418869868
67,2043.66,0.7609118171520427
68,2067.32,0.6814527576978214
69,2091.26,0.6939936916228402
70,2115.47,0.6432846548778403
71,2139.97,0.610121575561339
72,2164.75,0.5975604896240776
73,2187.7616199999998,0.5764891810514886
74,2189.82,0.5746176611315641
75,2215.17,0.5603643224885603
76,2240.82,0.5721328437432722
77,2266.77,0.5868322248957002
78,2293.02,0.6088544659458441
79,2319.57,0.637524566893704
80,2346.43,0.6376015564025369
81,2373.6,0.666090434472343
82,2401.08,0.6677002011031222
83,2428.89,0.7023489136213888
84,2457.01,0.7524825147006288
85,2485.47,0.7491180903306133
86,2511.88643,0.7667753795613379
87,2514.24,0.7683391975057217
88,2543.36,0.7647878934224605
89,2572.81,0.8136392232558382
90,2602.6,0.8061701759124196
91,2632.74,0.8210757402987694
92,2663.22,0.8498049275083229
93,2694.06,0.8362247153542097
94,2725.26,0.8041871038364299
95,2756.82,0.7968010929549834
96,2788.67,0.8078537603639165
97,2820.97,0.8342039285682662
98,2853.63,0.8114986974089492
99,2884.0315,0.8253066715960368
100,2886.67,0.8265079118001956
101,2920.1,0.8554701528400723
102,2953.91,0.8284063852528222
103,2988.12,0.8379716085843862
104,3022.72,0.8021998230617938
105,3057.72,0.8096000284580153
106,3093.12,0.8095992247730508
107,3128.94,0.8246074115528409
108,3165.17,0.8151935890244153
109,3201.82,0.8322137569607445
110,3238.9,0.8341259151347985
111,3276.4,0.8398910637736073
112,3311.31121,0.8258227282631161
113,3314.34,0.8246009567112493
114,3352.72,0.8245843000508192
115,3391.55,0.8151554480934323
116,3430.78,0.8170274225387508
117,3470.51,0.794803179987451
118,3510.69,0.7911467421391943
119,3551.35,0.7984280959741843
120,3592.5,0.741839237152488
121,3634.1,0.7748981830338352
122,3676.18,0.7538209205984288
123,3718.75,0.7965094455063361
124,3761.81,0.8187467577575576
125,3801.8939600000003,0.8135580983547578
126,3805.38,0.8131071639066644
127,3849.44,0.9375410264073032
128,3894.03,0.8168197068181859
129,3939.1,0.9520542223175912
130,3984.72,0.9637025488559287
131,4030.87,1.1528896933045099
132,4077.53,1.1163736625346463
133,4124.76,1.0715974359324034
134,4172.5,1.1181310341117157
135,4220.83,1.126614429587337
136,4269.69,1.1081076429732022
137,4319.13,1.0438106570910322
138,4365.15832,1.1010634924893565
139,4369.17,1.1060556316912051
140,4419.86,1.1027155929258319
141,4471.04,1.0958956504517383
142,4522.81,1.153275823920206
143,4575.17,1.1382761133312347
144,4628.16,1.1469565265453374
145,4681.74,1.1137070557020017
146,4735.94,1.1060677066966111
147,4790.8,1.1035384873896792
148,4846.28,1.066159389920693
149,4902.4,1.0735304182199088
150,4959.17,1.1715315742524548
151,5011.87234,1.4811257061737821
152,5016.56,1.5086630372342018
153,5074.65,1.0467867465827654
154,5133.44,1.0225406211326376
155,5192.88,0.9672476490837243
156,5252.99,1.0216288351560634
157,5313.82,1.0372531911497478
158,5375.35,1.0125477123447408
159,5437.6,1.002142403461079
160,5500.56,1.0021572621387442
161,5564.27,1.0074822978178113
162,5628.68,0.9749354986981864
163,5693.85,0.9715978789399821
164,5754.399369999999,0.9679299883329124
165,5759.79,0.967605408947681
166,5826.49,0.9743375015199215
167,5893.96,0.9080350569299526
168,5962.22,0.9287470871995348
169,6031.25,0.9186055803069075
170,6101.08,0.919703554284712
171,6171.74,0.8774520271655891
172,6243.19,0.8734749749060177
173,6315.49,0.8775384335712799
174,6388.61,0.8918003851287346
175,6462.6,0.8736068596327836
176,6537.43,0.8724498390507861
177,6606.93448,0.8688221775146117
178,6613.12,0.8684956387584688
179,6689.72,0.8402599037221203
180,6767.19,0.8358361716951502
181,6845.52,0.8389114426429678
182,6924.79,0.8325827168422977
183,7005.0,0.8306749942931395
184,7086.11,0.8200662748571315
185,7168.16,0.7988925586726355
186,7251.15,0.7843598457396517
187,7335.14,0.7970611362657234
188,7420.07,0.7988924300433073
189,7505.97,0.8025677271761751
190,7585.77575,0.8071482711035068
191,7592.88,0.8075577407193428
192,7680.83,0.7825872507031661
193,7769.76,0.7827880003661722
194,7859.72,0.7749480019368913
195,7950.73,0.748070260306735
196,8042.81,0.7565477803671152
197,8135.94,0.7591785572266201
198,8230.14,0.7448855957766615
199,8325.45,0.7283519058000634
200,8421.84,0.7307174799597077
201,8519.38,0.6916143353755362
202,8618.02,0.7033114598190191
203,8709.6359,0.7362766634861211
204,8717.81,0.7392215917770342
205,8818.75,0.7169242934033265
206,8920.87,0.7314398215396151
207,9024.17,0.6697291761858999
208,9128.68,0.707832378355147
209,9234.38,0.6596734140387125
210,9341.32,0.6476203182582061
211,9449.48,0.6269740770049841
212,9558.89,0.8588677112920124
213,9669.58,0.6583172421322571
214,9781.56,0.6464466765300401
215,9894.83,0.6571210144853612
216,10000.0,0.650055749988128
217,10009.4,0.6494242804167683
218,10125.3,0.6492086752224706
219,10242.5,0.6379519829983837
220,10361.1,0.6296262739729851
221,10481.1,0.6241195481462749
222,10602.5,0.6119108055182532
223,10725.2,0.612555975860442
224,10849.4,0.6056821996297969
225,10975.1,0.5924914768263179
226,11102.2,0.5777467372215275
227,11230.7,0.5736299808154253
228,11360.8,0.567208348064967
229,11481.5362,0.5590380885059372
230,11492.3,0.5583166611861987
231,11625.4,0.543665232372564
232,11760.0,0.5403848272762813
233,11896.2,0.5327415808118406
234,12033.9,0.5244973580647522
235,12173.3,0.5163914288639957
236,12314.2,0.5072635233805912
237,12456.8,0.49379791144351914
238,12601.1,0.48179859305277917
239,12747.0,0.48199543329388134
240,12894.6,0.4745935670813158
241,13043.9,0.4694409944150824
242,13182.5674,0.46380220937646666
243,13194.9,0.4633086475649153
244,13347.7,0.45735607713995974
245,13502.3,0.4494550929272757
246,13658.6,0.43477549569284807
247,13816.8,0.437554683904707
248,13976.8,0.43296145832883737
249,14138.6,0.4203018189652392
250,14302.4,0.40758616428194266
251,14468.0,0.4097540958109176
252,14635.5,0.38597981278617904
253,14805.0,0.3977365144417422
254,14976.4,0.41076700154359186
255,15135.6125,0.40355237229685464
256,15149.8,0.4029306218148939
257,15325.2,0.4044435369555526
258,15502.7,0.40687476635958286
259,15682.2,0.38715296172872904
260,15863.8,0.39561947136124676
261,16047.5,0.3971402952571361
262,16233.3,0.36571443341639714
263,16421.3,0.3791132341372856
264,16611.5,0.3899846974198014
265,16803.8,0.3701324749656889
266,16998.4,0.37574726337145964
267,17195.2,0.3626627143388577
268,17378.0083,0.3525650686455386
269,17394.3,0.35171531146532714
270,17595.7,0.3410035628899156
271,17799.5,0.32232155911797483
272,18005.6,0.3209166441160269
273,18214.1,0.3161764739175497
274,18425.0,0.29497104852254336
275,18638.3,0.2884323679310077
276,18854.2,0.2844917442098987
277,19072.5,0.2829958652922605
278,19293.3,0.270845387211571
279,19516.7,0.2615389660013082
280,19742.7,0.26302160166147204
281,19952.6231,0.2549563585130234
282,19971.4,0.2543440044721743
283,20202.6,0.25223553898797313
284,20436.6,0.24979470454462083
285,20673.2,0.24519902749634237
286,20912.6,0.24269698148891264
287,21154.7,0.2390713296994443
288,21399.7,0.23994654577371216
289,21647.5,0.2338123928888288
290,21898.2,0.23209010786768167
291,22151.7,0.2316924538873833
292,22408.2,0.22764590459370862
293,22667.7,0.21665145998665764
294,22908.6765,0.21492254317776296
295,22930.2,0.21497668462956343
296,23195.7,0.2107991671956037
297,23464.3,0.20950903053736797
298,23736.0,0.20808527465485627
299,24010.8,0.20625689954806858
300,24288.9,0.20616931687995488
301,24570.1,0.20783521498756508
302,24854.7,0.2098670113653243
303,25142.4,0.2128480885188075
304,25433.6,0.21761966977391453
305,25728.1,0.22289164346769552
306,26026.0,0.22866121543162551
307,26302.679900000003,0.23368053771112068
308,26327.4,0.2343376506651422
309,26632.2,0.2427637023923232
310,26940.6,0.25201245118714805
311,27252.6,0.26158709704961675
312,27568.1,0.2704855900611837
313,27887.4,0.279544679977486
314,28210.3,0.2886232669614319
315,28536.9,0.29858430093156757
316,28867.4,0.307958681724984
317,29201.7,0.3180975594231356
318,29539.8,0.32801173402602235
319,29881.8,0.33838585545219
320,30199.5172,0.34821467992264593
321,30227.9,0.3492157321398367
322,30577.9,0.36146411678722284
323,30932.0,0.37395001714047826
324,31290.1,0.3868418498897039
325,31652.5,0.39984716496459743
326,32019.0,0.41297799574536026
327,32389.8,0.4262409088517911
328,32764.8,0.4392453209739905
329,33144.2,0.4520569987317569
330,33528.0,0.4655026421250907
331,33916.2,0.4789863511539914
332,34309.0,0.49259219243825797
333,34673.685,0.5051895314766757
334,34706.2,0.5062715911996992
335,35124.3,0.5200008132092875
336,35530.9,0.5333069938337757
337,35942.4,0.5466371616571326
338,36358.7,0.5604627597977484
339,36779.5,0.5738934176107949
340,37205.6,0.5877102901491481
341,37636.5,0.6015952930047606
342,38072.2,0.615797726177632
343,38512.8,0.6302217465493722
344,38959.0,0.6445901522912478
345,39410.1,0.6593024452319921
346,39810.7171,0.6722064905445968
347,39866.3,0.673569648562951
348,40328.1,0.6851972958582578
349,40795.1,0.6968033356306883
350,41267.4,0.70884555619711
351,41745.1,0.7208716458743905
352,42228.8,0.7331736345637366
353,42717.7,0.745852315730206
354,43212.2,0.75753174264127
355,43712.8,0.7703247568812672
356,44218.8,0.7832924402321233
357,44730.9,0.7968941109119128
358,45249.0,0.8110081806037676
359,45708.818999999996,0.823900922642745
360,45772.9,0.8251224689498099
361,46302.8,0.8352944728763816
362,46838.9,0.8460688000230792
363,47381.2,0.8572302503899025
364,47929.9,0.8685883053710498
365,48485.1,0.880486555663619
366,49046.5,0.8921760291763146
367,49614.2,0.9037978166062345
368,50188.9,0.9154207528330711
369,50770.1,0.9273568843713302
370,51358.0,0.941033592615209
371,51952.8,0.9553078589589057
372,52480.746,0.9683492421081307
373,52554.2,0.9693711336222054
374,53162.8,0.9780928473568214
375,53778.5,0.9869399907127252
376,54401.0,0.9957747286354961
377,55030.9,1.0070617312339754
378,55668.4,1.016427221877777
379,56312.8,1.0257319187732528
380,56964.9,1.0341867153988573
381,57624.7,1.0418236117545912
382,58291.7,1.0493205494164195
383,58966.7,1.0566644218627976
384,59649.7,1.0665772290937254
385,60255.9586,1.0788729675318458
386,60340.3,1.0800526557954182
387,61038.9,1.0923447002962696
388,61745.8,1.1013672720936527
389,62460.8,1.0982054066743983
390,63184.0,1.0915300862950907
391,63915.6,1.0854862754688996
392,64655.9,1.0799049209655793
393,65404.5,1.0737540937587904
394,66161.8,1.0676997228748726
395,66927.8,1.064073808313825
396,67000.0,1.0635618393744442
397,67702.8,1.0571309727733624
398,68486.8,1.0499503196160063
399,69242.2916,1.0459513789702877
400,69279.9,1.045553090317312
401,70082.3,1.0343397635703506
402,70893.8,1.022619876911379
403,71559.6261,1.0139742342036848
404,71714.6,1.0112165159859536
405,72545.1,0.9988358679092146
406,73385.1,0.993281952334909
407,73954.515,0.9877792041454854
408,74234.7,0.980392297820138
409,75094.4,0.9569887637612109
410,75963.9,0.9296315938598069
411,76429.5536,0.9132807118997287
412,76843.4,0.8908427735689486
413,77733.3,0.840221266119908
414,78633.3,0.7839774570355882
415,78987.42450000001,0.7625828959760456
416,79544.1,0.726196010930124
417,80464.9,0.6645629315435769
418,81396.9,0.60230295527483
419,81630.8998,0.5870231172340128
420,82339.2,0.5437229482299474
421,83292.7,0.48981154643791297
422,84257.3,0.4345708001467785
423,84362.84430000001,0.4287213514940552
424,85233.0,0.39924884095048
425,86219.8,0.3661279795974954
426,87186.21900000001,0.3331577115863365
427,87218.4,0.3324240320201614
428,88228.1,0.3101980161694298
429,89250.0,0.29168112924473705
430,90104.0836,0.2765462459331618
431,90283.3,0.2741646118495742
432,91328.8,0.2606945232134496
433,92386.1,0.24781707999491825
434,93119.6005,0.23906146456114152
435,93455.9,0.239076345376599
436,94538.2,0.23936014837240327
437,95633.0,0.23986741710547776
438,96236.03790000001,0.24023068547558912
439,96740.3,0.24363434860524513
440,97860.4,0.2513782478806
441,98993.7,0.2593945029549325
442,99456.7731,0.2627750260821097
443,100140.0,0.26990114866879994
444,101300.0,0.2821955522356344
445,102473.0,0.29486220101485583
446,102785.297,0.29828314184858046
447,103659.0,0.30726864737091564
448,104859.0,0.3199433336612198
449,106074.0,0.3329657722801527
450,106225.216,0.33474172013289133
451,107302.0,0.34970277957715873
452,108544.0,0.3675892575619489
453,109780.26,0.3859018154046859
454,109801.0,0.3862068207141831
455,111073.0,0.40988683443055063
456,112359.0,0.4298783460966266
457,113454.28,0.4438246107142848
458,113660.0,0.4463969812260154
459,114976.0,0.4609309518499157
460,116307.0,0.4782851878684654
461,117251.259,0.4923370323247077
462,117654.0,0.49836963081255253
463,119017.0,0.5209966431959798
464,120395.0,0.5435616835953656
465,121175.312,0.556187253196174
466,121789.0,0.5649733417264136
467,123199.0,0.5857630360848656
468,124626.0,0.607590619595157
469,125230.691,0.6160125309877423
470,126069.0,0.6265195268136631
471,127528.0,0.6429212321468052
472,129005.0,0.651257938642385
473,129421.79100000001,0.6529653021851998
474,130499.0,0.6544240901959367
475,132010.0,0.661633081031963
476,133539.0,0.6689957130559765
477,133753.155,0.6700453501896646
478,135085.0,0.6734237460124893
479,136649.0,0.676285450649058
480,138229.477,0.6810221752488936
481,138232.0,0.6810254060904728
482,139832.0,0.6835289184236466
483,141451.0,0.6848983993407768
484,142855.609,0.6870222275565344
485,143090.0,0.6867864030715124
486,144746.0,0.6835199635556553
487,146422.0,0.67982791728236
488,147636.563,0.6764573237534885
489,148118.0,0.6752013875665381
490,149833.0,0.6685612775689871
491,151568.0,0.6618634893207354
492,152577.522,0.6579761298586528
493,153323.0,0.6549420775808532
494,155099.0,0.647483782849738
495,156894.0,0.6384560080511162
496,157683.84,0.6350598245683557
497,158711.0,0.6310131285518836
498,160549.0,0.6251032213023616
499,162408.0,0.6198903306729485
500,162961.05099999998,0.6185455443785322
501,164289.0,0.6149089283702174
502,166191.0,0.6097788414811387
503,168115.0,0.6046984954377175
504,168414.875,0.6039480324274953
505,170062.0,0.6015658533997754
506,172031.0,0.59896125560641
507,174023.0,0.5961209640856463
508,174051.222,0.5960890427233692
509,176039.0,0.5941304270538577
510,178077.0,0.592792289872675
511,179876.201,0.5920460782295169
512,180139.0,0.5917985669399725
513,182225.0,0.5900863996358527
514,184335.0,0.5887842130530665
515,185896.125,0.5882081141364962
516,186469.0,0.5885572368305887
517,188628.0,0.5897573306294008
518,190813.0,0.591587834913979
519,192117.51799999998,0.5925830054622073
520,193022.0,0.5927345755004614
521,195257.0,0.5946631852579589
522,197518.0,0.5960039280148725
523,198547.123,0.5987526057756288
524,199806.0,0.6021913703938008
525,202119.0,0.615235823441812
526,204460.0,0.6203097660208845
527,205191.907,0.6218742456149527
528,206827.0,0.6240563356974802
529,209222.0,0.6285885872925128
530,211645.0,0.631525244334168
531,212059.073,0.6318187251777152
532,214095.0,0.6334715401949159
533,216575.0,0.6358461787514208
534,219082.0,0.6384334194212424
535,219156.062,0.6385113906128318
536,221619.0,0.641201871004714
537,224185.0,0.645669384290813
538,226490.56699999998,0.6452513273663527
539,226782.0,0.6449308932129265
540,229408.0,0.6425929610305627
541,232064.0,0.6407503403617286
542,234070.535,0.6392818444136408
543,234751.0,0.6388931300261934
544,237469.0,0.6407032869472696
545,240219.0,0.637990515620176
546,241904.18300000002,0.6360826003867679
547,243001.0,0.6346276959756809
548,245815.0,0.6304752860775557
549,248661.0,0.6267067300825079
550,250000.0,0.6247338443163941
551,251540.0,0.6223907065405498
552,254453.0,0.6179590274533312
553,257399.0,0.6130323911364941
554,260380.0,0.6075962547276376
555,263395.0,0.6020918896579621
556,266445.0,0.5965170244962673
557,269530.0,0.5908736592425531
558,272651.0,0.5856165224656189
559,275422.87,0.5813512420475165
560,275808.0,0.5808038000950545
561,279002.0,0.5762645894712035
562,282233.0,0.5721476769709962
563,285501.0,0.5675100625944323
564,288807.0,0.5623285922367456
565,292151.0,0.5561012658979362
566,295534.0,0.5488139294732374
567,298956.0,0.5419335829626494
568,302418.0,0.5349670722614058
569,305920.0,0.5274233973695066
570,309462.0,0.5202865582869518
571,313045.0,0.5125684009089749
572,316227.766,0.5065798578588971
573,316670.0,0.5059085863300796
574,320338.0,0.5003331717482352
575,324046.0,0.49519113868676323
576,327799.0,0.4894765348357103
577,331595.0,0.48419494111905786
578,335434.0,0.47884735753680574
579,339318.0,0.4754932031649727
580,343248.0,0.472116687541568
581,347222.0,0.468720391590573
582,351243.0,0.46367294392601566
583,355309.0,0.4569339254718774
584,359424.0,0.4495661743801953
585,363078.055,0.44350034366037633
586,363587.0,0.44289727384443267
587,367795.0,0.4373621723966137
588,372056.0,0.4323003560303692
589,376365.0,0.42554640162479607
590,380722.0,0.41873430917989407
591,385132.0,0.41239550181656665
592,389590.0,0.4059935564139105
593,394101.0,0.3995238960928289
594,398663.0,0.3935231516049605
595,403281.0,0.38691374607120854
596,407951.0,0.38023794099485053
597,412674.0,0.37349242100006697
598,416869.38300000003,0.3675066885700408
599,417451.0,0.36694094509613967
600,422288.0,0.3617156388086772
601,427177.0,0.3564515427906072
602,432122.0,0.35114321167803697
603,437128.0,0.3463073387661004
604,442187.0,0.34090881478258317
605,447309.0,0.33546002631775307
606,452490.0,0.33048041873550305
607,457729.0,0.32493685337680633
608,463028.0,0.3193476075597164
609,468389.0,0.3142199586022869
610,473812.0,0.3085299065045178
611,478630.092,0.30393469369766624
612,479299.0,0.3035352381411123
613,484851.0,0.2992177250555599
614,490465.0,0.29537891589448445
615,496142.0,0.29151430588247423
616,501889.0,0.28712336159164753
617,507701.0,0.2832016068990628
618,513580.0,0.2787590322538967
619,519528.0,0.2747806281053258
620,525542.0,0.2707719087795851
621,531628.0,0.2662488456242048
622,537785.0,0.26266094341459634
623,544010.0,0.2585597164769948
624,549540.874,0.25451136930981044
625,550309.0,0.25412950692802894
626,556684.0,0.2500465363797761
627,563128.0,0.24597293885617744
628,569649.0,0.24236355470791754
629,576246.0,0.23829465389116083
630,582917.0,0.2342327763182362
