,lambda (Angstroms),Total Flux (erg/s/cm^2/Angstrom)
0,1000.94,0.733147176344061
1,1012.53,0.9228908073470903
2,1024.25,0.5878064117781087
3,1036.11,0.8112759875931154
4,1048.11,1.3902615347921103
5,1060.25,1.2885590533750935
6,1072.52,1.294506545386066
7,1084.94,1.2305840067370257
8,1096.4782,1.5164389469755535
9,1097.51,1.5420009882491397
10,1110.22,1.493092857214005
11,1123.07,1.3711646366159342
12,1136.08,1.675216313660222
13,1149.23,1.6220879011415736
14,1162.54,1.718169386265284
15,1176.0,1.1751407754287053
16,1189.62,1.6829220622344856
17,1203.39,1.230513253079977
18,1217.33,0.6027843351704745
19,1231.42,1.6828953213006832
20,1245.68,1.918876198675898
21,1258.92541,1.9433666851270388
22,1260.11,1.9455577790236338
23,1274.7,2.1779084429262787
24,1289.46,2.2031291145645953
25,1304.39,1.977169793938584
26,1319.49,2.333660481048244
27,1334.77,2.1185611763486154
28,1350.23,2.223521879839698
29,1365.86,2.1829325910664514
30,1381.68,2.0846933109389565
31,1397.68,1.6071440390021725
32,1413.86,1.9232947752560994
33,1430.24,1.901285520610817
34,1445.43977,2.0132193011191015
35,1446.8,2.0232362642089488
36,1463.55,1.9908869039081822
37,1480.5,2.0139375512456152
38,1497.64,2.0000682058393386
39,1514.98,1.8494788680712615
40,1532.52,1.6257595379413843
41,1550.27,1.3805902158316168
42,1568.22,1.6220309013600491
43,1586.38,1.7102215949085913
44,1604.75,1.574192296477243
45,1623.33,1.534833006066005
46,1642.13,1.5383737240567863
47,1659.58691,1.5157960528987295
48,1661.15,1.5137748267021014
49,1680.38,1.5887701899820896
50,1699.84,1.5313156174094724
51,1719.52,1.4127811061952327
52,1739.43,1.4930366591283872
53,1759.57,1.4930422762089366
54,1779.95,1.4390479602258979
55,1800.56,1.3806337083902531
56,1821.41,1.3742995234910205
57,1842.5,1.2737754055281996
58,1863.84,1.2025413572908075
59,1885.42,1.137917375989827
60,1905.46072,1.0637273176302122
61,1907.25,1.0571023221215878
62,1929.33,0.9618883841978801
63,1951.67,0.986546352802245
64,1974.27,0.9080792279346819
65,1997.14,0.8187160060001171
66,2020.26,0.8149466941886987
67,2043.66,0.7588122817152043
68,2067.32,0.6794297757697821
69,2091.26,0.6920481691622841
70,2115.47,0.641417465487784
71,2139.97,0.6083336575561339
72,2164.75,0.5958527489624078
73,2187.7616199999998,0.5748558960218624
74,2189.82,0.5729790661131564
75,2215.17,0.558660332248856
76,2240.82,0.5703626843743271
77,2266.77,0.58499512248957
78,2293.02,0.6069496465945844
79,2319.57,0.6355512566893704
80,2346.43,0.6355589556402537
81,2373.6,0.6639777434472343
82,2401.08,0.6655166201103122
83,2428.89,0.7000935913621389
84,2457.01,0.7501546514700629
85,2485.47,0.7467168090330613
86,2511.88643,0.7643059519803258
87,2514.24,0.7658721197505721
88,2543.36,0.762349889342246
89,2572.81,0.8112306223255838
90,2602.6,0.8037913175912419
91,2632.74,0.8187269740298769
92,2663.22,0.8474865927508323
93,2694.06,0.8339371715354209
94,2725.26,0.8019307103836429
95,2756.82,0.7945762092954983
96,2788.67,0.8056606760363917
97,2820.97,0.8320430928568265
98,2853.63,0.809370469740895
99,2884.0315,0.8232087970642648
100,2886.67,0.8244100911800196
101,2920.1,0.8533730152840072
102,2953.91,0.8263099385252822
103,2988.12,0.8358758608584387
104,3022.72,0.8001047823061794
105,3057.72,0.8075057028458016
106,3093.12,0.8075056224773051
107,3128.94,0.822514541155284
108,3165.17,0.8131014589024415
109,3201.82,0.8301223756960745
110,3238.9,0.8320352915134798
111,3276.4,0.8378012063773608
112,3311.31121,0.8237335841960534
113,3314.34,0.822512995671125
114,3352.72,0.8225113300050819
115,3391.55,0.8130976448093432
116,3430.78,0.8149849422538751
117,3470.51,0.7927762179987451
118,3510.69,0.7891354742139194
119,3551.35,0.7964327095974184
120,3592.5,0.7398599237152488
121,3634.1,0.7729351183033835
122,3676.18,0.7518742920598429
123,3718.75,0.7945794445506336
124,3761.81,0.8168335757757558
125,3801.8939600000003,0.8116605729237476
126,3805.38,0.8112107163906664
127,3849.44,0.9356582026407303
128,3894.03,0.8149506706818186
129,3939.1,0.9501991222317591
130,3984.72,0.9618615548855929
131,4030.87,1.151062969330451
132,4077.53,1.1145613662534646
133,4124.76,1.0697997435932405
134,4172.5,1.1163481034111715
135,4220.83,1.1248464429587337
136,4269.69,1.1063547642973202
137,4319.13,1.042073065709103
138,4365.15832,1.0993401334791508
139,4369.17,1.1043315631691204
140,4419.86,1.100982559292583
141,4471.04,1.094153565045174
142,4522.81,1.1515245823920206
143,4575.17,1.1365156113331234
144,4628.16,1.1451866526545338
145,4681.74,1.1119277055702002
146,4735.94,1.104278770669661
147,4790.8,1.1017398487389678
148,4846.28,1.0643509389920693
149,4902.4,1.0717120418219908
150,4959.17,1.1697031574252454
151,5011.87234,1.4792879683298694
152,5016.56,1.5068243037234201
153,5074.65,1.0449356746582765
154,5133.44,1.0206770621132637
155,5192.88,0.9653714649083724
156,5252.99,1.0197398835156064
157,5313.82,1.0353513191149748
158,5375.35,1.0106327712344743
159,5437.6,1.0002142403461078
160,5500.56,1.0002157262138744
161,5564.27,1.005527229781781
162,5628.68,0.9729667498698186
163,5693.85,0.9696152878939982
164,5754.399369999999,0.9659345364988965
165,5759.79,0.9656070408947681
166,5826.49,0.9723030501519921
167,5893.96,0.9059641056929952
168,5962.22,0.9266392087199535
169,6031.25,0.9164603580306907
170,6101.08,0.9175205554284712
171,6171.74,0.875230802716559
172,6243.19,0.8712150974906018
173,6315.49,0.875239443357128
174,6388.61,0.8894618385128735
175,6462.6,0.8712282859632783
176,6537.43,0.8700307839050786
177,6606.93448,0.866365521888441
178,6613.12,0.8660389638758469
179,6689.72,0.8378029903722121
180,6767.19,0.833379017169515
181,6845.52,0.8364540442642967
182,6924.79,0.8301250716842298
183,7005.0,0.828217099429314
184,7086.11,0.8176081274857132
185,7168.16,0.7964341558672635
186,7251.15,0.7819011845739652
187,7335.14,0.7946022136265724
188,7420.07,0.7964332430043307
189,7505.97,0.8001082727176175
190,7585.77575,0.8046885681976824
191,7592.88,0.8050964740719342
192,7680.83,0.7801066250703167
193,7769.76,0.7802878000366172
194,7859.72,0.7724280001936891
195,7950.73,0.7455302260306735
196,8042.81,0.7539874780367115
197,8135.94,0.756597755722662
198,8230.14,0.7422840595776661
199,8325.45,0.7257293905800064
200,8421.84,0.7280737479959708
201,8519.38,0.6889491335375536
202,8618.02,0.7006245459819019
203,8709.6359,0.7335695837493535
204,8717.81,0.7365093591777034
205,8818.75,0.7141484293403326
206,8920.87,0.7285995821539616
207,9024.17,0.66682381761859
208,9128.68,0.7048611378355147
209,9234.38,0.6566355414038713
210,9341.32,0.6445150318258206
211,9449.48,0.6238006077004984
212,9558.89,0.8556252711292013
213,9669.58,0.6550050242132257
214,9781.56,0.643063867653004
215,9894.83,0.6536668014485361
216,10000.0,0.6465352389422535
217,10009.4,0.6458978280416768
218,10125.3,0.6456089675222471
219,10242.5,0.6342781982998384
220,10361.1,0.6258775273972985
221,10481.1,0.6202949548146275
222,10602.5,0.6080094805518254
223,10725.2,0.6085770975860442
224,10849.4,0.6016248199629797
225,10975.1,0.5883546476826318
226,11102.2,0.5735295737221527
227,11230.7,0.5693315980815425
228,11360.8,0.5628277348064967
229,11481.5362,0.5545811631716583
230,11492.3,0.5538466661186199
231,11625.4,0.5390336232372563
232,11760.0,0.5355897827276281
233,11896.2,0.5277811580811841
234,12033.9,0.5193697358064753
235,12173.3,0.5110945428863995
236,12314.2,0.5017955523380591
237,12456.8,0.48815679114435195
238,12601.1,0.4759822593052779
239,12747.0,0.4760019433293881
240,12894.6,0.4684208567081316
241,13043.9,0.4630869994415082
242,13182.5674,0.4572798402287725
243,13194.9,0.45676416475649156
244,13347.7,0.450537607713996
245,13502.3,0.44235940929272755
246,13658.6,0.42739954956928483
247,13816.8,0.4298950683904707
248,13976.8,0.42501494583288374
249,14138.6,0.4120651818965239
250,14302.4,0.39905581642819427
251,14468.0,0.4009268095810918
252,14635.5,0.3768521812786179
253,14805.0,0.38830495144417426
254,14976.4,0.4010281001543592
255,15135.6125,0.3935279859969865
256,15149.8,0.3928617621814894
257,15325.2,0.39382485369555525
258,15502.7,0.3956996766359583
259,15682.2,0.37541519617287294
260,15863.8,0.38331244713612467
261,16047.5,0.3842574295257136
262,16233.3,0.3522491433416397
263,16421.3,0.3650586234137286
264,16611.5,0.37533386974198013
265,16803.8,0.3548788474965689
266,16998.4,0.359883626337146
267,17195.2,0.3461821714338858
268,17378.0083,0.33551147943225845
269,17394.3,0.3345655311465327
270,17595.7,0.32266465628899155
271,17799.5,0.3027793559117975
272,18005.6,0.3001575644116027
273,18214.1,0.2941863473917549
274,18425.0,0.27173570485225435
275,18638.3,0.2639376367931008
276,18854.2,0.2587222744209899
277,19072.5,0.25593748652922604
278,19293.3,0.2424833387211571
279,19516.7,0.23185789660013084
280,19742.7,0.23200616016614722
281,19952.6231,0.22270146778514582
282,19971.4,0.22188010044721743
283,20202.6,0.21719805389879732
284,20436.6,0.21215247045446206
285,20673.2,0.2049231027496342
286,20912.6,0.19975619814889126
287,21154.7,0.19343563296994443
288,21399.7,0.1915836545773712
289,21647.5,0.1826911392888829
290,21898.2,0.17817821078676818
291,22151.7,0.17495874538873832
292,22408.2,0.16805699045937086
293,22667.7,0.15417394599866577
294,22908.6765,0.14976262193491915
295,22930.2,0.14938946846295634
296,23195.7,0.13994111671956036
297,23464.3,0.1333186030537368
298,23736.0,0.12650092746548564
299,24010.8,0.11921708995480686
300,24288.9,0.11360853168799548
301,24570.1,0.10969191149875651
302,24854.7,0.10607369113653244
303,25142.4,0.10334320885188075
304,25433.6,0.10233374697739145
305,25728.1,0.10175916434676956
306,26026.0,0.10161468154316255
307,26302.679900000003,0.10114122073545845
308,26327.4,0.10111978506651423
309,26632.2,0.10117930023923233
310,26940.6,0.10196269511871481
311,27252.6,0.10297316970496168
312,27568.1,0.10321141900611838
313,27887.4,0.10350595799774859
314,28210.3,0.1037211766961432
315,28536.9,0.10471728009315676
316,28867.4,0.1050196781724984
317,29201.7,0.10598226594231355
318,29539.8,0.10661584340260223
319,29881.8,0.107602315545219
320,30199.5172,0.10871003579066968
321,30227.9,0.10882129321398368
322,30577.9,0.11009725167872228
323,30932.0,0.11148219171404783
324,31290.1,0.11314766498897039
325,31652.5,0.11479181649645975
326,32019.0,0.11643294957453604
327,32389.8,0.11807136088517911
328,32764.8,0.11931960209739904
329,33144.2,0.1202371698731757
330,33528.0,0.12165076421250907
331,33916.2,0.12296448511539915
332,34309.0,0.1242561292438258
333,34673.685,0.12542067044676122
334,34706.2,0.12552038911996993
335,35124.3,0.12661800132092876
336,35530.9,0.12764000938337758
337,35942.4,0.12853796616571325
338,36358.7,0.12978633597977485
339,36779.5,0.1305038117610795
340,37205.6,0.13144737901491482
341,37636.5,0.13231405930047607
342,38072.2,0.1333531526177632
343,38512.8,0.13446579465493722
344,38959.0,0.13535363522912477
345,39410.1,0.1364373245231992
346,39810.7171,0.1372379522566013
347,39866.3,0.1373063148562951
348,40328.1,0.13817639958582578
349,40795.1,0.13890374356306884
350,41267.4,0.13994380561971098
351,41745.1,0.14084194458743904
352,42228.8,0.14187621345637366
353,42717.7,0.1431660415730206
354,43212.2,0.143326164264127
355,43712.8,0.14445777568812673
356,44218.8,0.14563826402321234
357,44730.9,0.1473106410911913
358,45249.0,0.14935564806037677
359,45708.818999999996,0.15153697463501317
360,45772.9,0.15178344689498097
361,46302.8,0.15389234728763818
362,46838.9,0.15650923000230793
363,47381.2,0.15941889503899026
364,47929.9,0.162427780537105
365,48485.1,0.1658779555663619
366,49046.5,0.16902501291763145
367,49614.2,0.17200852166062347
368,50188.9,0.1748866652833071
369,50770.1,0.17797909843713303
370,51358.0,0.1827101592615209
371,51952.8,0.18793378589589055
372,52480.746,0.19294179811038076
373,52554.2,0.19355931336222054
374,53162.8,0.19893058473568215
375,53778.5,0.20438819907127254
376,54401.0,0.20979597286354962
377,55030.9,0.21761527312339754
378,55668.4,0.2234712221877777
379,56312.8,0.22922839187732527
380,56964.9,0.23409327153988574
381,57624.7,0.2380978611754591
382,58291.7,0.24192285494164195
383,58966.7,0.24555074218627979
384,59649.7,0.2517035229093726
385,60255.9586,0.2606617087755998
386,60340.3,0.26185486557954185
387,61038.9,0.27425847002962694
388,61745.8,0.2833939272093653
389,62460.8,0.28034624066743985
390,63184.0,0.2737864086295091
391,63915.6,0.26785942754688996
392,64655.9,0.2623962920965579
393,65404.5,0.256365009375879
394,66161.8,0.25043157228748725
395,66927.8,0.2469279808313825
396,67000.0,0.2464275415632509
397,67702.8,0.24141149727733624
398,68486.8,0.23580913196160064
399,69242.2916,0.23333108826323734
400,69279.9,0.2331878090317312
401,70082.3,0.22741527635703507
402,70893.8,0.2211978876911379
403,71559.6261,0.2170669791534826
404,71714.6,0.2160309515985954
405,72545.1,0.21287678679092148
406,73385.1,0.2166548952334909
407,73954.515,0.21747809282450617
408,74234.7,0.21741522978201383
409,75094.4,0.2164842763761211
410,75963.9,0.2118558593859807
411,76429.5536,0.2076771747998421
412,76843.4,0.20317277735689485
413,77733.3,0.1911140266119908
414,78633.3,0.1738706457035588
415,78987.42450000001,0.1678216481190966
416,79544.1,0.15803725109301242
417,80464.9,0.1404074931543577
418,81396.9,0.12268606552748298
419,81630.8998,0.11858864323182529
420,82339.2,0.10648112482299474
421,83292.7,0.09456066464379129
422,84257.3,0.08179969001467785
423,84362.84430000001,0.08059827968273846
424,85233.0,0.072568604095048
425,86219.8,0.06376498795974954
426,87186.21900000001,0.05460972583228667
427,87218.4,0.054341283202016144
428,88228.1,0.04671238161694298
429,89250.0,0.0429689829244737
430,90104.0836,0.040181485867850204
431,90283.3,0.03967599118495742
432,91328.8,0.037150792321344966
433,92386.1,0.035341767999491826
434,93119.6005,0.03426485378100198
435,93455.9,0.0341740245376599
436,94538.2,0.03411762483724033
437,95633.0,0.03428076171054778
438,96236.03790000001,0.034454475318111605
439,96740.3,0.034909724860524516
440,97860.4,0.03610441478806001
441,98993.7,0.03749428029549325
442,99456.7731,0.0381672213538875
443,100140.0,0.03937393486688
444,101300.0,0.041618215223563446
445,102473.0,0.04412211010148559
446,102785.297,0.04483734116955451
447,103659.0,0.04677980473709157
448,104859.0,0.04978112336612198
449,106074.0,0.053009277228015274
450,106225.216,0.053566251777197926
451,107302.0,0.057763857957715874
452,108544.0,0.06323539575619488
453,109780.26,0.06919039002829673
454,109801.0,0.06929007207141831
455,111073.0,0.08037745344305507
456,112359.0,0.08763773460966266
457,113454.28,0.09074087159010642
458,113660.0,0.09131900812260155
459,114976.0,0.09309577518499157
460,116307.0,0.09754739878684654
461,117251.259,0.10244566856391846
462,117654.0,0.10453878308125525
463,119017.0,0.113833364319598
464,120395.0,0.12291924835953658
465,121175.312,0.12791205492902918
466,121789.0,0.13172437417264135
467,123199.0,0.14108641360848656
468,124626.0,0.1513485619595157
469,125230.691,0.15486962222954348
470,126069.0,0.15963415268136633
471,127528.0,0.16604162321468052
472,129005.0,0.1642607938642385
473,129421.79100000001,0.16311311483237537
474,130499.0,0.1598515090195937
475,132010.0,0.16043920810319628
476,133539.0,0.16110167130559766
477,133753.155,0.16121286850861719
478,135085.0,0.16158947460124895
479,136649.0,0.16092614506490582
480,138229.477,0.16210069867081484
481,138232.0,0.16210214060904726
482,139832.0,0.16347119184236467
483,141451.0,0.16369273993407768
484,142855.609,0.16482064673045516
485,143090.0,0.16494984030715124
486,144746.0,0.16426229635556552
487,146422.0,0.163180291728236
488,147636.563,0.16170114212039605
489,148118.0,0.1611228387566538
490,149833.0,0.1568966277568987
491,151568.0,0.15264088893207353
492,152577.522,0.15017445316914735
493,153323.0,0.14833677775808532
494,155099.0,0.1437286882849738
495,156894.0,0.13758161080511164
496,157683.84,0.1354529983364173
497,158711.0,0.13272180285518836
498,160549.0,0.12916585213023615
499,162408.0,0.12633381306729485
500,162961.05099999998,0.1256973281928293
501,164289.0,0.12412828283702174
502,166191.0,0.12195954414811387
503,168115.0,0.11987479954377174
504,168414.875,0.11959123153435199
505,170062.0,0.11820766533997754
506,172031.0,0.116796825560641
507,174023.0,0.11516423640856463
508,174051.222,0.11514942537572977
509,176039.0,0.11413520270538577
510,178077.0,0.1137653189872675
511,179876.201,0.11387390744175382
512,180139.0,0.11387591669399724
513,182225.0,0.11414434996358527
514,184335.0,0.11484555130530665
515,185896.125,0.11575169834781082
516,186469.0,0.11614027368305888
517,188628.0,0.11748905306294008
518,190813.0,0.1194700334913979
519,192117.51799999998,0.12055504332487169
520,193022.0,0.12125348755004614
521,195257.0,0.12453343852579588
522,197518.0,0.12724124280148724
523,198547.123,0.13061215605600254
524,199806.0,0.13474327703938008
525,202119.0,0.14905983234418121
526,204460.0,0.15542127660208846
527,205191.907,0.1573882899386816
528,206827.0,0.16165133356974803
529,209222.0,0.16923165872925128
530,211645.0,0.1752520244334168
531,212059.073,0.17607248856091437
532,214095.0,0.1801275540194916
533,216575.0,0.18542841787514208
534,219082.0,0.19097374194212424
535,219156.062,0.191139101076498
536,221619.0,0.1966478871004714
537,224185.0,0.2040516384290813
538,226490.56699999998,0.20627180969439424
539,226782.0,0.20652568932129267
540,229408.0,0.20936269610305627
541,232064.0,0.21275413403617288
542,234070.535,0.21523982550407342
543,234751.0,0.21609371300261934
544,237469.0,0.22286722869472694
545,240219.0,0.2251762515620176
546,241904.18300000002,0.22634566076710957
547,243001.0,0.2270854695975681
548,245815.0,0.22856382860775556
549,248661.0,0.23049007300825078
550,250000.0,0.2311965047859291
551,251540.0,0.23200157065405497
552,254453.0,0.23352490274533313
553,257399.0,0.23462073911364942
554,260380.0,0.23527862547276376
555,263395.0,0.23593778896579623
556,266445.0,0.23659800244962675
557,269530.0,0.2372612659242553
558,272651.0,0.2383843522465619
559,275422.87,0.2397855726301555
560,275808.0,0.23998478000950546
561,279002.0,0.24163775894712036
562,282233.0,0.24378476769709964
563,285501.0,0.24548280625944324
564,288807.0,0.24671065922367458
565,292151.0,0.24696632658979362
566,295534.0,0.24623759294732372
567,298956.0,0.24599145829626493
568,302418.0,0.2457367072261406
569,305920.0,0.24498233973695066
570,309462.0,0.2447123558286952
571,313045.0,0.2439405400908975
572,316227.766,0.24412240731063453
573,316670.0,0.24416375863300796
574,320338.0,0.2444990171748235
575,324046.0,0.24533211386867634
576,327799.0,0.24566515348357104
577,331595.0,0.2465004941119058
578,335434.0,0.24733913575368058
579,339318.0,0.2502437203164973
580,343248.0,0.2532000687541568
581,347222.0,0.2562075391590573
582,351243.0,0.2576395943926016
583,355309.0,0.2574525925471877
584,359424.0,0.2567158174380195
585,363078.055,0.25653818864864636
586,363587.0,0.2565376273844433
587,367795.0,0.2559841172396614
588,372056.0,0.2559666356030369
589,376365.0,0.2543138401624796
590,380722.0,0.25265973091798943
591,385132.0,0.25154165018165664
592,389590.0,0.25041725564139106
593,394101.0,0.2492878896092829
594,398663.0,0.24868781516049604
595,403281.0,0.24754537460712084
596,407951.0,0.24639809409948507
597,412674.0,0.24524384210000671
598,416869.38300000003,0.24422476448597624
599,417451.0,0.24410989450961396
600,422288.0,0.2426342638808677
601,427177.0,0.24116015427906073
602,432122.0,0.2396852211678037
603,437128.0,0.23873003387661004
604,442187.0,0.2372532814782583
605,447309.0,0.2357751026317753
606,452490.0,0.2348118418735503
607,457729.0,0.2333295853376806
608,463028.0,0.23184816075597164
609,468389.0,0.2308763958602287
610,473812.0,0.22939029065045177
611,478630.092,0.22853009589070705
612,479299.0,0.22843452381411122
613,484851.0,0.226639272505556
614,490465.0,0.22535089158944846
615,496142.0,0.22406533058824743
616,501889.0,0.22228523615916476
617,507701.0,0.2210038606899063
618,513580.0,0.21923210322538966
619,519528.0,0.21795586281053259
620,525542.0,0.2166792908779585
621,531628.0,0.21492108456242046
622,537785.0,0.21413029434145964
623,544010.0,0.2128570716476995
624,549540.874,0.21132138876070006
