,lambda (Angstroms),Total Flux (erg/s/cm^2/Angstrom)
0,1000.94,31.490812447973706
1,1012.53,31.23968894533605
2,1024.25,30.458792400822375
3,1036.11,30.231124426596097
4,1048.11,30.35364702265719
5,1060.25,29.790156189005657
6,1072.52,29.32937031347813
7,1084.94,28.793008620401356
8,1096.4782,28.639966825404937
9,1097.51,28.633394826253898
10,1110.22,28.188650628348277
11,1123.07,27.66652622684653
12,1136.08,27.565398735520628
13,1149.23,27.102731040598595
14,1162.54,26.78429025585243
15,1176.0,25.822067824396118
16,1189.62,25.905672303115665
17,1203.39,25.024415135125064
18,1217.33,23.962543434196323
19,1231.42,24.603840086557433
20,1245.68,24.395712205980388
21,1258.92541,24.00769199231453
22,1260.11,23.9835824557553
23,1274.7,23.892001465372008
24,1289.46,23.589516090590827
25,1304.39,23.032076331411766
26,1319.49,23.05331218783481
27,1334.77,22.498961637248332
28,1350.23,22.260674679652332
29,1365.86,21.873063337658444
30,1381.68,21.42358356604338
31,1397.68,20.5907973874188
32,1413.86,20.547714801784693
33,1430.24,20.162031763917774
34,1445.43977,19.936495589603183
35,1446.8,19.92543241734201
36,1463.55,19.633500290060944
37,1480.5,19.393868674692936
38,1497.64,19.11437254564234
39,1514.98,18.695056928504812
40,1532.52,18.19951182328034
41,1550.27,17.679262255564584
42,1568.22,17.64252319976189
43,1586.38,17.449279681467907
44,1604.75,17.028561700682648
45,1623.33,16.7012592574061
46,1642.13,16.413447377233915
47,1659.58691,16.120331616480275
48,1661.15,16.10134391657057
49,1680.38,15.967608311382719
50,1699.84,15.698926248098498
51,1719.52,15.366776268374267
52,1739.43,15.230919830553667
53,1759.57,15.012316934636697
54,1779.95,14.737109038966992
55,1800.56,14.454984685200914
56,1821.41,14.222335331682103
57,1842.5,13.89289097841056
58,1863.84,13.590023083729918
59,1885.42,13.291160189296537
60,1905.46072,12.999439247193145
61,1907.25,12.978582754608329
62,1929.33,12.707749877534628
63,1951.67,12.554720930350454
64,1974.27,12.296498913055814
65,1997.14,12.025233284492607
66,2020.26,11.837573126977027
67,2043.66,11.595320817034786
68,2067.32,11.327752436982074
69,2091.26,11.149957904502708
70,2115.47,10.906766760754776
71,2139.97,10.678815923422093
72,2164.75,10.469240933662743
73,2187.7616199999998,10.265215263126057
74,2189.82,10.252260988606016
75,2215.17,10.101517872024603
76,2240.82,9.975181351696664
77,2266.77,9.850160427622196
78,2293.02,9.730847099801206
79,2319.57,9.616566368233688
80,2346.43,9.47202341946143
81,2373.6,9.354223253484426
82,2401.08,9.20787487030268
83,2428.89,9.092788642999755
84,2457.01,8.991518198492084
85,2485.47,8.834919096405024
86,2511.88643,8.710344722336908
87,2514.24,8.70247437295808
88,2543.36,8.582197009122178
89,2572.81,8.51299949075105
90,2602.6,8.386118722252718
91,2632.74,8.280209608035205
92,2663.22,8.186761243690485
93,2694.06,8.049560438034607
94,2725.26,7.89245919106757
95,2756.82,7.758566502789378
96,2788.67,7.641950042343863
97,2820.97,7.538827280259402
98,2853.63,7.3852060768637795
99,2884.0315,7.277151162810144
100,2886.67,7.270880990802358
101,2920.1,7.205179858620588
102,2953.91,7.082376675878569
103,2988.12,6.995069808336289
104,3022.72,6.861321573113757
105,3057.72,6.769612653090963
106,3093.12,6.669370048267909
107,3128.94,6.58294712440458
108,3165.17,6.470941198620984
109,3201.82,6.3841799537971164
110,3238.9,6.281093072812968
111,3276.4,6.180669872788547
112,3311.31121,6.067743837551783
113,3314.34,6.060448383548594
114,3352.72,5.9834676810210965
115,3391.55,5.896172390788091
116,3430.78,5.819375800372412
117,3470.51,5.717480334728391
118,3510.69,5.633250281378864
119,3551.35,5.55899546781013
120,3592.5,5.419887836517618
121,3634.1,5.369525617519601
122,3676.18,5.264064638302376
123,3718.75,5.221386841361375
124,3761.81,5.1572752266965995
125,3801.8939600000003,5.071705542385678
126,3805.38,5.066291604221827
127,3849.44,5.127998147553341
128,3894.03,4.943794958655297
129,3939.1,5.0148642386814295
130,3984.72,4.96156430601651
131,4030.87,5.085048641122033
132,4077.53,4.982103724459492
133,4124.76,4.870087114644409
134,4172.5,4.848654253061261
135,4220.83,4.788331217864077
136,4269.69,4.700263450437337
137,4319.13,4.565579749627306
138,4365.15832,4.557303009005236
139,4369.17,4.5582692539738865
140,4419.86,4.504059609786157
141,4471.04,4.445878325715768
142,4522.81,4.451305067092789
143,4575.17,4.383759833917221
144,4628.16,4.339262492321092
145,4681.74,4.252243176172373
146,4735.94,4.190211785070086
147,4790.8,4.132628185146256
148,4846.28,4.039572510268861
149,4902.4,3.9906246935039085
150,4959.17,4.031654701384409
151,5011.87234,4.288359757735902
152,5016.56,4.312571364084112
153,5074.65,3.809482325807577
154,5133.44,3.7435268281267797
155,5192.88,3.646063332427739
156,5252.99,3.6577986541560485
157,5313.82,3.6302663319256876
158,5375.35,3.561907550291065
159,5437.6,3.5073381246977724
160,5500.56,3.4626851474230156
161,5564.27,3.422810249357977
162,5628.68,3.344566891888677
163,5693.85,3.2949935213518926
164,5754.399369999999,3.248368049325152
165,5759.79,3.2453280797584916
166,5826.49,3.2184617756495912
167,5893.96,3.118173066830588
168,5962.22,3.104500890841478
169,6031.25,3.0595873101422666
170,6101.08,3.0255102310429485
171,6171.74,2.9476655598535193
172,6243.19,2.907697421493985
173,6315.49,2.875341628584337
174,6388.61,2.8527712748145797
175,6462.6,2.7973072040347056
176,6537.43,2.7584565099347196
177,6606.93448,2.719817767586605
178,6613.12,2.717322226857709
179,6689.72,2.6622260902523935
180,6767.19,2.630636884210438
181,6845.52,2.606245115277091
182,6924.79,2.572119731090363
183,7005.0,2.542085731650254
184,7086.11,2.5030351431377587
185,7168.16,2.4530899393718824
186,7251.15,2.4094561203526244
187,7335.14,2.392705646808493
188,7420.07,2.364755558010981
189,7505.97,2.338309334324341
190,7585.77575,2.314905354850725
191,7592.88,2.313585422994686
192,7680.83,2.267205092467357
193,7769.76,2.2457574383025425
194,7859.72,2.216018301130984
195,7950.73,2.166985817204978
196,8042.81,2.15304812277682
197,8135.94,2.1330080815942134
198,8230.14,2.0957838299094558
199,8325.45,2.0560486402271385
200,8421.84,2.0349498081688187
201,8519.38,1.9721023106175313
202,8618.02,1.9597873069425364
203,8709.6359,1.9704502728917797
204,8717.81,1.972081771086079
205,8818.75,1.9335652395304712
206,8920.87,1.9316719298171896
207,9024.17,1.8533628419462342
208,9128.68,1.8746731764729179
209,9234.38,1.8095301330270321
210,9341.32,1.7802937125340987
211,9449.48,1.7422681146239094
212,9558.89,1.9565815398517774
213,9669.58,1.7382451887730155
214,9781.56,1.708381461572729
215,9894.83,1.7008553582509172
216,10000.0,1.6768911760427625
217,10009.4,1.6753324947023063
218,10125.3,1.663684565674148
219,10242.5,1.640867318201325
220,10361.1,1.6208429585573247
221,10481.1,1.6034994867421475
222,10602.5,1.5793159027557933
223,10725.2,1.5678580003247746
224,10849.4,1.5487331919960665
225,10975.1,1.5231434777696684
226,11102.2,1.4958616513720933
227,11230.7,1.479069712803341
228,11360.8,1.4598150746103866
229,11481.5362,1.4397354506262507
230,11492.3,1.438449981287834
231,11625.4,1.4168238787821883
232,11760.0,1.4064901973602502
233,11896.2,1.3917098317609344
234,12033.9,1.3762498872453264
235,12173.3,1.360839153291254
236,12314.2,1.3443278404208896
237,12456.8,1.323389738112061
238,12601.1,1.3038288463647678
239,12747.0,1.2963802704400968
240,12894.6,1.2812439050769615
241,13043.9,1.2682677502753619
242,13182.5674,1.2553625500097016
243,13194.9,1.2546284255413291
244,13347.7,1.2456953016270587
245,13502.3,1.234778652692856
246,13658.6,1.217050230128717
247,13816.8,1.2167435311546493
248,13976.8,1.2090293071606488
249,14138.6,1.1932135581467163
250,14302.4,1.1773027813328585
251,14468.0,1.1762404794990682
252,14635.5,1.1491989012553492
253,14805.0,1.1576492952117052
254,14976.4,1.1673364127581325
255,15135.6125,1.1570161462573536
256,15149.8,1.1563259047229157
257,15325.2,1.156992065283521
258,15502.7,1.1585664022248405
259,15682.2,1.1379780500049355
260,15863.8,1.1455678741657447
261,16047.5,1.146201874707268
262,16233.3,1.1138790516295054
263,16421.3,1.1263702704743959
264,16611.5,1.1363235312419393
265,16803.8,1.115542968390197
266,16998.4,1.1202183130030465
267,17195.2,1.1061836995385488
268,17378.0083,1.0952035352289426
269,17394.3,1.094307993936059
270,17595.7,1.0830302565263226
271,17799.5,1.0637755192666192
272,18005.6,1.061791407150697
273,18214.1,1.0564652951848081
274,18425.0,1.0346671833689522
275,18638.3,1.027529071703129
276,18854.2,1.0229817101998415
277,19072.5,1.020872348846587
278,19293.3,1.008101362649617
279,19516.7,0.9981671266151824
280,19742.7,0.9990146407432834
281,19952.6231,0.9903594565289615
282,19971.4,0.9894884352534563
283,20202.6,0.9841949996915252
284,20436.6,0.9785306228684635
285,20673.2,0.9706755863029233
286,20912.6,0.9648756084762525
287,21154.7,0.9579148301477772
288,21399.7,0.9554149697988451
289,21647.5,0.9458671681887822
290,21898.2,0.9406912845582629
291,22151.7,0.9368014596666127
292,22408.2,0.9292214119951798
293,22667.7,0.9146521415439638
294,22908.6765,0.9096035753322314
295,22930.2,0.9090654059622219
296,23195.7,0.8975815246380673
297,23464.3,0.8888997143794315
298,23736.0,0.8799989751863139
299,24010.8,0.8706083070587146
300,24288.9,0.8628676178073122
301,24570.1,0.8567950996214285
302,24854.7,0.8509949142170807
303,25142.4,0.8460586998782513
304,25433.6,0.8428166722262977
305,25728.1,0.8399842234505409
306,26026.0,0.8375558074563203
307,26302.679900000003,0.8349611032555794
308,26327.4,0.8345806608718257
309,26632.2,0.8302136063027584
310,26940.6,0.8265181491206707
311,27252.6,0.8229974893255623
312,27568.1,0.8186537742122395
313,27887.4,0.8143111618962842
314,28210.3,0.8098369469673082
315,28536.9,0.8060898821305057
316,28867.4,0.8015924727962644
317,29201.7,0.7977000662593904
318,29539.8,0.7934234625198836
319,29881.8,0.7894431142829379
320,30199.5172,0.7859366700140684
321,30227.9,0.7855553602014685
322,30577.9,0.7807572691513667
323,30932.0,0.7759970065203923
324,31290.1,0.7714478594202737
325,31652.5,0.7668027665158252
326,32019.0,0.7620835020305045
327,32389.8,0.7572868917408536
328,32764.8,0.7520272227586016
329,33144.2,0.7463605208602913
330,33528.0,0.7411134860459222
331,33916.2,0.735690218315495
332,34309.0,0.730165043445552
333,34673.685,0.7250006853704314
334,34706.2,0.7245203809002222
335,35124.3,0.7181596607541687
336,35530.9,0.7119284807460721
337,35942.4,0.7054858401574546
338,36358.7,0.6993079871634296
339,36779.5,0.6925189662893342
340,37205.6,0.6858614921342677
341,37636.5,0.6790415055737933
342,38072.2,0.6723083066079111
343,38512.8,0.665561247061508
344,38959.0,0.6584894897087958
345,39410.1,0.651526171775563
346,39810.7171,0.6451803381942169
347,39866.3,0.6443590589724811
348,40328.1,0.6378377230827886
349,40795.1,0.6310904169318869
350,41267.4,0.6245709987839835
351,41745.1,0.617823226903286
352,42228.8,0.6111155508750393
353,42717.7,0.6045802045855837
354,43212.2,0.5968255210917487
355,43712.8,0.5899446917145721
356,44218.8,0.5830263086046015
357,44730.9,0.5765021796112894
358,45249.0,0.5702546464704282
359,45708.818999999996,0.5650762596676056
360,45772.9,0.5644103627779199
361,46302.8,0.5589746803394515
362,46838.9,0.5539587061834542
363,47381.2,0.5491472403099283
364,47929.9,0.5443438733086305
365,48485.1,0.5398892504744399
366,49046.5,0.5350432359227204
367,49614.2,0.5299439749483507
368,50188.9,0.5246396846154806
369,50770.1,0.5194571384497176
370,51358.0,0.5158178270408185
371,51952.8,0.5125728409785406
372,52480.746,0.5100640909221091
373,52554.2,0.5098615469766038
374,53162.8,0.5084382526694455
375,53778.5,0.5070220351128939
376,54401.0,0.50548006007805
377,55030.9,0.5062669960227115
378,55668.4,0.5050057324328112
379,56312.8,0.5035686561075847
380,56964.9,0.5011533249907627
381,57624.7,0.49779173908234514
382,58291.7,0.49417017466750035
383,58966.7,0.4902621896899588
384,59649.7,0.4887897841497203
385,60255.9586,0.4909795443223219
386,60340.3,0.49153415764083175
387,61038.9,0.4986487050095445
388,61745.8,0.502432266324951
389,62460.8,0.4939713593232757
390,63184.0,0.4819362251364063
391,63915.6,0.47047034602811866
392,64655.9,0.45940244539407626
393,65404.5,0.44770355870672784
394,66161.8,0.4360366504936246
395,66927.8,0.42673372075476684
396,67000.0,0.4256866597842661
397,67702.8,0.41650091174900306
398,68486.8,0.40624708408339666
399,69242.2916,0.3992867180214573
400,69279.9,0.3989679510791977
401,70082.3,0.3894512724395407
402,70893.8,0.3794472755351518
403,71559.6261,0.3722094999664887
404,71714.6,0.3708712329002102
405,72545.1,0.36609737655602315
406,73385.1,0.3682372659851416
407,73954.515,0.3679499558624138
408,74234.7,0.3686379100171233
409,75094.4,0.3700107114319185
410,75963.9,0.36771231051318454
411,76429.5536,0.3647814469410866
412,76843.4,0.36382744424824365
413,77733.3,0.3594031595470647
414,78633.3,0.34988089274061324
415,78987.42450000001,0.34686993479038086
416,79544.1,0.3432066592144033
417,80464.9,0.33570188186364625
418,81396.9,0.3282285883678756
419,81630.8998,0.32670419325789557
420,82339.2,0.32266969939709955
421,83292.7,0.32161698838209357
422,84257.3,0.31985027787860665
423,84362.84430000001,0.31985183448752824
424,85233.0,0.31634952507093805
425,86219.8,0.3126801681695237
426,87186.21900000001,0.3085531241962471
427,87218.4,0.3083806080984661
428,88228.1,0.30376146444057706
429,89250.0,0.3030641899689549
430,90104.0836,0.30282258266728623
431,90283.3,0.3025572892660652
432,91328.8,0.30143335970586316
433,92386.1,0.30104142006549817
434,93119.6005,0.3009476065018971
435,93455.9,0.2993351652231643
436,94538.2,0.29438181888469317
437,95633.0,0.28959145194266395
438,96236.03790000001,0.2870366758366338
439,96740.3,0.2840899965521583
440,97860.4,0.27772809938144105
441,98993.7,0.2714723259651622
442,99456.7731,0.2690212136238529
443,100140.0,0.26593828807158754
444,101300.0,0.2608995101709057
445,102473.0,0.256038726310992
446,102785.297,0.2547932011337156
447,103659.0,0.2508248900102069
448,104859.0,0.24570796979920248
449,106074.0,0.24071640683556048
450,106225.216,0.24025037504771415
451,107302.0,0.23831277658301117
452,108544.0,0.23670775662304985
453,109780.26,0.23561889800107
454,109801.0,0.23560619759923646
455,111073.0,0.23980107800737932
456,112359.0,0.2400929973508319
457,113454.28,0.2372612141620181
458,113660.0,0.2368302440512995
459,114976.0,0.232151710985023
460,116307.0,0.2300744558093285
461,117251.259,0.23034090549202768
462,117654.0,0.23070228248250566
463,119017.0,0.23413612878423012
464,120395.0,0.23729677970409535
465,121175.312,0.23893433917170792
466,121789.0,0.24054495323412012
467,123199.0,0.24484838910350817
468,124626.0,0.24999094363231436
469,125230.691,0.25134257691709067
470,126069.0,0.25332328963302564
471,127528.0,0.2548857804790642
472,129005.0,0.24820019787426567
473,129421.79100000001,0.2456684585758917
474,130499.0,0.23968902869051623
475,132010.0,0.23646443863274585
476,133539.0,0.23326919826323506
477,133753.155,0.2328400772789146
478,135085.0,0.2309739272567538
479,136649.0,0.22767690493819087
480,138229.477,0.2261900193705932
481,138232.0,0.22618832720103005
482,139832.0,0.22556983484615287
483,141451.0,0.22378023726956153
484,142855.609,0.22316331805851997
485,143090.0,0.2232656674756407
486,144746.0,0.2223884663774204
487,146422.0,0.2211145140582071
488,147636.563,0.21949626387489132
489,148118.0,0.21888493073130277
490,149833.0,0.21454105932647605
491,151568.0,0.2101662879635755
492,152577.522,0.20763059227793867
493,153323.0,0.20582405074587887
494,155099.0,0.20129013350737113
495,156894.0,0.1952180217713793
496,157683.84,0.19312239590053376
497,158711.0,0.19033824090573595
498,160549.0,0.1866875244325658
499,162408.0,0.18375963687890784
500,162961.05099999998,0.18309463715579283
501,164289.0,0.1813622205848862
502,166191.0,0.17895948793151253
503,168115.0,0.17663804280791057
504,168414.875,0.1763175826112699
505,170062.0,0.17457984619518932
506,172031.0,0.17274562557557696
507,174023.0,0.1706847100477619
508,174051.222,0.17066383062789084
509,176039.0,0.16876299067573763
510,178077.0,0.16748408893833994
511,179876.201,0.16679017193193052
512,180139.0,0.16668824548964883
513,182225.0,0.16613167615732696
514,184335.0,0.1659983830167713
515,185896.125,0.16628711290351966
516,186469.0,0.16632701614673284
517,188628.0,0.16636175136915693
518,190813.0,0.16701286311579733
519,192117.51799999998,0.16730389691583078
520,193022.0,0.1674430838195723
521,195257.0,0.16934109450971924
522,197518.0,0.17065088223697755
523,198547.123,0.173385470421005
524,199806.0,0.1766915258393782
525,202119.0,0.1894921453920328
526,204460.0,0.194319302751637
527,205191.907,0.19580662564787288
528,206827.0,0.19929634146769892
529,209222.0,0.205743935884718
530,211645.0,0.21061832806527636
531,212059.073,0.21124295368891896
532,214095.0,0.21425374162847932
533,216575.0,0.2182825518951937
534,219082.0,0.22254197340271503
535,219156.062,0.22266934429801466
536,221619.0,0.22708755554544868
537,224185.0,0.23335509683685907
538,226490.56699999998,0.2345543762990403
539,226782.0,0.23471150313699335
540,229408.0,0.23667670465383983
541,232064.0,0.2391863776274668
542,234070.535,0.24100591990372966
543,234751.0,0.24163565147837235
544,237469.0,0.24751381501986375
545,240219.0,0.24891694443086496
546,241904.18300000002,0.24953122772601144
547,243001.0,0.24997202214712477
548,245815.0,0.2506832280698808
549,248661.0,0.2518335955383114
550,250000.0,0.25217498894211954
551,251540.0,0.2526388092071292
552,254453.0,0.2535166552971883
553,257399.0,0.2539596932585044
554,260380.0,0.2539570256287297
555,263395.0,0.253948101139038
556,266445.0,0.2539324710582553
557,269530.0,0.2539121353863817
558,272651.0,0.2543436453922431
559,275422.87,0.25513065249667466
560,275808.0,0.2552760907982426
561,279002.0,0.25648314645167886
562,282233.0,0.2581790662438681
563,285501.0,0.25942085017481037
564,288807.0,0.26018714322122877
565,292151.0,0.2599759453831232
566,295534.0,0.2587749016372167
567,298956.0,0.25805101198350944
568,302418.0,0.2573129213987243
569,305920.0,0.25606962988286136
570,309462.0,0.2553051374359206
571,313045.0,0.25403308903462507
572,316227.766,0.2537706013803821
573,316670.0,0.2537758804115393
574,320338.0,0.2538119462992826
575,324046.0,0.2543425876056491
576,327799.0,0.25436950125796653
577,331595.0,0.25489520848530395
578,335434.0,0.25542070928766125
579,339318.0,0.2580084824359696
580,343248.0,0.2606442673156945
581,347222.0,0.26332758515590493
582,351243.0,0.26443165411299757
583,355309.0,0.26391299541604124
584,359424.0,0.2628405666068983
585,363078.055,0.26236488263388935
586,363587.0,0.26233968041724587
587,367795.0,0.2615824368083978
588,372056.0,0.2613586556731075
589,376365.0,0.2594972367780205
590,380722.0,0.2576321801231367
591,385132.0,0.25630058594181065
592,389590.0,0.2549603540006879
593,394101.0,0.2536125845331229
594,398663.0,0.2527916374457738
595,403281.0,0.2514256129719952
596,407951.0,0.25005223092510354
597,412674.0,0.24866931135176956
598,416869.38300000003,0.2474471111351549
599,417451.0,0.2473174918826747
600,422288.0,0.24571919934999104
601,427177.0,0.24412110917172133
602,432122.0,0.24252077537512826
603,437128.0,0.24143864049429004
604,442187.0,0.23983359647468142
605,447309.0,0.23822552838445904
606,452490.0,0.23713088219636017
607,457729.0,0.23551576940356922
608,463028.0,0.2338999670197175
609,468389.0,0.2327922520584363
610,473812.0,0.23116862451972559
611,478630.092,0.2301862473456609
612,479299.0,0.2300827942037263
613,484851.0,0.22822212930352465
614,490465.0,0.22686760431257874
615,496142.0,0.22551515697136032
616,501889.0,0.22366735146317251
617,507701.0,0.22231749908565598
618,513580.0,0.22047647531975445
619,519528.0,0.21913015564641164
620,525542.0,0.21778272684421196
621,531628.0,0.21595281535598662
622,537785.0,0.21508948344126377
623,544010.0,0.21374291787862776
624,549540.874,0.21214207030623866
625,550309.0,0.2119427485414522
626,556684.0,0.20937475917251547
627,563128.0,0.2068325402715855
628,569649.0,0.2047728333421994
629,576246.0,0.20227167069641497
630,582917.0,0.19979511695834798
631,589667.0,0.19734301056770906
