,lambda (Angstroms),Total Flux (erg/s/cm^2/Angstrom)
0,1000.94,36.61714352263599
1,1012.53,36.292541769558724
2,1024.25,35.43734280095944
3,1036.11,35.13448483102877
4,1048.11,35.18092985976672
5,1060.25,34.54047388717326
6,1072.52,34.00189869905782
7,1084.94,33.38679672380158
8,1096.4782,33.160605079864496
9,1097.51,33.14867729729622
10,1110.22,32.637959066406324
11,1123.07,32.04913393132095
12,1136.08,31.880475191440734
13,1149.23,31.34954954736503
14,1162.54,30.962020298494497
15,1176.0,29.9299307951288
16,1189.62,29.942837686968275
17,1203.39,28.990104324312572
18,1217.33,27.855874006562374
19,1231.42,28.424033434317007
20,1245.68,28.141885906977116
21,1258.92541,27.68511249769913
22,1260.11,27.656619531714515
23,1274.7,27.511050042934006
24,1289.46,27.153947105689298
25,1304.39,26.54126071998039
26,1319.49,26.506620885807276
27,1334.77,25.895728576789722
28,1350.23,25.600233792927718
29,1365.86,25.154785560601514
30,1381.68,24.64676582705061
31,1397.68,23.754773618655264
32,1413.86,23.651818935415474
33,1430.24,23.205523724570735
34,1445.43977,22.923742673060595
35,1446.8,22.909166153565675
36,1463.55,22.573970338404433
37,1480.5,22.290558453808426
38,1497.64,21.966791303249394
39,1514.98,21.502688083255613
40,1532.52,20.961838793827063
41,1550.27,20.395742631492013
42,1568.22,20.312640399722202
43,1586.38,20.072491295045893
44,1604.75,19.604325317463086
45,1623.33,19.22903246697378
46,1642.13,18.892661940106233
47,1659.58691,18.554456608869465
48,1661.15,18.532641235999
49,1680.38,18.364118029946507
50,1699.84,18.060232289448244
51,1719.52,17.692480646436643
52,1739.43,17.520606468979274
53,1759.57,17.265569757076143
54,1779.95,16.95349387879482
55,1800.56,16.63408546606773
56,1821.41,16.36371788696245
57,1842.5,15.996121141478985
58,1863.84,15.654648597684902
59,1885.42,15.316746887512625
60,1905.46072,14.988771729683801
61,1907.25,14.965543213709717
62,1929.33,14.665439190457064
63,1951.67,14.482794418742195
64,1974.27,14.194611898565116
65,1997.14,13.893027831908041
66,2020.26,13.674717814806531
67,2043.66,13.40144445320725
68,2067.32,13.102510343145752
69,2091.26,12.89297888858649
70,2115.47,12.61769288754724
71,2139.97,12.35726274399244
72,2164.75,12.114837255939866
73,2187.7616199999998,11.88030540366249
74,2189.82,11.86550498670702
75,2215.17,11.692025684028703
76,2240.82,11.542683910312773
77,2266.77,11.394388665559228
78,2293.02,11.251531949768074
79,2319.57,11.113438762939301
80,2346.43,10.944805322705
81,2373.6,10.802636629065162
82,2401.08,10.631641682019792
83,2428.89,10.491612916833047
84,2457.01,10.365121898240766
85,2485.47,10.182997279139194
86,2511.88643,10.034730247536727
87,2514.24,10.025287101784425
88,2543.36,9.88555001064254
89,2572.81,9.796672239209556
90,2602.6,9.649884009294837
91,2632.74,9.523833542707738
92,2663.22,9.410016617638899
93,2694.06,9.252206677707042
94,2725.26,9.074255722912163
95,2756.82,8.919272753254273
96,2788.67,8.781372216067838
97,2820.97,8.656664660302635
98,2853.63,8.481218089674408
99,2884.0315,8.352847073296157
100,2886.67,8.345331655936084
101,2920.1,8.263853168390686
102,2953.91,8.125093288524997
103,2988.12,8.021640943059005
104,3022.72,7.871563168632716
105,3057.72,7.763335928606123
106,3093.12,7.646386222979226
107,3128.94,7.54305797847201
108,3165.17,7.413953231724482
109,3201.82,7.309894946096636
110,3238.9,7.189308084948463
111,3276.4,7.071186684919971
112,3311.31121,6.941784234297497
113,3314.34,6.933476280806692
114,3352.72,6.8436654611912795
115,3391.55,6.743389622586105
116,3430.78,6.653478767101147
117,3470.51,6.538301890516456
118,3510.69,6.440639994942008
119,3551.35,6.352792879111817
120,3592.5,6.199929142603887
121,3634.1,6.135660387106201
122,3676.18,6.016132411352771
123,3718.75,5.959223814921605
124,3761.81,5.8807175978126995
125,3801.8939600000003,5.781748176655833
126,3805.38,5.775506871592131
127,3849.44,5.82675633881223
128,3894.03,5.631970285097846
129,3939.1,5.692342778461668
130,3984.72,5.6282155236859275
131,4030.87,5.740746747975705
132,4077.53,5.626727678536074
133,4124.76,5.50350163375181
134,4172.5,5.470738295238138
135,4220.83,5.398944754174757
136,4269.69,5.299280692176892
137,4319.13,5.152863041231856
138,4365.15832,5.133662068981994
139,4369.17,5.1339574629695335
140,4419.86,5.071271211417183
141,4471.04,5.004531380001729
142,4522.81,5.001300911608253
143,4575.17,4.924999806236758
144,4628.16,4.871641241041274
145,4681.74,4.775662038867768
146,4735.94,4.704567082581767
147,4790.8,4.6378095493373
148,4846.28,4.535476261980337
149,4902.4,4.4771438090878934
150,4959.17,4.508680484948477
151,5011.87234,4.75657242148587
152,5016.56,4.7802299247647975
153,5074.65,4.270274380108839
154,5133.44,4.197369632814576
155,5192.88,4.0928800544990285
156,5252.99,4.09751009651539
157,5313.82,4.062787387246635
158,5375.35,3.9871554753395753
159,5437.6,3.925227812147401
160,5500.56,3.8731326719935177
161,5564.27,3.8257269575843065
162,5628.68,3.7398700405367897
163,5693.85,3.6825932749105412
164,5754.399369999999,3.6288105876079353
165,5759.79,3.6253185930515737
166,5826.49,3.5928592382578564
167,5893.96,3.486912911302352
168,5962.22,3.467516872648391
169,6031.25,3.4168148618326444
170,6101.08,3.3768822695501064
171,6171.74,3.2931124864957724
172,6243.19,3.247152991742982
173,6315.49,3.2087345666817266
174,6388.61,3.180032820617009
175,6462.6,3.1183644047071564
176,6537.43,3.073238928257173
177,6606.93448,3.0287719688256725
178,6613.12,3.025914931333994
179,6689.72,2.9663421052944594
180,6767.19,2.930225364912178
181,6845.52,2.901255801156606
182,6924.79,2.86249768627209
183,7005.0,2.8277760202586295
184,7086.11,2.783985166994052
185,7168.16,2.729244762600529
186,7251.15,2.6807608070780615
187,7335.14,2.6591017546099085
188,7420.07,2.626188151012811
189,7505.97,2.5947217233783975
190,7585.77575,2.566653702680043
191,7592.88,2.565045826827134
192,7680.83,2.5151007745452496
193,7769.76,2.4900486780196327
194,7859.72,2.4566633513194813
195,7950.73,2.403942120072474
196,8042.81,2.38627230990629
197,8135.94,2.3624575951932494
198,8230.14,2.321415301561032
199,8325.45,2.2778170802649953
200,8421.84,2.2528114428636217
201,8519.38,2.1860105290537866
202,8618.02,2.1696975247662924
203,8709.6359,2.1766471855217535
204,8717.81,2.1780607329337585
205,8818.75,2.1368527794522163
206,8920.87,2.1322365847867215
207,9024.17,2.051173148937273
208,9128.68,2.069696872551737
209,9234.38,2.0017354885315375
210,9341.32,1.9696476646231154
211,9449.48,1.9287381337278944
212,9558.89,2.14013429649374
213,9669.58,1.918846553568518
214,9781.56,1.8859970385015172
215,9894.83,1.8754507512927368
216,10000.0,1.8486823602085116
217,10009.4,1.8469702438193574
218,10125.3,1.8334304932865058
219,10242.5,1.8087002045682121
220,10361.1,1.786739951650212
221,10481.1,1.7674377345325052
222,10602.5,1.741272553215092
223,10725.2,1.727811833712237
224,10849.4,1.7066597239954109
225,10975.1,1.6790182240646132
226,11102.2,1.6496617599341088
227,11230.7,1.6307723316038978
228,11360.8,1.609394087045451
229,11481.5362,1.5873437008563545
230,11492.3,1.5859666448358063
231,11625.4,1.5632080252458862
232,11760.0,1.5517290635869587
233,11896.2,1.53578980372109
234,12033.9,1.519158201786214
235,12173.3,1.502561345506463
236,12314.2,1.4848511471577046
237,12456.8,1.4626996944640713
238,12601.1,1.4419109874255627
239,12747.0,1.433220982180113
240,12894.6,1.4168287225897882
241,13043.9,1.4025822086545887
242,13182.5674,1.3884971195870361
243,13194.9,1.3877269964648837
244,13347.7,1.378347851898235
245,13502.3,1.3669799281416652
246,13658.6,1.3487952684835032
247,13816.8,1.3480267863470907
248,13976.8,1.339845525020757
249,14138.6,1.3235574845045024
250,14302.4,1.3071685782216682
251,14468.0,1.3056228927489129
252,14635.5,1.2780923847979073
253,14805.0,1.2860480110803227
254,14976.4,1.2952348148844879
255,15135.6125,1.2844498097507457
256,15149.8,1.2837563888434016
257,15325.2,1.2843832428307747
258,15502.7,1.2859178025956473
259,15682.2,1.2652892250057581
260,15863.8,1.2728383531933687
261,16047.5,1.2734311871584791
262,16233.3,1.2410667269010895
263,16421.3,1.2535158155534618
264,16611.5,1.2634264531155959
265,16803.8,1.2426027964552298
266,16998.4,1.2472345318368876
267,17195.2,1.233155816128307
268,17378.0083,1.2221346850693766
269,17394.3,1.2212493262587354
270,17595.7,1.2100974659473762
271,17799.5,1.1909701058110556
272,18005.6,1.18911480834248
273,18214.1,1.1839190110489428
274,18425.0,1.1622527139304442
275,18638.3,1.1552479169869838
276,18854.2,1.1508354952331485
277,19072.5,1.1488625736543514
278,19293.3,1.1362295897578862
279,19516.7,1.1264349810510461
280,19742.7,1.1274237475338307
281,19952.6231,1.1188997674441878
282,19971.4,1.1180243411290323
283,20202.6,1.1126766663067795
284,20436.6,1.1069573933465406
285,20673.2,1.099046850686744
286,20912.6,1.0931907098889613
287,21154.7,1.0861731351724067
288,21399.7,1.0836157980986525
289,21647.5,1.0740098628869126
290,21898.2,1.0687751653179733
291,22151.7,1.064825869611048
292,22408.2,1.0571856473277097
293,22667.7,1.0425554984679577
294,22908.6765,1.0374503994399842
295,22930.2,1.0368926402892589
296,23195.7,1.0251671120777452
297,23464.3,1.0162408334426702
298,23736.0,1.0070928043840328
299,24010.8,0.9974520249018336
300,24288.9,0.9894582207751975
301,24570.1,0.9831297662249999
302,24854.7,0.9770705499199275
303,25142.4,0.9718724831912933
304,25433.6,0.9683654175973473
305,25728.1,0.9652649273589643
306,26026.0,0.9625653753657071
307,26302.679900000003,0.9597188488047784
308,26327.4,0.9592911376837967
309,26632.2,0.9543412573532181
310,26940.6,0.9500560906407823
311,27252.6,0.9459388375464892
312,27568.1,0.940991836580946
313,27887.4,0.9360386722123315
314,28210.3,0.9309470214618596
315,28536.9,0.9265754458189234
316,28867.4,0.9214460682623086
317,29201.7,0.9169144273026221
318,29539.8,0.9119913229398642
319,29881.8,0.9073570166634276
320,30199.5172,0.9032430469055974
321,30227.9,0.9027961202350465
322,30577.9,0.8971888806765944
323,30932.0,0.8916099909404576
324,31290.1,0.8862329693236526
325,31652.5,0.8807500609351295
326,32019.0,0.8751835023689218
327,32389.8,0.8695296570309958
328,32764.8,0.8634030432183685
329,33144.2,0.8568592243370063
330,33528.0,0.8507249003869092
331,33916.2,0.8444041713680774
332,34309.0,0.8379709006864773
333,34673.685,0.831963444543449
334,34706.2,0.8314046610502591
335,35124.3,0.8240348042131969
336,35530.9,0.8168222442037507
337,35942.4,0.8093863968503638
338,36358.7,0.8022037516906677
339,36779.5,0.7943990773375564
340,37205.6,0.786713157489979
341,37636.5,0.7788531398360921
342,38072.2,0.7710683243758962
343,38512.8,0.7632578215717591
344,38959.0,0.7551091046602616
345,39410.1,0.7470570004048236
346,39810.7171,0.7397442273002639
347,39866.3,0.7387986521345613
348,40328.1,0.73124462692992
349,40795.1,0.7234530030872014
350,41267.4,0.7158774152479808
351,41745.1,0.7080613980538335
352,42228.8,0.7002720593542124
353,42717.7,0.6926434220165143
354,43212.2,0.6837829246070402
355,43712.8,0.6757826403336674
356,44218.8,0.6677327267053684
357,44730.9,0.6600634262131709
358,45249.0,0.6526573042154996
359,45708.818999999996,0.6464506580620697
360,45772.9,0.6456507565742399
361,46302.8,0.6391069603960267
362,46838.9,0.6329699072140299
363,47381.2,0.6270243970282496
364,47929.9,0.6210736021934024
365,48485.1,0.6154579588868465
366,49046.5,0.6094379585765071
367,49614.2,0.6031515374397424
368,50188.9,0.5966454487180607
369,50770.1,0.5902475115246705
370,51358.0,0.5853787982142882
371,51952.8,0.5808899811416307
372,52480.746,0.5772772035017999
373,52554.2,0.5769454714727044
374,53162.8,0.5744517947810197
375,53778.5,0.5719527076317096
376,54401.0,0.5693159034243916
377,55030.9,0.5689949953598301
378,55668.4,0.5666125211716131
379,56312.8,0.5640420987921821
380,56964.9,0.5604798791558898
381,57624.7,0.5559578622627359
382,58291.7,0.5511632037787504
383,58966.7,0.5460680546382852
384,59649.7,0.5433944148413403
385,60255.9586,0.5445179105941134
386,60340.3,0.5449658505809704
387,61038.9,0.5511968225111352
388,61745.8,0.5540863107124429
389,62460.8,0.544721085877155
390,63184.0,0.5317712626591407
391,63915.6,0.5193800703661384
392,64655.9,0.5073758529597556
393,65404.5,0.49473015182451574
394,66161.8,0.48210542557589536
395,66927.8,0.4718336742138946
396,67000.0,0.4706952961139018
397,67702.8,0.46078839704050356
398,68486.8,0.4497300980972961
399,69242.2916,0.4419945135498098
400,69279.9,0.441641776259064
401,70082.3,0.43140031784613075
402,70893.8,0.42066332145767704
403,71559.6261,0.4128241285288453
404,71714.6,0.4114036050502452
405,72545.1,0.4061889393153604
406,73385.1,0.40788297698266524
407,73954.515,0.40729343509689797
408,74234.7,0.4079708950199772
409,75094.4,0.4093114966705716
410,75963.9,0.4069805289320486
411,76429.5536,0.4040322244664771
412,76843.4,0.4033378516229509
413,77733.3,0.39947185280490877
414,78633.3,0.3905142081973821
415,78987.42450000001,0.3877254130847977
416,79544.1,0.3845896857501372
417,80464.9,0.3779575288409206
418,81396.9,0.37136746976252155
419,81630.8998,0.3700648307437626
420,82339.2,0.36679819929661606
421,83292.7,0.3667791697791092
422,84257.3,0.3660581741917078
423,84362.84430000001,0.3661741505070546
424,85233.0,0.36302931258276105
425,86219.8,0.3597653461977776
426,87186.21900000001,0.35603531995605625
427,87218.4,0.35587017611487715
428,88228.1,0.3514823418473399
429,89250.0,0.3510191716304474
430,90104.0836,0.3509732239869202
431,90283.3,0.35071322081040934
432,91328.8,0.3496201529901736
433,92386.1,0.34925942340974786
434,93119.6005,0.34918726178464143
435,93455.9,0.3473231760936917
436,94538.2,0.341559972032142
437,95633.0,0.3359503939331079
438,96236.03790000001,0.33294437981485925
439,96740.3,0.3294853126441846
440,97860.4,0.32198526594501453
441,98993.7,0.3145779302926892
442,99456.7731,0.3116562827934438
443,100140.0,0.3079680360835188
444,101300.0,0.30190152853272323
445,102473.0,0.29600149736282394
446,102785.297,0.2944792852143911
447,103659.0,0.2896562716785747
448,104859.0,0.28336544809906955
449,106074.0,0.27718530797482055
450,106225.216,0.27657134871049827
451,107302.0,0.27381053934684635
452,108544.0,0.27125599939355816
453,109780.26,0.2692220090590579
454,109801.0,0.26919438053244255
455,111073.0,0.27247370767527584
456,112359.0,0.2718399969093039
457,113454.28,0.26821985901889556
458,113660.0,0.26765763472651605
459,114976.0,0.26213946281586015
460,116307.0,0.2592129984442166
461,117251.259,0.2588769887533938
462,117654.0,0.25902269622958995
463,119017.0,0.26172665024826847
464,120395.0,0.2641493763214446
465,121175.312,0.2653690754022867
466,121789.0,0.2667048454398068
467,123199.0,0.27037680395409286
468,124626.0,0.2748802675710334
469,125230.691,0.2759610861938707
470,126069.0,0.2775841712385299
471,127528.0,0.27852424389224156
472,129005.0,0.2712085641866433
473,129421.79100000001,0.2684990193359745
474,130499.0,0.2621540334722689
475,132010.0,0.25841667840487015
476,133539.0,0.2547025646404409
477,133753.155,0.2542007691421317
478,135085.0,0.2520164151328794
479,136649.0,0.24834572242788933
480,138229.477,0.24648122979422438
481,138232.0,0.24647904840120172
482,139832.0,0.24555030732051167
483,141451.0,0.24344677681448845
484,142855.609,0.24255749625812484
485,143090.0,0.24264861205491411
486,144746.0,0.24169204410699047
487,146422.0,0.2403377664012416
488,147636.563,0.2386613060494015
489,148118.0,0.2380319191865199
490,149833.0,0.2336237358808887
491,151568.0,0.2291839026241714
492,152577.522,0.2266103502162466
493,153323.0,0.22478684253685866
494,155099.0,0.22021250575859963
495,156894.0,0.2140995420666092
496,157683.84,0.21198594042477426
497,158711.0,0.2091685977233586
498,160549.0,0.20545849517132675
499,162408.0,0.20247054302539247
500,162961.05099999998,0.20178767413454052
501,164289.0,0.19998974068236725
502,166191.0,0.1974931692534313
503,168115.0,0.19507679994256233
504,168414.875,0.19474154484433293
505,170062.0,0.19292628722772087
506,172031.0,0.1909993965048398
507,174023.0,0.18884472838905556
508,174051.222,0.1888225207133925
509,176039.0,0.18675642245502722
510,178077.0,0.1853080870947299
511,179876.201,0.18446458954673337
512,180139.0,0.18434071973792365
513,182225.0,0.1836099721835481
514,184335.0,0.18330049685289984
515,185896.125,0.18345887488111345
516,186469.0,0.18343993550452167
517,188628.0,0.1832529099306831
518,190813.0,0.1836795903017635
519,192117.51799999998,0.18383663107242276
520,193022.0,0.18387248112283433
521,195257.0,0.18551514359467247
522,197518.0,0.18656661260980714
523,198547.123,0.18918362373590586
524,199806.0,0.1923393468126079
525,202119.0,0.2048637529573716
526,204460.0,0.20941135321024315
527,205191.907,0.21081127337118755
528,206827.0,0.21413356504564873
529,209222.0,0.22033592519883768
530,211645.0,0.22496221607615574
531,212059.073,0.22554444299945306
532,214095.0,0.2283366985665592
533,216575.0,0.23209931054439265
534,219082.0,0.23608963563650087
535,219156.062,0.23620905686338473
536,221619.0,0.24039331480302348
537,224185.0,0.2464171129763356
538,226490.56699999998,0.24739738772707315
539,226782.0,0.24752775365982554
540,229408.0,0.2492518220961465
541,232064.0,0.2515176072320446
542,234070.535,0.25315289895014587
543,234751.0,0.25372226005810106
544,237469.0,0.259359284189841
545,240219.0,0.2605184351693425
546,241904.18300000002,0.26098320998989616
547,243001.0,0.26133352583831226
548,245815.0,0.2618125994148609
549,248661.0,0.2627281947946966
550,250000.0,0.2629591314779747
551,251540.0,0.26330777740831746
552,254453.0,0.2639677645133863
553,257399.0,0.26419047546825514
554,260380.0,0.2639648632335179
555,263395.0,0.2637304513288776
556,266445.0,0.26348671623463116
557,269530.0,0.26323565795077863
558,272651.0,0.26343375295761695
559,275422.87,0.26401345598215675
560,275808.0,0.264136105931283
561,279002.0,0.26515417086029197
562,282233.0,0.26665891061784613
563,285501.0,0.26770732520394547
564,288807.0,0.26827800042476685
565,292151.0,0.2678689362803104
566,295534.0,0.2664677185767529
567,298956.0,0.26554134731409434
568,302418.0,0.26459840829851167
569,305920.0,0.26314790153000495
570,309462.0,0.26217382700857406
571,313045.0,0.26068977054039594
572,316227.766,0.2602389568836412
573,316670.0,0.26022502714679585
574,320338.0,0.2601017706824964
575,324046.0,0.26047135220659057
576,327799.0,0.26033525146762765
577,331595.0,0.26069607656618793
578,335434.0,0.26105482750227144
579,339318.0,0.2634738961752978
580,343248.0,0.26593897853497694
581,347222.0,0.26844968268188907
582,351243.0,0.26937909646516384
583,355309.0,0.26868382798538143
584,359424.0,0.26743266104138136
585,363078.055,0.26679826042794336
586,363587.0,0.2667577938201202
587,367795.0,0.2658743429431308
588,372056.0,0.26552276495195876
589,376365.0,0.26353210957435724
590,380722.0,0.26153637681032615
591,385132.0,0.2600725169321124
592,389590.0,0.25859857966746924
593,394101.0,0.25711551528864335
594,398663.0,0.25615774368673616
595,403281.0,0.2546532151339944
596,407951.0,0.2531397694126208
597,412674.0,0.2516151965770645
598,416869.38300000003,0.2502671675041674
599,417451.0,0.2501267405297872
600,422288.0,0.24843856590832286
601,427177.0,0.24674962736700823
602,432122.0,0.2450574046043163
603,437128.0,0.24388224724333837
604,442187.0,0.24218319588712833
605,447309.0,0.24047994978186887
606,452490.0,0.23928902922908685
607,457729.0,0.23757656430416407
608,463028.0,0.23586229485633706
609,468389.0,0.23465496073484232
610,473812.0,0.23293056193967984
611,478630.092,0.2318586540290228
612,479299.0,0.23174825990434733
613,484851.0,0.22982998418744544
614,490465.0,0.22841720503134186
615,496142.0,0.2270058497999204
616,501889.0,0.22509841004036793
617,507701.0,0.2236882489332653
618,513580.0,0.22178622120638017
619,519528.0,0.22037818158748024
620,525542.0,0.21896834798491396
621,531628.0,0.2170752845819844
622,537785.0,0.21614806401480774
623,544010.0,0.2147369041917324
624,549540.874,0.21307866501844158
625,550309.0,0.21287520663169424
626,556684.0,0.21027288570126804
627,563128.0,0.20769596365018309
628,569649.0,0.20560113889923262
629,576246.0,0.20306444914581745
630,582917.0,0.2005519697847393
631,589667.0,0.1980635123289939
