,lambda (Angstroms),Total Flux (erg/s/cm^2/Angstrom)
0,1000.94,0.7357165870965489
1,1012.53,0.9254412661238125
2,1024.25,0.5903377060029782
3,1036.11,0.8137878883380384
4,1048.11,1.3927538131289932
5,1060.25,1.291031480375842
6,1072.52,1.2969589084745934
7,1084.94,1.2330160606332314
8,1096.4782,1.518852133599388
9,1097.51,1.5444088942422574
10,1110.22,1.4954357149260453
11,1123.07,1.3734417295434078
12,1136.08,1.6774268229419982
13,1149.23,1.6242311102741627
14,1162.54,1.7202444763875553
15,1176.0,1.1771469788583488
16,1189.62,1.6848585601103703
17,1203.39,1.232379277719793
18,1217.33,0.6045790165342703
19,1231.42,1.6846178917061485
20,1245.68,1.9205257880830817
21,1258.92541,1.9449484860879074
22,1260.11,1.9471400112127049
23,1274.7,2.17949598633651
24,1289.46,2.2047220310813604
25,1304.39,1.9787681454472557
26,1319.49,2.3352643294341964
27,1334.77,2.120170587137537
28,1350.23,2.225136918557279
29,1365.86,2.184553319598065
30,1381.68,2.0863197984506083
31,1397.68,1.6087763510195516
32,1413.86,1.9249329773048955
33,1430.24,1.9029296854973516
34,1445.43977,2.01486899920235
35,1446.8,2.024886377880538
36,1463.55,1.9925421351736394
37,1480.5,2.0155979612105392
38,1497.64,2.0017338525540476
39,1514.98,1.8511498126413537
40,1532.52,1.6274358414724586
41,1550.27,1.382271942484551
42,1568.22,1.6237181122404423
43,1586.38,1.7119143541773212
44,1604.75,1.5758906682951885
45,1623.33,1.536537054594044
46,1642.13,1.5400835165110773
47,1659.58691,1.5175111789276816
48,1661.15,1.5154934403189126
49,1680.38,1.5905317098388068
50,1699.84,1.5331205566852522
51,1719.52,1.4146299557570938
52,1739.43,1.4949299321554865
53,1759.57,1.49498048588043
54,1779.95,1.4410316420330795
55,1800.56,1.3826633755122795
56,1821.41,1.376375711419185
57,1842.5,1.2758986497537959
58,1863.84,1.2047122156172667
59,1885.42,1.1401363839084429
60,1905.46072,1.065991040678324
61,1907.25,1.0593608990942895
62,1929.33,0.9640834577809215
63,1951.67,0.9886771752202043
64,1974.27,0.9101450514121374
65,1997.14,0.8207160540010539
66,2020.26,0.8168802476982882
67,2043.66,0.7606785354368385
68,2067.32,0.6812279819280392
69,2091.26,0.6937775224605561
70,2115.47,0.6430771893900562
71,2139.97,0.609922918005205
72,2164.75,0.5973707406616698
73,2187.7616199999998,0.5763077049370857
74,2189.82,0.5744355950184077
75,2215.17,0.5601749902397043
76,2240.82,0.571936159368945
77,2266.77,0.5866281024061302
78,2293.02,0.6086428193512597
79,2319.57,0.6373053102043336
80,2346.43,0.6373746007622831
81,2373.6,0.6658556910251087
82,2401.08,0.6674575809928099
83,2428.89,0.70209832225925
84,2457.01,0.7522238632305659
85,2485.47,0.748851281297552
86,2511.88643,0.7665009987190032
87,2514.24,0.7680650777551495
88,2543.36,0.7645170040802144
89,2572.81,0.8133716009302544
90,2602.6,0.8059058583211776
91,2632.74,0.8208147662688925
92,2663.22,0.8495473347574907
93,2694.06,0.8359705438187888
94,2725.26,0.8039363934527869
95,2756.82,0.796553883659485
96,2788.67,0.8076100843275249
97,2820.97,0.8339638357114395
98,2853.63,0.8112622276680543
99,2884.0315,0.82507357442584
100,2886.67,0.8262748206201761
101,2920.1,0.855237137556065
102,2953.91,0.82817344672754
103,2988.12,0.8377387477259476
104,3022.72,0.8019670407556144
105,3057.72,0.8093673256122138
106,3093.12,0.8093666022957458
107,3128.94,0.8243748703975567
108,3165.17,0.8149611301219738
109,3201.82,0.83198138126467
110,3238.9,0.8338936236213187
111,3276.4,0.8396588573962467
112,3311.31121,0.8255906011445535
113,3314.34,0.8243689610401245
114,3352.72,0.8243539700457373
115,3391.55,0.8149268032840891
116,3430.78,0.8168004802848757
117,3470.51,0.7945779619887059
118,3510.69,0.7909232679252749
119,3551.35,0.7982063863767658
120,3592.5,0.7416193134372392
121,3634.1,0.7746800647304517
122,3676.18,0.7536046285385859
123,3718.75,0.7962950009557025
124,3761.81,0.8185341819818017
125,3801.8939600000003,0.8133472621957567
126,3805.38,0.812896447515998
127,3849.44,0.9373318237665729
128,3894.03,0.8166120361363673
129,3939.1,0.9518481000858321
130,3984.72,0.9634979939703358
131,4030.87,1.1526867239740588
132,4077.53,1.1161722962811818
133,4124.76,1.071397692339163
134,4172.5,1.1179329307005441
135,4220.83,1.1264179866286033
136,4269.69,1.107912878675882
137,4319.13,1.043617591381929
138,4365.15832,1.1008720081548893
139,4369.17,1.1058640685220846
140,4419.86,1.1025230336332488
141,4471.04,1.0957020854065644
142,4522.81,1.1530812415281853
143,4575.17,1.1380805019981113
144,4628.16,1.1467598738908038
145,4681.74,1.1135093501318014
146,4735.94,1.10586893602695
147,4790.8,1.1033386386507114
148,4846.28,1.0659584509286237
149,4902.4,1.0733283763979178
150,4959.17,1.1713284168272093
151,5011.87234,1.4809215130800142
152,5016.56,1.5084587335107815
153,5074.65,1.0465810719244888
154,5133.44,1.0223335590193738
155,5192.88,0.9670391841753518
156,5252.99,1.021418951640457
157,5313.82,1.037041872034773
158,5375.35,1.0123349411102667
159,5437.6,1.0019281631149712
160,5500.56,1.00194153592487
161,5564.27,1.00726506803603
162,5628.68,0.9747167488283678
163,5693.85,0.9713775910459839
164,5754.399369999999,0.9677082714624662
165,5759.79,0.9673833680529129
166,5826.49,0.9741114513679293
167,5893.96,0.9078049512369573
168,5962.22,0.9285128784795813
169,6031.25,0.9183672222762167
170,6101.08,0.9194609988562408
171,6171.74,0.8772052244490303
172,6243.19,0.873223877415416
173,6315.49,0.8772829902141519
174,6388.61,0.8915405466158611
175,6462.6,0.8733425736695053
176,6537.43,0.8721810551457074
177,6606.93448,0.8685492157783704
178,6613.12,0.868222674882622
179,6689.72,0.8399869133499084
180,6767.19,0.8355631545256352
181,6845.52,0.838638398378671
182,6924.79,0.8323096451580678
183,7005.0,0.8304018948638257
184,7086.11,0.8197931473714183
185,7168.16,0.7986194028053719
186,7251.15,0.7840866611656866
187,7335.14,0.7967879226391511
188,7420.07,0.7986191870389766
189,7505.97,0.8022944544585576
190,7585.77575,0.8068749707806375
191,7592.88,0.8072842666474085
192,7680.83,0.7823116256328495
193,7769.76,0.7825102003295551
194,7859.72,0.7746680017432022
195,7950.73,0.7477880342760614
196,8042.81,0.7562633023304037
197,8135.94,0.7588918015039581
198,8230.14,0.7445965361989954
199,8325.45,0.7280605152200571
200,8421.84,0.7304237319637369
201,8519.38,0.6913182018379825
202,8618.02,0.7030129138371172
203,8709.6359,0.7359758768487025
204,8717.81,0.7389202325993307
205,8818.75,0.7166158640629938
206,8920.87,0.7311242393856535
207,9024.17,0.6694063585673099
208,9128.68,0.7075022405196323
209,9234.38,0.6593358726348412
210,9341.32,0.6472752864323855
211,9449.48,0.6266214693044857
212,9558.89,0.8585074401628112
213,9669.58,0.6579492179190314
214,9781.56,0.646070808877036
215,9894.83,0.6567372130368251
216,10000.0,0.6496645820941419
217,10009.4,0.6490324523750914
218,10125.3,0.6488087077002236
219,10242.5,0.6375437846985453
220,10361.1,0.6292097465756866
221,10481.1,0.6236945933316475
222,10602.5,0.6114773249664278
223,10725.2,0.6121138782743977
224,10849.4,0.6052313796668172
225,10975.1,0.5920318291436861
226,11102.2,0.5772781634993748
227,11230.7,0.5731523827338827
228,11360.8,0.5667216132584703
229,11481.5362,0.5585428745799061
230,11492.3,0.5578199950675788
231,11625.4,0.5431506091353075
232,11760.0,0.5398520445486532
233,11896.2,0.5321904227306566
234,12033.9,0.5239276222582769
235,12173.3,0.5158028859775962
236,12314.2,0.5066559710425321
237,12456.8,0.4931711202991672
238,12601.1,0.4811523337475012
239,12747.0,0.4813294899644932
240,12894.6,0.4739077103731842
241,13043.9,0.4687349949735741
242,13182.5674,0.4630775016933895
243,13194.9,0.46258148280842376
244,13347.7,0.45659846942596377
245,13502.3,0.44866668363454815
246,13658.6,0.4339559461235633
247,13816.8,0.43670361551423625
248,13976.8,0.43207851249595364
249,14138.6,0.41938663706871526
250,14302.4,0.4066383478537484
251,14468.0,0.40877328622982584
252,14635.5,0.3849656315075612
253,14805.0,0.396688562997568
254,14976.4,0.4096849013892327
255,15135.6125,0.40243855159686925
256,15149.8,0.4018118596334045
257,15325.2,0.40326368325999734
258,15502.7,0.40563308972362455
259,15682.2,0.3858487655558561
260,15863.8,0.39425202422512207
261,16047.5,0.3957088657314225
262,16233.3,0.3642182900747574
263,16421.3,0.37755161072355703
264,16611.5,0.38835682767782126
265,16803.8,0.36843762746912
266,16998.4,0.37398463703431367
267,17195.2,0.36083154290497194
268,17378.0083,0.35067022539961856
269,17394.3,0.3498097803187944
270,17595.7,0.33896590660092407
271,17799.5,0.3201502032061774
272,18005.6,0.3186100797044242
273,18214.1,0.3137331265257947
274,18425.0,0.292389343670289
275,18638.3,0.2857107311379069
276,18854.2,0.2816284697889089
277,19072.5,0.2799893787630345
278,19293.3,0.2676940484904139
279,19516.7,0.25824106940117736
280,19742.7,0.25957544149532485
281,19952.6231,0.25137248176548144
282,19971.4,0.25073690402495685
283,20202.6,0.24834248508917584
284,20436.6,0.24561223409015873
285,20673.2,0.24072392474670812
286,20912.6,0.23792578334002137
287,21154.7,0.23400069672949989
288,21399.7,0.23457289119634095
289,21647.5,0.2281322535999459
290,21898.2,0.2260998970809135
291,22151.7,0.22538870849864498
292,22408.2,0.22102491413433775
293,22667.7,0.20970951398799187
294,22908.6765,0.2076825519285581
295,22930.2,0.2076892161666071
296,23195.7,0.20292605047604334
297,23464.3,0.2010434274836312
298,23736.0,0.19902034718937064
299,24010.8,0.19658580959326172
300,24288.9,0.1958847851919594
301,24570.1,0.19693040348880858
302,24854.7,0.19833442022879186
303,25142.4,0.20068087966692677
304,25433.6,0.20481012279652308
305,25728.1,0.209432479120926
306,26026.0,0.21454493388846296
307,26302.679900000003,0.21895394693604708
308,26327.4,0.21953566559862797
309,26632.2,0.2270321021530909
310,26940.6,0.23534025606843323
311,27252.6,0.2439633273446551
312,27568.1,0.2518995710550654
313,27887.4,0.2599848219797374
314,28210.3,0.26807859026528874
315,28536.9,0.27704352083841083
316,28867.4,0.2854099035524856
317,29201.7,0.294529193480822
318,29539.8,0.3034121906234201
319,29881.8,0.312743239906971
320,30199.5172,0.3216030527968708
321,30227.9,0.32250523892585303
322,30577.9,0.33353446510850054
323,30932.0,0.3447869254264305
324,31290.1,0.3564313849007335
325,31652.5,0.3681743484681377
326,32019.0,0.38002854617082427
327,32389.8,0.391999847966612
328,32764.8,0.4036980188765914
329,33144.2,0.41518812885858125
330,33528.0,0.42729687791258164
331,33916.2,0.43942836603859226
332,34309.0,0.4516659631944322
333,34673.685,0.46299299136224076
334,34706.2,0.4639659020797293
335,35124.3,0.4762916118883587
336,35530.9,0.48823288445039814
337,35942.4,0.5001816954914193
338,36358.7,0.5126098238179736
339,36779.5,0.5246279058497154
340,37205.6,0.5370144111342333
341,37636.5,0.5494529337042845
342,38072.2,0.5621927735598687
343,38512.8,0.575137751894435
344,38959.0,0.5880083170621231
345,39410.1,0.6012063207087929
346,39810.7171,0.6127655418459308
347,39866.3,0.6139848337066559
348,40328.1,0.6244171962724321
349,40795.1,0.6348144920676195
350,41267.4,0.645634250577399
351,41745.1,0.6564239012869514
352,42228.8,0.667473921107363
353,42717.7,0.6788871741571855
354,43212.2,0.689286678377143
355,43712.8,0.7007839811931406
356,44218.8,0.712441976208911
357,44730.9,0.7247181698207215
358,45249.0,0.7374912325433908
359,45708.818999999996,0.7491938173085524
360,45772.9,0.7503070220548289
361,46302.8,0.7595831255887433
362,46838.9,0.7694510700207713
363,47381.2,0.7796956553509123
364,47929.9,0.7901260248339449
365,48485.1,0.8010856000972572
366,49046.5,0.8118259162586832
367,49614.2,0.822487894945611
368,50188.9,0.833139187549764
369,50770.1,0.8440926859341973
370,51358.0,0.8567754333536881
371,51952.8,0.8700440730630151
372,52480.746,0.882192859441714
373,52554.2,0.8831698202599849
374,53162.8,0.8915192626211393
375,53778.5,0.8999897916414527
376,54401.0,0.9084437557719465
377,55030.9,0.9193454581105779
378,55668.4,0.9283209996899995
379,56312.8,0.9372315268959274
380,56964.9,0.9452874438589716
381,57624.7,0.9525207505791321
382,58291.7,0.9596096944747776
383,58966.7,0.9665406796765179
384,59649.7,0.976035706184353
385,60255.9586,0.9879606054478185
386,60340.3,0.9891417902158763
387,61038.9,1.0014462302666427
388,61745.8,1.0104813448842873
389,62460.8,1.0073321660069583
390,63184.0,1.0006696776655817
391,63915.6,0.9946388479220098
392,64655.9,0.9890706288690214
393,65404.5,0.9829330843829115
394,66161.8,0.9768921505873852
395,66927.8,0.9732798274824426
396,67000.0,0.9727691396176449
397,67702.8,0.9664954754960263
398,68486.8,0.9594901876544055
399,69242.2916,0.9556602355583933
400,69279.9,0.9552902812855807
401,70082.3,0.9446814872133157
402,70893.8,0.9335729892202411
403,71559.6261,0.9254289836425512
404,71714.6,0.9228625643873584
405,72545.1,0.9115070811182931
406,73385.1,0.9069900571014181
407,73954.515,0.9021901917764877
408,74234.7,0.8956170680381242
409,75094.4,0.8747104873850899
410,75963.9,0.8498787344738262
411,76429.5536,0.8348803188886302
412,76843.4,0.8144349962120537
413,77733.3,0.7680982395079172
414,78633.3,0.7161878113320294
415,78987.42450000001,0.696498312880829
416,79544.1,0.6630672598371115
417,80464.9,0.6063234383892192
418,81396.9,0.549012189747347
419,81630.8998,0.5349748423448808
420,82339.2,0.4951405234069527
421,83292.7,0.4458947817941217
422,84257.3,0.39537401013210066
423,84362.84430000001,0.3900410101816867
424,85233.0,0.362951036855432
425,86219.8,0.33253209163774583
426,87186.21900000001,0.3022079353914421
427,87218.4,0.30152594881814526
428,88228.1,0.28092183455248687
429,89250.0,0.26404644632026336
430,90104.0836,0.25028349481479384
431,90283.3,0.24811032066461675
432,91328.8,0.23585633089210467
433,92386.1,0.22420871199542644
434,93119.6005,0.21630628558557047
435,93455.9,0.21630942083893911
436,94538.2,0.21655542353516294
437,95633.0,0.21702445539492998
438,96236.03790000001,0.2173666621247583
439,96740.3,0.22044272374472063
440,97860.4,0.22745893309254
441,98993.7,0.23473892265943924
442,99456.7731,0.23781860333452942
443,100140.0,0.24428701380191994
444,101300.0,0.255464737012071
445,102473.0,0.26700219091337024
446,102785.297,0.2701224973286887
447,103659.0,0.2783254426338241
448,104859.0,0.2899253102950978
449,106074.0,0.30185949505213744
450,106225.216,0.3035000014267032
451,107302.0,0.31726512161944287
452,108544.0,0.333772161805754
453,109780.26,0.35071165702953155
454,109801.0,0.3509938486427647
455,111073.0,0.37327468098749556
456,112359.0,0.39185161148696396
457,113454.28,0.40459308414493167
458,113660.0,0.40694387310341384
459,114976.0,0.42006037666492413
460,116307.0,0.43598098908161886
461,117251.259,0.44901576968462004
462,117654.0,0.4546106477312973
463,119017.0,0.4757562788763819
464,120395.0,0.4968236352358291
465,121175.312,0.5086011200553802
466,121789.0,0.5168345675537722
467,123199.0,0.536354522476379
468,124626.0,0.5568970576356413
469,125230.691,0.5647744300146091
470,126069.0,0.5746433741322967
471,127528.0,0.5899346089321247
472,129005.0,0.5971471447781466
473,129421.79100000001,0.5985372813682193
474,130499.0,0.5994715811763431
475,132010.0,0.6059448729287668
476,133539.0,0.6125630417503789
477,133753.155,0.6135084077806594
478,135085.0,0.6165532714112404
479,136649.0,0.6190233055841522
480,138229.477,0.6233642334068848
481,138232.0,0.6233672654814255
482,139832.0,0.625744726581282
483,141451.0,0.6269866594066992
484,142855.609,0.6289998296869701
485,143090.0,0.6288045627643611
486,144746.0,0.6258246672000898
487,146422.0,0.6224226255541241
488,147636.563,0.6192621924609227
489,148118.0,0.6180815488098843
490,149833.0,0.6117096498120884
491,151568.0,0.6052832003886619
492,152577.522,0.6015537213375967
493,153323.0,0.5986525998227679
494,155099.0,0.5915109945647642
495,156894.0,0.5828032972460047
496,157683.84,0.5795479549870293
497,158711.0,0.5756474256966952
498,160549.0,0.5699990691721254
499,162408.0,0.5650507176056537
500,162961.05099999998,0.5637846314690097
501,164289.0,0.5603777455331956
502,166191.0,0.5555766973330248
503,168115.0,0.5508291958939457
504,168414.875,0.5501306101060349
505,170062.0,0.5478593880597978
506,172031.0,0.545387430045769
507,174023.0,0.5426813276770817
508,174051.222,0.5426513074625203
509,176039.0,0.5407976243484719
510,178077.0,0.5395670708854075
511,179876.201,0.5389158370308766
512,180139.0,0.5386960502459752
513,182225.0,0.5372039496722675
514,184335.0,0.5361243617477598
515,185896.125,0.5357129568266423
516,186469.0,0.5360664631475298
517,188628.0,0.5372830775664608
518,190813.0,0.5391303014225811
519,192117.51799999998,0.5401354541136144
520,193022.0,0.5403477879504153
521,195257.0,0.542426546732163
522,197518.0,0.5439191852133852
523,198547.123,0.5467370002512258
524,199806.0,0.5502526933544207
525,202119.0,0.5634384910976308
526,204460.0,0.5686554894187961
527,205191.907,0.570264694984256
528,206827.0,0.5726780021277322
529,209222.0,0.5775489285632616
530,211645.0,0.5808282199007513
531,212059.073,0.5811802544425151
532,214095.0,0.5830999861754244
533,216575.0,0.5857997608762787
534,219082.0,0.5887156774791182
535,219156.062,0.588803358442128
536,221619.0,0.5918069839042427
537,224185.0,0.5966007458617317
538,226490.56699999998,0.5964758254028018
539,226782.0,0.5962192038916339
540,229408.0,0.5944562649275065
541,232064.0,0.5931952063255558
542,234070.535,0.5921660645347999
543,234751.0,0.5919154170235741
544,237469.0,0.5942770582525426
545,240219.0,0.5921222640581584
546,241904.18300000002,0.5905562737623614
547,243001.0,0.5893452263781129
548,245815.0,0.5858184574698001
549,248661.0,0.5826826570742571
550,250000.0,0.5810074732574536
551,251540.0,0.5790141358864949
552,254453.0,0.575244124707998
553,257399.0,0.5709866520228447
554,260380.0,0.5662276292548738
555,263395.0,0.561408100692166
556,266445.0,0.5565260220466406
557,269530.0,0.5515833933182979
558,272651.0,0.547035170219057
559,275422.87,0.5433995010011431
560,275808.0,0.5429350200855491
561,279002.0,0.5390838305240833
562,282233.0,0.5356629092738966
563,285501.0,0.5317292563349891
564,288807.0,0.5272599330130711
565,292151.0,0.5217529393081426
566,295534.0,0.5151943365259136
567,298956.0,0.5090511246663845
568,302418.0,0.5028303650352652
569,305920.0,0.49604105763255596
570,309462.0,0.48966720245825657
571,313045.0,0.4827208608180775
572,316227.766,0.47741791890909024
573,316670.0,0.4768258276970716
574,320338.0,0.4719071545734117
575,324046.0,0.4674290248180869
576,327799.0,0.4623863813521393
577,331595.0,0.4577844470071521
578,335434.0,0.45312422178312517
579,339318.0,0.45046548284847543
580,343248.0,0.44779261878741117
581,347222.0,0.44510785243151574
582,351243.0,0.44078034953341416
583,355309.0,0.43476933292468967
584,359424.0,0.42813835694217584
585,363078.055,0.42272677088129523
586,363587.0,0.42219064645998944
587,367795.0,0.41720905515695234
588,372056.0,0.4127077204273323
589,376365.0,0.4065205614623164
590,380722.0,0.4002815782619047
591,385132.0,0.39452285163490997
592,389590.0,0.38870730077251947
593,394101.0,0.38283100648354595
594,398663.0,0.37743033644446444
595,403281.0,0.3714283714640877
596,407951.0,0.36536684689536547
597,412674.0,0.3592425789000603
598,416869.38300000003,0.3538086970051447
599,417451.0,0.3532930505865257
600,422288.0,0.3484843749278094
601,427177.0,0.3436413885115465
602,432122.0,0.3387589905102333
603,437128.0,0.33435430488949036
604,442187.0,0.32939153330432486
605,447309.0,0.3243839236859778
606,452490.0,0.3198505768619528
607,457729.0,0.31475826803912565
608,463028.0,0.3096254468037448
609,468389.0,0.3049595627420582
610,473812.0,0.29973661585406597
611,478630.092,0.29555640505244857
612,479299.0,0.29519071432700106
613,484851.0,0.2911534525500039
614,490465.0,0.287598024305036
615,496142.0,0.2840199752942268
616,501889.0,0.27991912543248276
617,507701.0,0.27629074620915656
618,513580.0,0.272144929028507
619,519528.0,0.2684667652947932
620,525542.0,0.2647616179016266
621,531628.0,0.2605457610617843
622,537785.0,0.25726864907313673
623,544010.0,0.25348164482929536
624,549540.874,0.2497124825821315
625,550309.0,0.24935135623522603
626,556684.0,0.24544048274179847
627,563128.0,0.2415408449705597
628,569649.0,0.2381074992371258
629,576246.0,0.23421668850204475
630,582917.0,0.23033489868641258
