,lambda (Angstroms),Total Flux (erg/s/cm^2/Angstrom)
0,1000.94,5.859157074662284
1,1012.53,5.975424824222674
2,1024.25,5.566040400137062
3,1036.11,5.714322404432682
4,1048.11,6.217232837109531
5,1060.25,6.038567698167609
6,1072.52,5.966728385579688
7,1084.94,5.824068103400226
8,1096.4782,6.036775553107134
9,1097.51,6.056982471042316
10,1110.22,5.942108438058046
11,1123.07,5.753487704474422
12,1136.08,5.990016455920105
13,1149.23,5.868638506766432
14,1162.54,5.8956400426420705
15,1176.0,5.282752970732686
16,1189.62,5.7198453838526095
17,1203.39,5.19596918918751
18,1217.33,4.495890572366053
19,1231.42,5.5028733477595715
20,1245.68,5.664843700996731
21,1258.92541,5.62058946539153
22,1260.11,5.618397075959217
23,1274.7,5.7967585775620005
24,1289.46,5.767361015098471
25,1304.39,5.486154388568627
26,1319.49,5.786768697972468
27,1334.77,5.515126939541389
28,1350.23,5.562879113275388
29,1365.86,5.464452222943073
30,1381.68,5.30767226100723
31,1397.68,4.770916231236466
32,1413.86,5.027194133630782
33,1430.24,4.944571960652962
34,1445.43977,5.00026017231611
35,1446.8,5.006763736223668
36,1463.55,4.931150048343491
37,1480.5,4.9104197791154895
38,1497.64,4.852278757607056
39,1514.98,4.656901154750801
40,1532.52,4.387876970546723
41,1550.27,4.09686037592743
42,1568.22,4.291937199960314
43,1586.38,4.333221613577985
44,1604.75,4.149743616780441
45,1623.33,4.062393209567683
46,1642.13,4.017374562872319
47,1659.58691,3.949706654534304
48,1661.15,3.9448573194284284
49,1680.38,3.985059718563786
50,1699.84,3.892396041349749
51,1719.52,3.7382543780623774
52,1739.43,3.7824866384256106
53,1759.57,3.746052822439449
54,1779.95,3.6551848398278315
55,1800.56,3.559480780866819
56,1821.41,3.51542255528035
57,1842.5,3.376740163068426
58,1863.84,3.266895513954986
59,1885.42,3.1632266982160893
60,1905.46072,3.0527768347398556
61,1907.25,3.043780459101388
62,1929.33,2.9193033129224375
63,1951.67,2.914353488391742
64,1974.27,2.805933985509302
65,1997.14,2.686260547415434
66,2020.26,2.6518496878295044
67,2043.66,2.5647026361724645
68,2067.32,2.453962906163679
69,2091.26,2.4348529840837845
70,2115.47,2.3521361267924625
71,2139.97,2.2865818205703485
72,2164.75,2.2412593222771235
73,2187.7616199999998,2.189764560443892
74,2189.82,2.186040998101003
75,2215.17,2.1489788120041005
76,2240.82,2.1376685586161104
77,2266.77,2.1290192379370327
78,2293.02,2.1274228499668677
79,2319.57,2.1322043947056146
80,2346.43,2.1081139032435714
81,2373.6,2.1121563755807378
82,2401.08,2.0890408117171133
83,2428.89,2.0986672738332923
84,2457.01,2.1234996997486806
85,2485.47,2.0945281827341704
86,2511.88643,2.0884170963378104
87,2514.24,2.0884107288263465
88,2543.36,2.065432001520363
89,2572.81,2.0946357484585083
90,2602.6,2.0672922870421195
91,2632.74,2.062089934672534
92,2663.22,2.070484373948414
93,2694.06,2.036329239672434
94,2725.26,1.9834765318445948
95,2756.82,1.955035250464896
96,2788.67,1.944839173723977
97,2820.97,1.9496403800432334
98,2853.63,1.9051460128106297
99,2884.0315,1.8986716103800805
100,2886.67,1.8986276651337262
101,2920.1,1.911813309770098
102,2953.91,1.868793612646428
103,2988.12,1.862214134722715
104,3022.72,1.8101135955189593
105,3057.72,1.8009962755151605
106,3093.12,1.7842891747113179
107,3128.94,1.7823928540674299
108,3165.17,1.7558810331034973
109,3201.82,1.7556049922995194
110,3238.9,1.7400180121354945
111,3276.4,1.7280858121314244
112,3311.31121,1.697541853823206
113,3314.34,1.695308897258099
114,3352.72,1.6824787801701828
115,3391.55,1.660086231798015
116,3430.78,1.6488609667287353
117,3470.51,1.6133725557880652
118,3510.69,1.5963017135631439
119,3551.35,1.5900084113016881
120,3592.5,1.5196813060862695
121,3634.1,1.5388517695866
122,3676.18,1.503725773050396
123,3718.75,1.532201973560229
124,3761.81,1.5400633711161
125,3801.8939600000003,1.5214923710349018
126,3805.38,1.5202152673703044
127,3849.44,1.63420719125889
128,3894.03,1.5029183264425494
129,3939.1,1.6274715397802382
130,3984.72,1.6283082176694181
131,4030.87,1.8065581068536722
132,4077.53,1.758983954076582
133,4124.76,1.7030145191074015
134,4172.5,1.7382340421768767
135,4220.83,1.7352635363106794
136,4269.69,1.705177241739556
137,4319.13,1.6291632916045509
138,4365.15832,1.675507709121442
139,4369.17,1.6798282089956476
140,4419.86,1.6680016016310262
141,4471.04,1.6526130542859612
142,4522.81,1.7013258445154649
143,4575.17,1.677559972319537
144,4628.16,1.6773687487201818
145,4681.74,1.6351488626953956
146,4735.94,1.618435297511681
147,4790.8,1.6067213641910427
148,4846.28,1.5600537517114765
149,4902.4,1.5580291155839847
150,4959.17,1.646525783564068
151,5011.87234,1.947296438986068
152,5016.56,1.9742785606806854
153,5074.65,1.5055220543012626
154,5133.44,1.4743128046877965
155,5192.88,1.4119797220712897
156,5252.99,1.4592414423593414
157,5313.82,1.467661055320948
158,5375.35,1.435667925048511
159,5437.6,1.4178896874496287
160,5500.56,1.4104475245705026
161,5564.27,1.4082267082263296
162,5628.68,1.3680511486481128
163,5693.85,1.3569947535586486
164,5754.399369999999,1.3461553579112338
165,5759.79,1.345375513293082
166,5826.49,1.3464744626082652
167,5893.96,1.2744738444717645
168,5962.22,1.2894209818069131
169,6031.25,1.2734495516903777
170,6101.08,1.268650038507158
171,6171.74,1.220430926642253
172,6243.19,1.2104195702489973
173,6315.49,1.2083769380973894
174,6388.61,1.21646354580243
175,6462.6,1.1920212006724509
176,6537.43,1.1845444183224534
177,6606.93448,1.1750467613912674
178,6613.12,1.1743587044762849
179,6689.72,1.1416460150420655
180,6767.19,1.1326944807017396
181,6845.52,1.131191685879515
182,6924.79,1.1202299551817272
183,7005.0,1.1136342886083757
184,7086.11,1.0982850238562931
185,7168.16,1.072315823228647
186,7251.15,1.0529326867254374
187,7335.14,1.0607251078014155
188,7420.07,1.0575925930018302
189,7505.97,1.0562473890540567
190,7585.77575,1.0561636157041316
191,7592.88,1.0562834038324476
192,7680.83,1.0277266820778928
193,7769.76,1.0243012397170903
194,7859.72,1.0127930501884972
195,7950.73,0.9822043028674963
196,8042.81,0.9869271871294699
197,8135.94,0.9857605135990355
198,8230.14,0.9676264716515759
199,8325.45,0.9472064400378565
200,8421.84,0.9456416346948031
201,8519.38,0.9025612184362551
202,8618.02,0.9102362178237561
203,8709.6359,0.939465709741909
204,8717.81,0.9421869618476798
205,8818.75,0.9171275399217452
206,8920.87,0.9288486549695316
207,9024.17,0.8643113069910391
208,9128.68,0.8995546960788197
209,9234.38,0.8485033555045054
210,9341.32,0.8335239520890165
211,9449.48,0.8099180191039849
212,9558.89,1.038817756641963
213,9669.58,0.8352383647955026
214,9781.56,0.8203035769287882
215,9894.83,0.8278783930418194
216,10000.0,0.8179352552140167
217,10009.4,0.817143749117051
218,10125.3,0.814954927612358
219,10242.5,0.8017028863668875
220,10361.1,0.7913579930928875
221,10481.1,0.783808247790358
222,10602.5,0.7695326504592989
223,10725.2,0.7680888333874625
224,10849.4,0.7591005319993444
225,10975.1,0.7437697462949446
226,11102.2,0.7268611085620156
227,11230.7,0.7205566188005568
228,11360.8,0.7119200124350644
229,11481.5362,0.7016941994757311
230,11492.3,0.7008666635479723
231,11625.4,0.684903146463698
232,11760.0,0.6802958662267083
233,11896.2,0.6713099719601556
234,12033.9,0.6617083145408877
235,12173.3,0.652228192215209
236,12314.2,0.6417113067368149
237,12456.8,0.6268399563520102
238,12601.1,0.6134181410607946
239,12747.0,0.6121767117400161
240,12894.6,0.6033198175128269
241,13043.9,0.596695458379227
242,13182.5674,0.5896897021230297
243,13194.9,0.5891355709235548
244,13347.7,0.5824325502711765
245,13502.3,0.5737722754488093
246,13658.6,0.5583250383547862
247,13816.8,0.5603272551924415
248,13976.8,0.5549482178601082
249,14138.6,0.541493926357786
250,14302.4,0.5279737968888097
251,14468.0,0.5293284132498447
252,14635.5,0.5047314835425583
253,14805.0,0.5156557158686175
254,14976.4,0.5278444021263554
255,15135.6125,0.5198478287903933
256,15149.8,0.5191734841204859
257,15325.2,0.5200361775472535
258,15502.7,0.5218094003708067
259,15682.2,0.5014221750008225
260,15863.8,0.5092154790276241
261,16047.5,0.5100553124512113
262,16233.3,0.47794067527158424
263,16421.3,0.490642545079066
264,16611.5,0.5008089218736566
265,16803.8,0.48024382806503285
266,16998.4,0.4851372188338411
267,17195.2,0.4713231165897581
268,17378.0083,0.46054778602677243
269,17394.3,0.45960133232267647
270,17595.7,0.44769420942105376
271,17799.5,0.4278025865444365
272,18005.6,0.42517440119178285
273,18214.1,0.41919671586413465
274,18425.0,0.396739530561492
275,18638.3,0.3889348452838548
276,18854.2,0.3837127850333069
277,19072.5,0.38092122480776447
278,19293.3,0.3674602271082694
279,19516.7,0.35682785443586373
280,19742.7,0.3569691067905473
281,19952.6231,0.34765790195283014
282,19971.4,0.346808905875576
283,20202.6,0.3417866666152542
284,20436.6,0.33639677047807726
285,20673.2,0.32881926438382053
286,20912.6,0.3233001014127087
287,21154.7,0.31662330502462954
288,21399.7,0.3144108282998075
289,21647.5,0.30515369469813036
290,21898.2,0.30027188075971045
291,22151.7,0.2966794099444354
292,22408.2,0.28940023533252995
293,22667.7,0.27513535692399393
294,22908.6765,0.2703694547934671
295,22930.2,0.26992923432703697
296,23195.7,0.25965358743967787
297,23464.3,0.2521941190632386
298,23736.0,0.24452982919771898
299,24010.8,0.23638971784311907
300,24288.9,0.22991460296788535
301,24570.1,0.22512176660357142
302,24854.7,0.2206167357028468
303,25142.4,0.21698978331304186
304,25433.6,0.21507294537104962
305,25728.1,0.21358070390842349
306,26026.0,0.21250796790938672
307,26302.679900000003,0.21117237550958395
308,26327.4,0.21102827681197095
309,26632.2,0.2095753510504597
310,26940.6,0.20882844152011176
311,27252.6,0.20829074822092702
312,27568.1,0.20696346236870658
313,27887.4,0.20567361031604733
314,28210.3,0.20428657449455134
315,28536.9,0.2036620636884176
316,28867.4,0.20232449546604409
317,29201.7,0.20162826104323173
318,29539.8,0.20058416041998056
319,29881.8,0.19987360238048965
320,30199.5172,0.1994047855564235
321,30227.9,0.19935156003357807
322,30577.9,0.19859921152522775
323,30932.0,0.19793208442006538
324,31290.1,0.19752230990337893
325,31652.5,0.1970662944193042
326,32019.0,0.19658350033841737
327,32389.8,0.19607306529014226
328,32764.8,0.1951481204597669
329,33144.2,0.1938670034767152
330,33528.0,0.19305641434098703
331,33916.2,0.1921204530525825
332,34309.0,0.19113575724092535
333,34673.685,0.1901868895053438
334,34706.2,0.190098980150037
335,35124.3,0.1887839434590281
336,35530.9,0.18745966345767867
337,35942.4,0.1859830566929091
338,36358.7,0.18482916452723824
339,36779.5,0.18311841104822235
340,37205.6,0.1816031653557113
341,37636.5,0.17998333426229887
342,38072.2,0.17850821776798514
343,38512.8,0.17707837451025132
344,38959.0,0.17539141495146596
345,39410.1,0.1738720286292605
346,39810.7171,0.17236089266398208
347,39866.3,0.17216109316208017
348,40328.1,0.17080320384713144
349,40795.1,0.16927748615531446
350,41267.4,0.16803891646399724
351,41745.1,0.16663237115054763
352,42228.8,0.1653330084791732
353,42717.7,0.1642641174309306
354,43212.2,0.16203850351529145
355,43712.8,0.16075494861909534
356,44218.8,0.15949421810076692
357,44730.9,0.15869594660188158
358,45249.0,0.15824135774507136
359,45708.818999999996,0.1582042676952849
360,45772.9,0.15820839379631996
361,46302.8,0.15831328005657525
362,46838.9,0.1589027010305757
363,47381.2,0.15976145671832137
364,47929.9,0.16069522888477175
365,48485.1,0.16204570841240665
366,49046.5,0.16306962265378672
367,49614.2,0.16390616249139178
368,50188.9,0.16461086410258008
369,50770.1,0.16550527307495294
370,51358.0,0.16801297117346975
371,51952.8,0.17098714016309008
372,52480.746,0.17399852802365492
373,52554.2,0.17444192449610063
374,53162.8,0.17837054211157424
375,53778.5,0.18236867251881567
376,54401.0,0.18630084334634167
377,55030.9,0.19262699933711858
378,55668.4,0.19697178873880186
379,56312.8,0.20120144268459744
380,56964.9,0.2045205541651271
381,57624.7,0.20696112318039087
382,58291.7,0.20920502911125005
383,58966.7,0.21123286494832647
384,59649.7,0.21576663069162005
385,60255.9586,0.22328771296336405
386,60340.3,0.22437569294013862
387,61038.9,0.23590811750159074
388,61745.8,0.24416204438749184
389,62460.8,0.24022272655387927
390,63184.0,0.2327610375227344
391,63915.6,0.22592172433801977
392,64655.9,0.21953540756567935
393,65404.5,0.21257059311778798
394,66161.8,0.20569277508227074
395,66927.8,0.2012339534591278
396,67000.0,0.20064347813608735
397,67702.8,0.1950634852915005
398,68486.8,0.18883201401389943
399,69242.2916,0.18574774037969524
400,69279.9,0.18559882517986628
401,70082.3,0.1797060454065901
402,70893.8,0.17336704592252528
403,71559.6261,0.16913635715470562
404,71714.6,0.16820937215003504
405,72545.1,0.1656395627593372
406,73385.1,0.1700087109975236
407,73954.515,0.1712325596899927
408,74234.7,0.17197298500285388
409,75094.4,0.17350678523865307
410,75963.9,0.1713712184188641
411,76429.5536,0.16852755931413407
412,76843.4,0.16627540737470725
413,77733.3,0.1590596932578441
414,78633.3,0.14671431545676888
415,78987.42450000001,0.14259254331829685
416,79544.1,0.1362915265357339
417,80464.9,0.12442364697727437
418,81396.9,0.11253418139464594
419,81630.8998,0.10990100582856038
420,82339.2,0.10202719989951659
421,83292.7,0.09580608139701559
422,84257.3,0.0888107963131011
423,84362.84430000001,0.08824025438989631
424,85233.0,0.082950587511823
425,86219.8,0.07725427802825395
426,87186.21900000001,0.07114214539720137
427,87218.4,0.07093276801641102
428,88228.1,0.06515707740676284
429,89250.0,0.06328928166149247
430,90104.0836,0.06206937606911624
431,90283.3,0.06177763154434419
432,91328.8,0.06049939328431052
433,92386.1,0.05995140334424969
434,93119.6005,0.05974933008817528
435,93455.9,0.05939511087052737
436,94538.2,0.05849105314744885
437,95633.0,0.05779674199044398
438,96236.03790000001,0.057498155945506266
439,96740.3,0.05711341609202637
440,97860.4,0.0564422665635735
441,98993.7,0.055944304327527034
442,99456.7731,0.05584586777589819
443,100140.0,0.05578954801193126
444,101300.0,0.05588941836181761
445,102473.0,0.05622487105183199
446,102785.297,0.05636278073033822
447,103659.0,0.05666798166836782
448,104859.0,0.057420578299867076
449,106074.0,0.05837190113926007
450,106225.216,0.05864550673379383
451,107302.0,0.06082396276383519
452,108544.0,0.06396654277050831
453,109780.26,0.0676033427111303
454,109801.0,0.06766528293320608
455,111073.0,0.07643792966789655
456,112359.0,0.08135799955847198
457,113454.28,0.08246798987763074
458,113660.0,0.08269329067521658
459,114976.0,0.08221295183083716
460,116307.0,0.08438174263488808
461,117251.259,0.08766048918519692
462,117654.0,0.08910021374708427
463,119017.0,0.09618352146403836
464,120395.0,0.10303379661734922
465,121175.312,0.10676065801881408
466,121789.0,0.10974549220568669
467,123199.0,0.11720631485058469
468,124626.0,0.12554432393871906
469,125230.691,0.12825003053319034
470,126069.0,0.1320188816055043
471,127528.0,0.13669346341317737
472,129005.0,0.1331583663123776
473,129421.79100000001,0.13151565477547766
474,130499.0,0.1273640047817527
475,132010.0,0.1267032397721243
476,133539.0,0.12610236637720584
477,133753.155,0.126036617962829
478,135085.0,0.12576148787612562
479,136649.0,0.12433281748969847
480,138229.477,0.12473396725243725
481,138232.0,0.12473472120017168
482,139832.0,0.1256674724743588
483,141451.0,0.12544753954492693
484,142855.609,0.12619242706049563
485,143090.0,0.12635094457927343
486,144746.0,0.12587057772957005
487,146422.0,0.12499825234303451
488,147636.563,0.12367105300234038
489,148118.0,0.12314998845521713
490,149833.0,0.11912767655441267
491,151568.0,0.11507821466059591
492,152577.522,0.11273180258639909
493,153323.0,0.11101009179097981
494,155099.0,0.10667827225122851
495,156894.0,0.10081042029522988
496,157683.84,0.0988046732793313
497,158711.0,0.09618645681762265
498,160549.0,0.09283267073876096
499,162408.0,0.09020510614648464
500,162961.05099999998,0.08962945226205445
501,164289.0,0.08822462009748103
502,166191.0,0.08629108132191875
503,168115.0,0.08444425713465176
504,168414.875,0.08419777144595467
505,170062.0,0.08284764103253155
506,172031.0,0.08147677092926282
507,174023.0,0.07988461834129365
508,174051.222,0.07987038020038259
509,176039.0,0.0787958317792896
510,178077.0,0.07836409815638999
511,179876.201,0.07841808385791632
512,180139.0,0.0784258742482748
513,182225.0,0.07874019602622116
514,184335.0,0.07948781383612855
515,185896.125,0.08042830301555068
516,186469.0,0.0807624193577888
517,188628.0,0.08190595856152616
518,190813.0,0.08367922718596622
519,192117.51799999998,0.08464022613287084
520,193022.0,0.08529609730326204
521,195257.0,0.0884708490849532
522,197518.0,0.09107223037282959
523,198547.123,0.09439470384650052
524,199806.0,0.0984524209732297
525,202119.0,0.1126341075653388
526,204460.0,0.11885905045860616
527,205191.907,0.12078338703129948
528,206827.0,0.12511022357794982
529,209222.0,0.13278398931411967
530,211645.0,0.13889888801087938
531,212059.073,0.13973550713624838
532,214095.0,0.14383895693807988
533,216575.0,0.14919875864919896
534,219082.0,0.15480366223378583
535,219156.062,0.1549707814711643
536,221619.0,0.1605587592575748
537,224185.0,0.16804501613947653
538,226490.56699999998,0.17033931915887612
539,226782.0,0.17063025052283223
540,229408.0,0.17380111744230664
541,232064.0,0.17753022960457782
542,234070.535,0.18027102467164877
543,234751.0,0.18120260857972872
544,237469.0,0.18828646916997727
545,240219.0,0.1909094907384775
546,241904.18300000002,0.19227131640658782
547,243001.0,0.19316450369118746
548,245815.0,0.19503637134498011
549,248661.0,0.19736059925638522
550,250000.0,0.1982542762628437
551,251540.0,0.1992939682011882
552,254453.0,0.20126110921619805
553,257399.0,0.20280578220975073
554,260380.0,0.20391783760478827
555,263395.0,0.20503635018983968
556,266445.0,0.20616124517637588
557,269530.0,0.20729452256439695
558,272651.0,0.20889310756537385
559,275422.87,0.21071663506926416
560,275808.0,0.21097601513304043
561,279002.0,0.21312802440861314
562,282233.0,0.215779844373978
563,285501.0,0.21798847502913507
564,288807.0,0.21973285720353813
565,292151.0,0.2205109908971872
566,295534.0,0.22031081693953614
567,298956.0,0.2205993353305849
568,302418.0,0.2208854868997874
569,305920.0,0.22067827164714357
570,309462.0,0.22096168957265344
571,313045.0,0.22074968150577085
572,316227.766,0.22142882386408666
573,316670.0,0.22153014673525656
574,320338.0,0.22236282438321375
575,324046.0,0.2236987646009415
576,327799.0,0.22454075020966108
577,331595.0,0.225890868080884
578,335434.0,0.22725011821461022
579,339318.0,0.23068141373932827
580,343248.0,0.2341707112192824
581,347222.0,0.23771709752598416
582,351243.0,0.23969444235216628
583,355309.0,0.2400588325693402
584,359424.0,0.23988009443448305
585,363078.055,0.24019799366361924
586,363587.0,0.24024911340287433
587,367795.0,0.24012290613473297
588,372056.0,0.24053810927885125
589,376365.0,0.23932287279633674
590,380722.0,0.23811119668718944
591,385132.0,0.23744093099030178
592,389590.0,0.23676922566678132
593,394101.0,0.2360979307555205
594,398663.0,0.2359611062409623
595,403281.0,0.2352876021619992
596,407951.0,0.23461453848751726
597,412674.0,0.23393988522529494
598,416869.38300000003,0.23334682929009262
599,417451.0,0.23327124864711246
600,422288.0,0.23212236655833182
601,427177.0,0.2309785181952869
602,432122.0,0.22983762922918805
603,437128.0,0.22922060674904834
604,442187.0,0.2280855994124469
605,447309.0,0.22695342139740984
606,452490.0,0.22634014703272667
607,457729.0,0.22521179490059487
608,463028.0,0.22408832783661958
609,468389.0,0.22347870867640604
610,473812.0,0.22235893741995424
611,478630.092,0.22182421392885127
612,479299.0,0.22175546570062105
613,484851.0,0.22018285488392078
614,490465.0,0.21911960071876313
615,496142.0,0.21806169282856006
616,501889.0,0.2165120585771954
617,507701.0,0.21546374984760933
618,513580.0,0.21392774588662575
619,519528.0,0.2128900259410686
620,525542.0,0.211854621140702
621,531628.0,0.21034046922599775
622,537785.0,0.20979658057354397
623,544010.0,0.20877298631310462
624,549540.874,0.20745909674522406
625,550309.0,0.20728045809024204
