,lambda (Angstroms),Total Flux (erg/s/cm^2/Angstrom)
0,1006.79,4.29591997709324
1,1018.44,2.9997938004936557
2,1030.23,3.548707549668841
3,1042.16,5.176541224618794
4,1054.24,4.732004820041716
5,1066.44,4.43659835184301
6,1078.79,4.16921180411727
7,1091.28,4.753825182166301
8,1096.4782,4.631775763683471
9,1103.92,4.45704007749785
10,1116.69,4.074298887367052
11,1129.63,4.487907415143674
12,1142.71,4.30569571060876
13,1155.95,4.335523740574948
14,1169.32,3.1993415548232824
15,1182.87,4.036839070385356
16,1196.57,3.140916337042212
17,1210.42,1.706553354793852
18,1224.43,3.5978301070465935
19,1238.62,4.064726560613075
20,1252.96,4.008932765274339
21,1258.92541,4.13902307283812
22,1267.47,4.3253738749791975
23,1282.15,4.315425607656218
24,1296.99,3.8109173592180015
25,1312.01,4.365399132025145
26,1327.2,3.990520924897347
27,1342.56,4.064702737834612
28,1358.12,3.9267145743778293
29,1373.84,3.7413864298058104
30,1389.75,2.8976783076594477
31,1405.84,3.304010206758444
32,1422.12,3.3192521282830962
33,1438.58,3.451744071053107
34,1445.43977,3.422614519684386
35,1455.25,3.380955852523085
36,1472.09,3.373187520713261
37,1489.14,3.349979209706283
38,1506.39,3.09775091851154
39,1523.82,2.7929026451478087
40,1541.48,2.344614394568147
41,1559.32,2.6610961618194975
42,1577.38,2.7736879508643058
43,1595.64,2.5945497597213483
44,1614.12,2.49498159037185
45,1632.81,2.483513441825198
46,1651.72,2.449455315072005
47,1659.58691,2.4705441834939186
48,1670.85,2.5007442423805877
49,1690.19,2.4438482334241347
50,1709.76,2.2703123908554796
51,1729.56,2.344676714674623
52,1749.59,2.312531204881564
53,1769.85,2.2289258614763034
54,1790.35,2.1188706916930933
55,1811.07,2.123775681063429
56,1832.04,2.014270851290067
57,1853.26,1.8885662023730072
58,1874.72,1.8244917270779977
59,1896.43,1.7106274326392905
60,1905.46072,1.6458192216460807
61,1918.39,1.553011909095552
62,1940.6,1.6075411982007335
63,1963.08,1.483100235530066
64,1985.8,1.403379049058644
65,2008.8,1.393697601486342
66,2032.06,1.3187859114632225
67,2055.59,1.1619739696642544
68,2079.39,1.2307617760894372
69,2103.47,1.1512693214137402
70,2127.83,1.1224666056371628
71,2152.46,1.0918736380847367
72,2177.39,1.0260703907813675
73,2187.7616199999998,1.016458128927626
74,2202.61,1.0027217586537187
75,2228.11,0.988989717337119
76,2253.91,0.9981548990638537
77,2280.01,1.0004713038339224
78,2306.41,1.021428931647325
79,2333.12,1.0074487899388398
80,2360.13,1.0214688712736886
81,2387.46,0.9982541905214274
82,2415.1,1.0215097402472777
83,2443.08,1.0671905427555737
84,2471.36,1.0525815683072037
85,2499.98,1.0696928466412792
86,2511.88643,1.0666747100405887
87,2528.93,1.0623367945972757
88,2558.21,1.0895583694097557
89,2587.83,1.0795598463887741
90,2617.8,1.0845412226568762
91,2648.11,1.0996125010915165
92,2678.78,1.0820336759377858
93,2709.79,1.0357247529505933
94,2741.18,1.0309657206201202
95,2772.91,1.0285765904561857
96,2805.02,1.0309473509489702
97,2837.5,1.012128004975929
98,2870.36,1.0167885496596072
99,2884.0315,1.0255396419285017
100,2903.59,1.0380645005717146
101,2937.22,1.0097943025321778
102,2971.23,1.012114102254906
103,3005.64,0.9688188996221241
104,3040.44,0.9665916946927193
105,3075.64,0.9643694874078043
106,3111.26,0.9665912776496032
107,3147.28,0.9577350655358917
108,3183.73,0.9621518508900065
109,3220.6,0.9643686337708356
110,3257.89,0.9688174141783786
111,3295.61,0.944601192053748
112,3311.31121,0.9437082372841392
113,3333.77,0.9424285713908479
114,3372.37,0.9295012261613466
115,3411.43,0.9273608291493175
116,3450.93,0.9041763826061749
117,3490.89,0.8958878842805047
118,3531.31,0.9000163341723066
119,3572.2,0.8380477311558737
120,3613.57,0.869472074105499
121,3655.41,0.8114713641468891
122,3697.74,0.8208565990286304
123,3740.56,0.8418937787507225
124,3783.87,0.8958549033131654
125,3801.8939600000003,0.924925661671308
126,3827.69,0.9665325755222316
127,3872.01,0.9188136259337306
128,3916.84,1.064606630896445
129,3962.2,0.9935845886280694
130,4008.08,1.2138285000197564
131,4054.49,1.1780543641803536
132,4101.44,1.1045201802187083
133,4148.93,1.1645659481348203
134,4196.98,1.1592016661463846
135,4245.58,1.1380573351445535
136,4294.74,1.0645729542381748
137,4344.46,1.1172785234272482
138,4365.15832,1.1193995835063812
139,4394.77,1.1224381882633083
140,4445.66,1.1121607822382853
141,4497.14,1.164553406286857
142,4549.21,1.1433160604090236
143,4601.89,1.1514987456242283
144,4655.18,1.113451461932472
145,4709.08,1.1191042093337544
146,4763.61,1.1083369888475192
147,4818.77,1.0831298004737666
148,4874.57,1.0668026447222183
149,4931.02,1.1367655221025965
150,4988.11,1.6391184321051793
151,5011.87234,1.3979541078078657
152,5045.87,1.0529117244907502
153,5104.3,1.032035301283541
154,5163.41,0.9691989197025357
155,5223.2,1.0249425797477345
156,5283.68,1.0249462820312871
157,5344.86,1.021890027165344
158,5406.75,1.010203815762055
159,5469.36,0.9952136484335703
160,5532.69,1.0062615251798896
161,5596.75,0.9770644466131634
162,5661.56,0.9732534139576914
163,5727.12,0.9676744272134737
164,5754.399369999999,0.9663043133604665
165,5793.44,0.964347184036945
166,5860.52,0.9277886426379136
167,5928.38,0.9252402228505212
168,5997.03,0.9136149262338916
169,6066.48,0.9178407543471484
170,6136.72,0.8826407056311679
171,6207.78,0.8705517847633208
172,6279.66,0.8705629917436073
173,6352.37,0.888789328131151
174,6425.93,0.8760097970441988
175,6500.34,0.8732043984827507
176,6575.61,0.8991071340059305
177,6606.93448,0.874442035699273
178,6651.75,0.8391470580889445
179,6728.78,0.8343351272019662
180,6806.69,0.8410811971045435
181,6885.51,0.8333762678235929
182,6965.24,0.8314613393591144
183,7045.89,0.8149854117200804
184,7127.48,0.800122484924435
185,7210.01,0.7922465589721787
186,7293.5,0.8014126338812555
187,7377.96,0.8101257096606378
188,7463.39,0.8144227863103256
189,7549.82,0.8174268638572355
190,7585.77575,0.8055744956628291
191,7637.24,0.7886131608856518
192,7725.67,0.7844577706719591
193,7815.13,0.7819414457989867
194,7905.27,0.7619531640635773
195,7996.8,0.7672339705064214
196,8089.4,0.7661808448274896
197,8183.06,0.7688357863924058
198,8277.82,0.7412297977386738
199,8373.68,0.7455108788662935
200,8470.64,0.677334029775265
201,8568.72,0.7144652517343404
202,8667.95,0.7524215466466468
203,8709.6359,0.7506318967743568
204,8768.31,0.7481198510454982
205,8869.85,0.7522792988936575
206,8972.56,0.6953909593081194
207,9076.45,0.7325108341056896
208,9181.56,0.6829089305535923
209,9287.87,0.6576532450182153
210,9395.42,0.6465767847667828
211,9504.22,1.8143945516161006
212,9614.27,0.6740945455661691
213,9725.56,0.665343764800182
214,9838.17,0.6778722238525872
215,9952.05,0.6663039136393548
216,10000.0,0.6672699610158987
217,10067.3,0.6686258846680843
218,10183.9,0.6564561246556577
219,10301.9,0.6504696196688111
220,10421.2,0.6430583514914314
221,10541.9,0.6313613383396316
222,10663.9,0.6305135619972987
223,10787.4,0.6270670588966584
224,10912.3,0.6314288108215979
225,11038.7,0.5961968359882299
226,11166.5,0.5913091161804418
227,11295.8,0.5853846696143464
228,11426.6,0.5760674962899435
229,11481.5362,0.5705913578430517
230,11558.9,0.5628925766834625
231,11692.7,0.5592013994599594
232,11828.2,0.5503308171446779
233,11965.1,0.5409787247538141
234,12103.7,0.5342392272711719
235,12243.8,0.5245632547075488
236,12385.6,0.5091898770521471
237,12529.6,0.49764026927797345
238,12674.7,0.49541304644441364
239,12821.5,0.48701041851907545
240,12969.9,0.48427735050735754
241,13120.1,0.4777109123984625
242,13182.5674,0.47504737352450754
243,13272.0,0.47124898962086786
244,13425.6,0.46276236707322177
245,13581.2,0.4441357780861532
246,13738.4,0.44728201594754663
247,13897.5,0.4448102356914887
248,14058.4,0.4240023856399506
249,14221.2,0.4130665174709611
250,14385.8,0.4174275795064914
251,14552.5,0.39565972678062805
252,14720.9,0.40583075258125567
253,14891.4,0.4200858636204896
254,15063.9,0.4116150082203011
255,15135.6125,0.4101108456523471
256,15238.2,0.40799874829069593
257,15414.8,0.41284829375121745
258,15593.2,0.39456746538291076
259,15773.8,0.4010876245571474
260,15956.4,0.40309059058824165
261,16141.2,0.3631095441618792
262,16328.1,0.3872073949352171
263,16517.2,0.3972092332510983
264,16708.5,0.37496605910952285
265,16901.9,0.37685178216764786
266,17097.6,0.363973583111159
267,17295.6,0.34094246194005634
268,17378.0083,0.3381809638037491
269,17495.9,0.3343245215289092
270,17698.5,0.3155382744038075
271,17903.5,0.31093011122194236
272,18110.7,0.307789691654711
273,18320.4,0.28479152619501774
274,18532.6,0.27324061484286283
275,18747.2,0.27116478743394457
276,18964.3,0.26731321413256454
277,19183.9,0.25316089493872274
278,19406.0,0.24466982985241914
279,19630.8,0.2434263592022569
280,19858.0,0.2301749724953313
281,19952.6231,0.2295020697381838
282,20088.0,0.2287432919345575
283,20320.6,0.22108249954967654
284,20555.9,0.2165703690760631
285,20793.9,0.2112789005137172
286,21034.7,0.20796341467416724
287,21278.3,0.19867591155741315
288,21524.6,0.1911350703519266
289,21773.9,0.18593185349229283
290,22026.1,0.18400994016698338
291,22281.1,0.17763500956446993
292,22539.1,0.1698137033078092
293,22800.1,0.16890902139700129
294,22908.6765,0.16250133912351117
295,23064.1,0.15371961287401997
296,23331.2,0.14722584269661848
297,23601.3,0.13938823721209526
298,23874.6,0.13336694073330893
299,24151.0,0.13076138110383018
300,24430.8,0.12615527479294683
301,24713.7,0.12302120533137109
302,24999.8,0.12155764487553217
303,25289.3,0.12102023773828868
304,25582.1,0.12032411176321134
305,25878.3,0.12101183910672941
306,26178.0,0.12212049192527216
307,26302.679900000003,0.12258169901553206
308,26481.1,0.12363233515551961
309,26787.8,0.12543833499690074
310,27097.9,0.1272644321955062
311,27411.8,0.1291127911463035
312,27729.1,0.13098124745432513
313,28050.2,0.13287206551453865
314,28375.0,0.13478465422820213
315,28703.6,0.1367196046940575
316,29035.9,0.13867642581336284
317,29372.2,0.14065679088234384
318,29712.3,0.14265941770351673
319,30056.4,0.1446856884743653
320,30199.5172,0.1455284446436852
321,30404.4,0.14696523026362635
322,30756.4,0.14943369720541957
323,31112.6,0.1519316117073137
324,31472.8,0.15445766674263733
325,31837.3,0.15701377285139764
326,32206.0,0.15959932652025888
327,32578.9,0.16221442774922107
328,32956.1,0.16485958005161994
329,33337.7,0.16753558694079118
330,33723.7,0.1702425484167349
331,34114.3,0.1729816715061225
332,34509.3,0.17575174918228254
333,34673.685,0.17690451721436842
334,34908.9,0.1784768534282015
335,35313.1,0.1811789033261797
336,35722.0,0.18391227706018093
337,36135.7,0.1866777453501205
338,36554.1,0.18947463747608315
339,36977.4,0.19230429487789955
340,37405.6,0.19516671755556966
341,37838.7,0.19806190550909358
342,38276.9,0.20099120017830208
343,38720.1,0.20395393084327965
344,39168.4,0.2069506682239418
345,39622.0,0.20998295376011925
346,39810.7171,0.21124448025933723
347,40080.8,0.2125114982013604
348,40544.9,0.2146887117688599
349,41014.4,0.21689117914645312
350,41489.3,0.21911910033414006
351,41969.8,0.22137321806562793
352,42455.8,0.2236531609740631
353,42947.4,0.22595940042629917
354,43444.6,0.22829183642233608
355,43947.7,0.23065208306273471
356,44456.6,0.23303936898064143
357,44971.4,0.2354544655429098
358,45492.1,0.23789717274953978
359,45708.818999999996,0.23891385990701006
360,46018.9,0.23964657851822474
361,46551.8,0.24090585305660392
362,47090.8,0.24217947847635693
363,47636.1,0.2434680318555616
364,48187.7,0.2447713131942179
365,48745.7,0.24608986103136482
366,49310.2,0.24742371390604123
367,49881.1,0.2487727332792082
368,50458.7,0.2501376347679825
369,51043.0,0.2515183183723641
370,51634.1,0.2571112226313919
371,52232.0,0.27174254754506605
372,52480.746,0.27690961400334835
373,52836.8,0.28330921464695086
374,53448.6,0.2809033025542339
375,54067.5,0.2774885553914642
376,54693.6,0.2853605318196269
377,55326.9,0.29489853183872206
378,55967.5,0.30105381410973464
379,56615.6,0.3044524959546352
380,57271.2,0.2987036773734236
381,57934.4,0.2918330170270852
382,58605.2,0.29600641491561985
383,59283.8,0.2944905883609979
384,59970.3,0.30955509602420456
385,60255.9586,0.3192430976392552
386,60664.8,0.33244130845983216
387,61367.2,0.3662715815513905
388,62077.8,0.513371877250225
389,62796.6,0.43851179555633574
390,63523.7,0.3746233318673723
391,64259.3,0.34835047697863414
392,65003.4,0.3417192308901213
393,65756.1,0.33161178899948346
394,66517.5,0.3494455467043703
395,67000.0,0.34682261337473325
396,67287.8,0.34510436173884196
397,68066.9,0.3342422358631286
398,68855.1,0.33767603026020554
399,69242.2916,0.3453166247660244
400,69652.4,0.3528459475561738
401,70458.9,0.3567468768972861
402,71274.8,0.3494604366609731
403,71559.6261,0.34891556056514267
404,72100.1,0.3472073280263494
405,72935.0,0.36667313101787524
406,73779.6,0.40908187638455706
407,73954.515,0.4189333987085222
408,74633.9,0.45425457557408644
409,75498.2,0.49667423400979216
410,76372.4,0.5218213092203603
411,76429.5536,0.5201474180870238
412,77256.7,0.49182352246122685
413,78151.3,0.4666738850918329
414,78987.42450000001,0.4198458106875442
415,79056.3,0.41589994300932454
416,79971.7,0.36444838427317205
417,80897.8,0.3055214573062166
418,81630.8998,0.2775561942720319
419,81834.5,0.27000954806420285
420,82782.1,0.24494747604025344
421,83740.7,0.2265667904744475
422,84362.84430000001,0.2199011334235733
423,84710.3,0.2181207918115799
424,85691.2,0.2191003676820808
425,86683.4,0.1953766901193435
426,87186.21900000001,0.17746577360962995
427,87687.2,0.16109097974521347
428,88702.6,0.13420928438588867
429,89729.7,0.12045554061637673
430,90104.0836,0.11512152000940211
431,90768.7,0.10641635679127731
432,91819.7,0.09959200226058224
433,92883.0,0.09394033760550317
434,93119.6005,0.09293674876763747
435,93958.6,0.09198530086787675
436,95046.5,0.09280205594750296
437,96147.1,0.09581256154602913
438,96236.03790000001,0.09569439293404117
439,97260.5,0.09596676490145915
440,98386.6,0.09279518371705253
441,99411.1,0.09358979387296713
442,99456.7731,0.09370426785511043
443,100563.0,0.09737497422126491
444,101727.0,0.09851134740784821
445,102785.297,0.10070469108980025
446,102905.0,0.10093198364539681
447,104097.0,0.10840630049142838
448,105302.0,0.11608831961849893
449,106225.216,0.1180040077084788
450,106521.0,0.11878269730918273
451,107755.0,0.12320198530844614
452,109002.0,0.12858312455891738
453,109780.26,0.1399992270727228
454,110265.0,0.14709633798810734
455,111541.0,0.19547539721974716
456,112833.0,0.2350835073508432
457,113454.28,0.2151097155931047
458,114140.0,0.19302351495802608
459,115462.0,0.17704305450430113
460,116798.0,0.17822300763124777
461,117251.259,0.17915624151039367
462,118151.0,0.18103151206547763
463,119519.0,0.1970951671119429
464,120903.0,0.21043642806538432
465,121175.312,0.21343582159430874
466,122303.0,0.22531177559617588
467,123719.0,0.24406918587079637
468,125151.0,0.2630550691428702
469,125230.691,0.2644233321703306
470,126601.0,0.287455495406301
471,128067.0,0.34374769294848473
472,129421.79100000001,0.2867457163340662
473,129549.0,0.28130299580409607
474,131049.0,0.27714738611093015
475,132567.0,0.27642250910144617
476,133753.155,0.27590368625467454
477,134102.0,0.2755371356670734
478,135655.0,0.27960391919500305
479,137226.0,0.27567839499820823
480,138229.477,0.27442747034489756
481,138815.0,0.2734368746322668
482,140423.0,0.2791104655944556
483,142049.0,0.2853427348136839
484,142855.609,0.2838712854480421
485,143693.0,0.2817967246009351
486,145357.0,0.28118188611762285
487,147040.0,0.28288952003143625
488,147636.563,0.2829153223409189
489,148743.0,0.2830109401902661
490,150466.0,0.2788889997147509
491,152207.0,0.27533775748151124
492,152577.522,0.27393886005532286
493,153970.0,0.26860240126049656
494,155753.0,0.2787167231593356
495,157557.0,0.26030033207997805
496,157683.84,0.2598217863495659
497,159381.0,0.2535772312007731
498,161227.0,0.24961785874903147
499,162961.05099999998,0.250374527048586
500,163093.0,0.2504215988835716
501,164982.0,0.2592389600125025
502,166892.0,0.2561378979459372
503,168414.875,0.2547730752256311
504,168825.0,0.25451788635647143
505,170779.0,0.26742546153812824
506,172757.0,0.25975684317032743
507,174051.222,0.2578083067764346
508,174758.0,0.2567709261320801
509,176781.0,0.25198892553468477
510,178829.0,0.25666250179594746
511,179876.201,0.2541646814941979
512,180899.0,0.25158523248966297
513,182993.0,0.2525142264265135
514,185113.0,0.25695210567490084
515,185896.125,0.2650463166563963
516,187256.0,0.27944681912819286
517,189424.0,0.2698427887232001
518,191618.0,0.27129224227091486
519,192117.51799999998,0.2739179099801332
520,193837.0,0.2826906980034091
521,196081.0,0.2927366678102771
522,198351.0,0.3001711069642835
523,198547.123,0.3014517324568321
524,200648.0,0.31520292928754
525,202972.0,0.32310356081127073
526,205191.907,0.33128841494049577
527,205322.0,0.3317409746505484
528,207700.0,0.3438967432435539
529,210104.0,0.3445819752442205
530,212059.073,0.35366594915443894
531,212537.0,0.3558993460502674
532,214999.0,0.3677221174182873
533,217488.0,0.37245170715630577
534,219156.062,0.3800029410078859
535,220007.0,0.3838638364249207
536,222555.0,0.3951465371739381
537,225132.0,0.3977046740774772
538,226490.56699999998,0.4015309602443117
539,227738.0,0.40474715514611703
540,230376.0,0.4158189018391464
541,233043.0,0.4203981779689073
542,234070.535,0.4251791668706657
543,235742.0,0.43302591157012776
544,238471.0,0.45047566271423556
545,241232.0,0.45988557253793705
546,241904.18300000002,0.46410717581879285
547,244026.0,0.4773261746580262
548,246852.0,0.49696144446354457
549,249710.0,0.5114842601408877
550,250000.0,0.5132355737378168
551,252601.0,0.5289105834406683
552,255527.0,0.5441156664030737
553,258486.0,0.558979306692123
554,261479.0,0.5628659151358959
555,264506.0,0.5667964917343926
556,267569.0,0.5707728581437734
557,270667.0,0.574795603535958
558,273801.0,0.5788651387390267
559,275422.87,0.580971235311123
560,276972.0,0.5830300185551188
561,280179.0,0.5872921413914923
562,283424.0,0.591605032131758
563,286706.0,0.5959662495152871
564,290025.0,0.6003767935420796
565,293384.0,0.6048409879940219
566,296782.0,0.609356391610485
567,300217.0,0.6139211218702115
568,303694.0,0.6185423850763452
569,307211.0,0.6232162987076286
570,310768.0,0.6279428627640616
571,314367.0,0.6327259597669017
572,316227.766,0.6351986705112246
573,318006.0,0.6377294354878108
574,321689.0,0.6429719898419693
575,325414.0,0.6482730387068188
576,329182.0,0.6536361176659471
577,332994.0,0.6590617623029422
578,336850.0,0.6645499726178038
579,340750.0,0.6701007486105321
580,344696.0,0.6757161614483029
581,348687.0,0.6813966755475283
582,352725.0,0.683823362075384
583,356809.0,0.684812685448282
584,360941.0,0.6872467168333983
585,363078.055,0.687746081860377
586,365121.0,0.6884752074120475
587,369348.0,0.6914380105216335
588,373625.0,0.6899787542878267
589,377951.0,0.6870307798974952
590,382328.0,0.6870094049769032
591,386755.0,0.6854989707129185
592,391234.0,0.6854457947318056
593,395764.0,0.6853782182204321
594,400346.0,0.6838138999919303
595,404983.0,0.6837138164856965
596,409672.0,0.6821139912623344
597,414416.0,0.6804954007612405
598,416869.38300000003,0.679658338699827
599,419214.0,0.6791345097826056
600,424069.0,0.6765688168911396
601,428979.0,0.67547083602665
602,433947.0,0.6728828969360624
603,438971.0,0.6717604464547596
604,444055.0,0.6691505909119765
605,449196.0,0.6680020005607867
606,454398.0,0.6653667817304252
607,459659.0,0.6641923812562743
608,464982.0,0.6630031288852604
609,470366.0,0.6603322480350746
610,475813.0,0.6591152918703342
611,478630.092,0.657736758683934
612,481322.0,0.656668450966433
613,486896.0,0.6530216446647112
614,492534.0,0.6508284588144945
615,498238.0,0.6486306315548925
616,504007.0,0.6449832938163504
617,509843.0,0.642777183737978
618,515746.0,0.6391323013197749
619,521718.0,0.6369193847008509
620,527760.0,0.6347003029507605
621,533871.0,0.6324761869999492
622,540053.0,0.6316667749875265
623,546307.0,0.6265929359830471
624,549540.874,0.6232930372347911
625,552632.0,0.6203270760020756
626,559032.0,0.6143039339731516
627,565504.0,0.6083267503464023
628,572053.0,0.6023941750108674
