,lambda (Angstroms),Total Flux (erg/s/cm^2/Angstrom)
0,1006.79,4.302559793839157
1,1018.44,3.0063842044429014
2,1030.23,3.5552479470195673
3,1042.16,5.183031021569152
4,1054.24,4.73844338037544
5,1066.44,4.4429851665870865
6,1078.79,4.175546237055434
7,1091.28,4.760106639496702
8,1096.4782,4.638035173151241
9,1103.92,4.463200697480654
10,1116.69,4.080289986303466
11,1129.63,4.493726736293065
12,1142.71,4.311341395478843
13,1155.95,4.340993665174538
14,1169.32,3.204633993409542
15,1182.87,4.041951633468203
16,1196.57,3.1458470333799116
17,1210.42,1.7113001931446687
18,1224.43,3.602390963419343
19,1238.62,4.069099045517676
20,1252.96,4.013114887469055
21,1258.92541,4.143126004543773
22,1267.47,4.329484874812776
23,1282.15,4.319550468905961
24,1296.99,3.815056232962015
25,1312.01,4.3695521882262955
26,1327.2,3.9946883240761246
27,1342.56,4.068884640511501
28,1358.12,3.930911169400463
29,1373.84,3.7455978682522937
30,1389.75,2.901904768935031
31,1405.84,3.3082518608259948
32,1422.12,3.323509154547865
33,1438.58,3.456016639477963
34,1445.43977,3.4268935653658334
35,1455.25,3.3852426727077662
36,1472.09,3.377487686419347
37,1489.14,3.354292887356547
38,1506.39,3.102078266603861
39,1523.82,2.797243806330277
40,1541.48,2.348969551113324
41,1559.32,2.6654654563754745
42,1577.38,2.778071557778749
43,1595.64,2.5989478374921373
44,1614.12,2.499394313346651
45,1632.81,2.487940976426784
46,1651.72,2.4538978356480428
47,1659.58691,2.4749929385127
48,1670.85,2.505258181425289
49,1690.19,2.4484741008172115
50,1709.76,2.275051517699317
51,1729.56,2.3495304320716053
52,1749.59,2.317500843934077
53,1769.85,2.234012753286732
54,1790.35,2.1240762252378387
55,1811.07,2.12910112957086
56,1832.04,2.0197176616106023
57,1853.26,1.8941358213570645
58,1874.72,1.8301855437019794
59,1896.43,1.7164468937536148
60,1905.46072,1.6516909471644505
61,1918.39,1.5587871818599692
62,1940.6,1.613150783806601
63,1963.08,1.488542119770594
64,1985.8,1.4086514415277966
65,2008.8,1.3987984133770777
66,2032.06,1.3237132031690027
67,2055.59,1.166725726978289
68,2079.39,1.235335984804936
69,2103.47,1.1556638927236615
70,2127.83,1.126679450734465
71,2152.46,1.09590274276263
72,2177.39,1.0299135170323073
73,2187.7616199999998,1.0202238826325345
74,2202.61,1.0065758278834676
75,2228.11,0.9929954560340715
76,2253.91,1.0023140915746827
77,2280.01,1.0047857345053008
78,2306.41,1.025900384825926
79,2333.12,1.0120791094495585
80,2360.13,1.0262598414631983
81,2387.46,1.0032077146928458
82,2415.1,1.0266276622255002
83,2443.08,1.0724748848001628
84,2471.36,1.058034114764833
85,2499.98,1.0753156197715108
86,2511.88643,1.0723683005000122
87,2528.93,1.067991151375481
88,2558.21,1.0951453246878013
89,2587.83,1.085078617498967
90,2617.8,1.0899910039118852
91,2648.11,1.1049925098236486
92,2678.78,1.0873430834400717
93,2709.79,1.04096277655534
94,2741.18,1.0361314855810824
95,2772.91,1.0336693141056703
96,2805.02,1.035966158540732
97,2837.5,1.0170720447833608
98,2870.36,1.0216569469364636
99,2884.0315,1.0303765679072219
100,2903.59,1.042900505145432
101,2937.22,1.0146287227896007
102,2971.23,1.0169469202941555
103,3005.64,0.9736500965991167
104,3040.44,0.9714212522344741
105,3075.64,0.969197386670238
106,3111.26,0.9714174988464286
107,3147.28,0.9625595898230256
108,3183.73,0.9669746580100594
109,3220.6,0.96918970393752
110,3257.89,0.9736367276054074
111,3295.61,0.9494187284837317
112,3311.31121,0.9485250340268542
113,3333.77,0.9472251425176308
114,3372.37,0.934263035452119
115,3411.43,0.9320874623438574
116,3450.93,0.9088674434555746
117,3490.89,0.9005429585245421
118,3531.31,0.90463500755076
119,3572.2,0.8426295804028641
120,3613.57,0.8740166669494904
121,3655.41,0.8159782773220029
122,3697.74,0.8253253912576733
123,3740.56,0.8463240087565019
124,3783.87,0.9002461298184886
125,3801.8939600000003,0.9293006564164813
126,3827.69,0.9708891797000844
127,3872.01,0.9231386334035753
128,3916.84,1.0688996780680042
129,3962.2,0.997845297652624
130,4008.08,1.218056500177808
131,4054.49,1.1822492776231828
132,4101.44,1.1086816219683746
133,4148.93,1.168693533213383
134,4196.98,1.163294995317461
135,4245.58,1.142116016300982
136,4294.74,1.0685965881435726
137,4344.46,1.1212667108452326
138,4365.15832,1.1233730146343543
139,4394.77,1.1264236943697754
140,4445.66,1.1161670401445678
141,4497.14,1.1685806565817127
142,4549.21,1.1473645436812103
143,4601.89,1.1555687106180554
144,4655.18,1.1175431573922485
145,4709.08,1.1232178840037892
146,4763.61,1.1124728996276725
147,4818.77,1.0872882042638985
148,4874.57,1.0709838024999647
149,4931.02,1.1409696989233686
150,4988.11,1.6433458889466126
151,5011.87234,1.402191254398225
152,5045.87,1.057165520416751
153,5104.3,1.0363177115518682
154,5163.41,0.9735102773228212
155,5223.2,1.02928321772961
156,5283.68,1.029316538281585
157,5344.86,1.0262902444880968
158,5406.75,1.0146343418584958
159,5469.36,0.9996748359021326
160,5532.69,1.0107537266190072
161,5596.75,0.9815880195184702
162,5661.56,0.9778087256192224
163,5727.12,0.9722618449212641
164,5754.399369999999,0.9709050903226062
165,5793.44,0.968996656332505
166,5860.52,0.9325217837412217
167,5928.38,0.9300580056546909
168,5997.03,0.9185183361050248
169,6066.48,0.9228307891243356
170,6136.72,0.8877183506805112
171,6207.78,0.8757180628698882
172,6279.66,0.8758189256924664
173,6352.37,0.8941359531803584
174,6425.93,0.8814481733977884
175,6500.34,0.8787355863447561
176,6575.61,0.9047322060533742
177,6606.93448,0.8801061787350134
178,6651.75,0.8448115228005004
179,6728.78,0.8400001448176962
180,6806.69,0.8467467739408916
181,6885.51,0.8390424104123361
182,6965.24,0.8371280542320301
183,7045.89,0.8206527054807234
184,7127.48,0.805790364319916
185,7210.01,0.797915030749608
186,7293.5,0.8070817049312994
187,7377.96,0.81579538694574
188,7463.39,0.8200930767929301
189,7549.82,0.8230977747151194
190,7585.77575,0.8112456646030738
191,7637.24,0.7943104479708667
192,7725.67,0.7901999360476324
193,7815.13,0.7877290121908808
194,7905.27,0.7677864765721955
195,7996.8,0.7731137345577926
196,8089.4,0.7721076034474059
197,8183.06,0.7748100775316519
198,8277.82,0.7472521796480639
199,8373.68,0.7515819097966417
200,8470.64,0.6834542679773858
201,8568.72,0.7206352656090627
202,8667.95,0.758641919819822
203,8709.6359,0.756873425572639
204,8768.31,0.7544466594094837
205,8869.85,0.7587536900429183
206,8972.56,0.7020146337730746
207,9076.45,0.7392855069512065
208,9181.56,0.6898363749823303
209,9287.87,0.6647352051639379
210,9395.42,0.6538150629010454
211,9504.22,1.8217909645449066
212,9614.27,0.6816509100955221
213,9725.56,0.6730618832016373
214,9838.17,0.6857540146732847
215,9952.05,0.6743512227541939
216,10000.0,0.6753869628090315
217,10067.3,0.6768409620127576
218,10183.9,0.6648411219009199
219,10301.9,0.6590265770193003
220,10421.2,0.6517891634228833
221,10541.9,0.6402680450566844
222,10663.9,0.639598057975688
223,10787.4,0.6363315300699253
224,10912.3,0.6408752973943805
225,11038.7,0.6058275238940694
226,11166.5,0.6011260456239764
227,11295.8,0.5953900265291171
228,11426.6,0.5862634666094914
229,11481.5362,0.5808673860840637
230,11558.9,0.5733851901511623
231,11692.7,0.5700685951396346
232,11828.2,0.561577354302101
233,11965.1,0.5526085227843271
234,12103.7,0.5462570454405473
235,12243.8,0.5369732923679388
236,12385.6,0.5219968934693241
237,12529.6,0.5108504235017607
238,12674.7,0.5090294179997228
239,12821.5,0.501037766671679
240,12969.9,0.49872015456621777
241,13120.1,0.49257421158616205
242,13182.5674,0.49008555445262825
243,13272.0,0.4866569065878107
244,13425.6,0.4788053036589959
245,13581.2,0.46082200277537866
246,13738.4,0.46461814352791964
247,13897.5,0.4628041212233984
248,14058.4,0.44266147075955525
249,14221.2,0.4323986572386499
250,14385.8,0.43744021555842244
251,14552.5,0.4163615410256526
252,14720.9,0.4272287732313009
253,14891.4,0.4421887725844067
254,15063.9,0.4344310739827103
255,15135.6125,0.43322338826641926
256,15238.2,0.43185273461626317
257,15414.8,0.43797864376095713
258,15593.2,0.42098718844619726
259,15773.8,0.42881262101432716
260,15956.4,0.4321353152941749
261,16141.2,0.39348989745691254
262,16328.1,0.4189385544169539
263,16517.2,0.430307099259885
264,16708.5,0.4094465319857058
265,16901.9,0.4127300395088305
266,17097.6,0.4012662480004308
267,17295.6,0.37966615746050675
268,17378.0083,0.37750025933209536
269,17495.9,0.37524869376018294
270,17698.5,0.35922046963426707
271,17903.5,0.35740300099748146
272,18110.7,0.3570832248923987
273,18320.4,0.33693973575515995
274,18532.6,0.32827753358576534
275,18747.2,0.32912308690550096
276,18964.3,0.3282269271930808
277,19183.9,0.3170640544485046
278,19406.0,0.3115964686717725
279,19630.8,0.31341323282031197
280,19858.0,0.30325475245798184
281,19952.6231,0.3038699675984368
282,20088.0,0.3065856274110173
283,20320.6,0.3048944959470889
284,20555.9,0.30642132168456815
285,20793.9,0.30723810462345486
286,21034.7,0.31010273206750494
287,21278.3,0.3070672040167184
288,21524.6,0.3058476331673393
289,21773.9,0.3070426814306355
290,22026.1,0.3115934615028506
291,22281.1,0.3117630860802293
292,22539.1,0.3105633297702829
293,22800.1,0.31635719257301165
294,22908.6765,0.31273611773281396
295,23064.1,0.3110685158661797
296,23331.2,0.3168005842695662
297,23601.3,0.32132613490885736
298,23874.6,0.3278144665997803
299,24151.0,0.3378604299344716
300,24430.8,0.34606147313652147
301,24713.7,0.35587644798233975
302,24999.8,0.36750840387978956
303,25289.3,0.38022213964459817
304,25582.1,0.39292820586890204
305,25878.3,0.4071737519605646
306,26178.0,0.42200042732744947
307,26302.679900000003,0.4281685469286372
308,26481.1,0.44051101639967644
309,26787.8,0.4617274149721067
310,27097.9,0.4831790897595558
311,27411.8,0.5048935203167315
312,27729.1,0.5268432270889261
313,28050.2,0.5490557896308478
314,28375.0,0.5715242880538192
315,28703.6,0.5942556422465174
316,29035.9,0.6172430323202657
317,29372.2,0.6405071179410946
318,29712.3,0.6640339593316505
319,30056.4,0.6878375962692876
320,30199.5172,0.6977379393876496
321,30404.4,0.7139838723726372
322,30756.4,0.7418952748487762
323,31112.6,0.7701397053658233
324,31472.8,0.798701400683736
325,31837.3,0.8276039556625786
326,32206.0,0.8568395386823299
327,32578.9,0.8864082497429897
328,32956.1,0.9163178204645793
329,33337.7,0.9465762824671208
330,33723.7,0.9771837357506139
331,34114.3,1.0081558435551026
332,34509.3,1.0394769426405426
333,34673.685,1.0525116338482345
334,34908.9,1.0704684808538134
335,35313.1,1.1013261299356172
336,35722.0,1.1325424935416282
337,36135.7,1.1641253081510845
338,36554.1,1.196066937284748
339,36977.4,1.2283826539010958
340,37405.6,1.2610724580001271
341,37838.7,1.294136349581842
342,38276.9,1.3275896016047184
343,38720.1,1.3614245775895168
344,39168.4,1.3956488140154761
345,39622.0,1.430277783841073
346,39810.7171,1.4446848893277577
347,40080.8,1.4604578838122435
348,40544.9,1.487561605919739
349,41014.4,1.5149806123180782
350,41489.3,1.5427151030072608
351,41969.8,1.5707765625906513
352,42455.8,1.5991592487665678
353,42947.4,1.6278690038366923
354,43444.6,1.6569057278010249
355,43947.7,1.6862871475646124
356,44456.6,1.7160071208257728
357,44971.4,1.746071789886188
358,45492.1,1.7764809547458578
359,45708.818999999996,1.789137478154738
360,46018.9,1.8007488066640225
361,46551.8,1.8207038775094353
362,47090.8,1.8408873062872124
363,47636.1,1.8613066867000543
364,48187.7,1.8819618187479612
365,48745.7,1.9028567492822834
366,49310.2,1.923995025154371
367,49881.1,1.945372999512874
368,50458.7,1.9670019129118426
369,51043.0,1.9888816653512769
370,51634.1,2.0152122036825273
371,52232.0,2.050819727905594
372,52480.746,2.064713580905797
373,52836.8,2.0756325318225577
374,53448.6,2.080992122988105
375,54067.5,2.0854329985231783
376,54693.6,2.101251986376642
377,55326.9,2.1188283865484983
378,55967.5,2.133114726987612
379,56615.6,2.144739663591717
380,57271.2,2.1473122963608127
381,57934.4,2.148859553243767
382,58605.2,2.1615473342405784
383,59283.8,2.1686448952489807
384,59970.3,2.192423064217841
385,60255.9586,2.2057368958248027
386,60664.8,2.2187845761384892
387,61367.2,2.2523562339625145
388,62077.8,2.399194895252025
389,62796.6,2.3240701600070217
390,63523.7,2.2599139868063505
391,64259.3,2.2333702928077073
392,65003.4,2.2264650780110915
393,65756.1,2.216080500995351
394,66517.5,2.2336339203393325
395,67000.0,2.230833336288476
396,67287.8,2.227779255649578
397,68066.9,2.2133009227681573
398,68855.1,2.2130762723418504
399,69242.2916,2.218919709901871
400,69652.4,2.2200375280055646
401,70458.9,2.2113298920755753
402,71274.8,2.191287929948758
403,71559.6261,2.186290172919557
404,72100.1,2.170737952237145
405,72935.0,2.168818179160877
406,73779.6,2.1895928874610138
407,73954.515,2.1949640432286275
408,74633.9,2.189339180166778
409,75498.2,2.1796681060881298
410,76372.4,2.152127782983243
411,76429.5536,2.147009285937801
412,77256.7,2.0360437021510416
413,78151.3,1.9215129658264958
414,78987.42450000001,1.7911461851028165
415,79056.3,1.7796114870839213
416,79971.7,1.6272994584585483
417,80897.8,1.4663331157559494
418,81630.8998,1.3575935570000106
419,81834.5,1.3293739325778253
420,82782.1,1.208095284362281
421,83740.7,1.0923811142700273
422,84362.84430000001,1.0225447159326213
423,84710.3,1.0010231263042189
424,85691.2,0.9462713091387271
425,86683.4,0.8661742110740914
426,87186.21900000001,0.8196948336458684
427,87687.2,0.7866212177069212
428,88702.6,0.7258939594729981
429,89729.7,0.6779046655473905
430,90104.0836,0.6600915985813275
431,90768.7,0.6353448111214958
432,91819.7,0.60315282034524
433,92883.0,0.5718366384495286
434,93119.6005,0.5651223023047952
435,93958.6,0.5647789078108908
436,95046.5,0.5663841035275267
437,96147.1,0.5701922539142622
438,96236.03790000001,0.5701385418281776
439,97260.5,0.5842216841131324
440,98386.6,0.5962310534534728
441,99411.1,0.6108369448567041
442,99456.7731,0.61156713775494
443,100563.0,0.6373355679913841
444,101727.0,0.6617237266706338
445,102785.297,0.6850573580085418
446,102905.0,0.6875094528085712
447,104097.0,0.7171383044228555
448,105302.0,0.7472164765664903
449,106225.216,0.7662910748667111
450,106521.0,0.7738866757826444
451,107755.0,0.8067458677760153
452,109002.0,0.8408665210302565
453,109780.26,0.8702191224763584
454,110265.0,0.8883806418929661
455,111541.0,0.9658849749777242
456,112833.0,1.0349835661575892
457,113454.28,1.0291907698069551
458,114140.0,1.0224308346222348
459,115462.0,1.0359978905387102
460,116798.0,1.0670382686812299
461,117251.259,1.0781021211098774
462,118151.0,1.1002692085892984
463,119519.0,1.147185304007486
464,120903.0,1.1917398525884588
465,121175.312,1.2008806859876353
466,122303.0,1.2338291803655828
467,123719.0,1.2790466728371674
468,125151.0,1.3247916222858318
469,125230.691,1.3276490310833193
470,126601.0,1.372323458656709
471,128067.0,1.4517692365363621
472,129421.79100000001,1.4161644374519438
473,129549.0,1.4120069622368643
474,131049.0,1.423006474998371
475,132567.0,1.4376185819130158
476,133753.155,1.4490839752497258
477,134102.0,1.4505302210036601
478,135655.0,1.4626672727550276
479,137226.0,1.466905554983874
480,138229.477,1.4708692655823665
481,138815.0,1.470835871690401
482,140423.0,1.4791381903501009
483,142049.0,1.4880286133231553
484,142855.609,1.4878757929496533
485,143693.0,1.4827945214084153
486,145357.0,1.4762049750586057
487,147040.0,1.4718696802829263
488,147636.563,1.4697534816014466
489,148743.0,1.4662584617123953
490,150466.0,1.4565449974327584
491,152207.0,1.4473438173336015
492,152577.522,1.4447424924071515
493,153970.0,1.4342536113444688
494,155753.0,1.43777050843402
495,157557.0,1.4126789887198026
496,157683.84,1.411731111882935
497,159381.0,1.400475080806958
498,161227.0,1.3910647287412834
499,162961.05099999998,1.386700987154316
500,163093.0,1.3862743899521444
501,164982.0,1.3883106401125225
502,166892.0,1.3783530815134348
503,168414.875,1.371521459234508
504,168825.0,1.370692977208243
505,170779.0,1.3808691538431541
506,172757.0,1.3704355885329464
507,174051.222,1.3666779241503304
508,174758.0,1.364866335188721
509,176781.0,1.357868329812163
510,178829.0,1.3602985161635275
511,179876.201,1.3566535864101004
512,180899.0,1.3518350924069666
513,182993.0,1.3481800378386213
514,185113.0,1.3479769510741075
515,185896.125,1.354356795777842
516,187256.0,1.3685413721537358
517,189424.0,1.3585930985088006
518,191618.0,1.359694180438234
519,192117.51799999998,1.3622405327901048
520,193837.0,1.368616282030682
521,196081.0,1.375534010292494
522,198351.0,1.3798039626785517
523,198547.123,1.3808111834845846
524,200648.0,1.3918983635878601
525,202972.0,1.3968520473014365
526,205191.907,1.402221948731696
527,205322.0,1.4022927718549356
528,207700.0,1.407470689191985
529,210104.0,1.4011017771979843
530,212059.073,1.4044489098178174
531,212537.0,1.4053821144524068
532,214999.0,1.4105070567645857
533,217488.0,1.4084653644067517
534,219156.062,1.4114786640054708
535,220007.0,1.4130945278242868
536,222555.0,1.417654834565443
537,225132.0,1.4134140666972952
538,226490.56699999998,1.4136560425579763
539,227738.0,1.4112043963150531
540,230376.0,1.4102901165523176
541,233043.0,1.4027516017201664
542,234070.535,1.40286387883488
543,235742.0,1.40367320413115
544,238471.0,1.4096329644281198
545,241232.0,1.4074181528414333
546,241904.18300000002,1.408809643803637
547,244026.0,1.4122395719222354
548,246852.0,1.418837000171901
549,249710.0,1.4201743412679888
550,250000.0,1.4205877305722083
551,252601.0,1.4240032509660148
552,255527.0,1.4254169976276643
553,258486.0,1.4263337602291069
554,261479.0,1.4161132362230635
555,264506.0,1.405776425609534
556,267569.0,1.3953157232939606
557,270667.0,1.3847364318236222
558,273801.0,1.37403424865124
559,275422.87,1.3684958631296567
560,276972.0,1.3636301669960693
561,280179.0,1.3535572725234308
562,283424.0,1.3433652891858219
563,286706.0,1.333056245637584
564,290025.0,1.322631141878717
565,293384.0,1.3120808919461968
566,296782.0,1.301407524494365
567,300217.0,1.2906180968319036
568,303694.0,1.279697465687107
569,307211.0,1.268650688368657
570,310768.0,1.257477764876554
571,314367.0,1.246173637902115
572,316227.766,1.2403288828472423
573,318006.0,1.2362529193902967
574,321689.0,1.2278119085777242
575,325414.0,1.2192733483613698
576,329182.0,1.2106370589935245
577,332994.0,1.2018998607264795
578,336850.0,1.1930617535602344
579,340750.0,1.1841227374947896
580,344696.0,1.1750774530347265
581,348687.0,1.1659300799277545
582,352725.0,1.1533542586784553
583,356809.0,1.1391701690345382
584,360941.0,1.126252451500585
585,363078.055,1.1188119492027226
586,365121.0,1.1139648667084279
587,369348.0,1.105390094694701
588,373625.0,1.0922567885904406
589,377951.0,1.077501019077457
590,382328.0,1.0655326447921292
591,386755.0,1.0519387364162673
592,391234.0,1.0396601525862503
593,395764.0,1.027227963983889
594,400346.0,1.0131570999273725
595,404983.0,1.0004003483712687
596,409672.0,0.9860019213610098
597,414416.0,0.9714346068511639
598,416869.38300000003,0.9639010482984425
599,419214.0,0.9591865880434496
600,424069.0,0.9479433520202567
601,428979.0,0.9380695242398496
602,433947.0,0.9266020724245616
603,438971.0,0.9165000180928373
604,444055.0,0.9048033182077884
605,449196.0,0.894466005047081
606,454398.0,0.8825330355738268
607,459659.0,0.8719554313064697
608,464982.0,0.8612521599673438
609,470366.0,0.8489582323156714
610,475813.0,0.8380056268330077
611,478630.092,0.8315919881191012
612,481322.0,0.8277040586978966
613,486896.0,0.8182188019824003
614,492534.0,0.8101201293304503
615,498238.0,0.8019476839940328
616,504007.0,0.7922576443471547
617,509843.0,0.7839386536418018
618,515746.0,0.7741107118779742
619,521718.0,0.7656424623076575
620,527760.0,0.7570947265568451
621,533871.0,0.7484696829995435
622,540053.0,0.741184974887739
623,546307.0,0.7295604238474241
624,549540.874,0.722873224598021
625,552632.0,0.7181756840186809
626,559032.0,0.7085674057583652
627,565504.0,0.6989647531176209
628,572053.0,0.6893635750978072
629,578677.0,0.6797671320983804
630,585378.0,0.6701711637198842
631,592156.0,0.6579306699623185
632,599013.0,0.6418623904262271
633,605949.0,0.62598532511161
634,612966.0,0.6115322136190107
