,lambda (Angstroms),Total Flux (erg/s/cm^2/Angstrom)
0,1005.0,0.4396874920509652
1,1015.0,0.41270233977200177
2,1025.0,0.24656918749303833
3,1035.0,0.3081000352140749
4,1045.0,0.5060068829351114
5,1055.0,0.5357537306561481
6,1065.0,0.45684157837718464
7,1075.0,0.5207734260982212
8,1085.0,0.42356927381925774
9,1095.0,0.5292641215402942
10,1096.4782,0.535546153390418
11,1105.0,0.5717526179310435
12,1115.0,0.5619424922306345
13,1125.0,0.5610033665302255
14,1135.0,0.6563392408298165
15,1145.0,0.5995911151294075
16,1155.0,0.6590779894289985
17,1165.0,0.7019338637285896
18,1175.0,0.5954777380281806
19,1185.0,0.6553336123277715
20,1195.0,0.34542148662736255
21,1205.0,0.31546936092695355
22,1215.0,0.2114162352265446
23,1225.0,0.35849410952613564
24,1235.0,0.6796459838257266
25,1245.0,0.8169298581253177
26,1255.0,0.7675737324249087
27,1258.92541,0.6857445862223432
28,1265.0,0.5591240991882171
29,1275.0,0.8998812461987523
30,1285.0,0.9863643932092877
31,1295.0,0.7744085402198229
32,1305.0,0.6951356872303581
33,1315.0,0.9298218342408933
34,1325.0,0.9198449812514286
35,1335.0,0.7563041282619639
36,1345.0,0.9950562752724991
37,1355.0,0.9560654222830343
38,1365.0,0.8315165692935695
39,1375.0,0.9257627163041048
40,1385.0,0.94387186331464
41,1395.0,0.9211460103251753
42,1405.0,0.9266901573357105
43,1415.0,0.8644173043462458
44,1425.0,0.915789451356781
45,1435.0,0.8682995983673163
46,1442.0,0.9394454012746909
47,1445.43977,0.9681761307679334
48,1447.0,0.9812079460192457
49,1455.0,0.9418487161585811
50,1465.0,0.8610956788327503
51,1475.0,0.8361506415069196
52,1485.0,0.8738496041810889
53,1495.0,0.9095135668552581
54,1505.0,0.8716325295294273
55,1512.0,0.7681492034013458
56,1517.0,0.8431766847384304
57,1525.0,0.7653794548777658
58,1535.0,0.667440417551935
59,1545.0,0.8030793802261043
60,1555.0,0.7348913429002736
61,1565.0,0.7084673055744428
62,1575.0,0.743024268248612
63,1585.0,0.7975382309227812
64,1595.0,0.8208251935969505
65,1605.0,0.7823871562711198
66,1615.0,0.789041118945289
67,1625.0,0.7254740816194583
68,1635.0,0.7661290442936275
69,1645.0,0.7805450069677967
70,1655.0,0.689996969641966
71,1659.58691,0.7265293972159433
72,1665.0,0.7696452167382923
73,1672.0,0.6351231378987464
74,1677.0,0.7545036530133565
75,1685.0,0.8201092771967327
76,1695.0,0.7630153074259528
77,1705.0,0.7147913376551731
78,1715.0,0.6682313678843933
79,1725.0,0.6604773981136135
80,1735.0,0.7039094283428338
81,1745.0,0.6885794585720538
82,1755.0,0.752154488801274
83,1765.0,0.6518205190304942
84,1775.0,0.6934055492597144
85,1785.0,0.6963685794889347
86,1795.0,0.7544006097181548
87,1805.0,0.733340639947375
88,1815.0,0.6841946701765952
89,1825.0,0.6812447004058154
90,1835.0,0.6465097306350357
91,1845.0,0.5899707608642559
92,1855.0,0.586466791093476
93,1865.0,0.6034748213226963
94,1875.0,0.6579948515519164
95,1885.0,0.6101408817811367
96,1895.0,0.5912999120103568
97,1905.0,0.605535942239577
98,1905.46072,0.6048891848962976
99,1915.0,0.5914826215990909
100,1925.0,0.5859305595554075
101,1935.0,0.5873984975117242
102,1945.0,0.6093814354680409
103,1955.0,0.5774033734243575
104,1967.0,0.6295044989719376
105,1976.0,0.6413213431326226
106,1984.0,0.6045410934976759
107,1995.0,0.5790301252496243
108,2005.0,0.5880750632059409
109,2015.0,0.5551740011622577
110,2025.0,0.5847299391185743
111,2035.0,0.557188877074891
112,2045.0,0.5819398150312076
113,2055.0,0.5507027529875242
114,2065.0,0.547921690943841
115,2074.0,0.584132535104526
116,2078.0,0.5713779102870526
117,2085.0,0.5839365668564743
118,2095.0,0.548818504812791
119,2105.0,0.5395694427691077
120,2115.0,0.5423323807254243
121,2125.0,0.548791318681741
122,2135.0,0.48909425663805767
123,2145.0,0.5204981945943743
124,2155.0,0.537121132550691
125,2165.0,0.5081010705070078
126,2175.0,0.4994060084633244
127,2185.0,0.49219094641964106
128,2187.7616199999998,0.49953683848553276
129,2195.0,0.5188026736292041
130,2205.0,0.4947868987288406
131,2215.0,0.4594981238284771
132,2225.0,0.4410273489281136
133,2235.0,0.48834157402775014
134,2245.0,0.45249879912738666
135,2255.0,0.42922302422702313
136,2265.0,0.4416112493266596
137,2275.0,0.46157547442629615
138,2285.0,0.4798766995259327
139,2295.0,0.4554919246255692
140,2305.0,0.44515014972520567
141,2315.0,0.4192873748248422
142,2325.0,0.3148865999244787
143,2335.0,0.38271282502411524
144,2345.0,0.36331705012375176
145,2355.0,0.4100762752233882
146,2365.0,0.3601895003230247
147,2375.0,0.37923072542266123
148,2385.0,0.34006195052229776
149,2395.0,0.3768431756219343
150,2405.0,0.35744640072157075
151,2415.0,0.3707586258212073
152,2425.0,0.4051378509208438
153,2435.0,0.3874050760204803
154,2445.0,0.4199363011201169
155,2455.0,0.4095935262197533
156,2465.0,0.40867675131938985
157,2475.0,0.38854297641902635
158,2485.0,0.40462620151866285
159,2495.0,0.39280742661829937
160,2505.0,0.43845865171793585
161,2511.88643,0.3854932076722247
162,2513.0,0.37692731584422456
163,2518.0,0.3859809176923331
164,2525.0,0.36324896027968523
165,2535.0,0.37396416397590243
166,2545.0,0.3667543676721196
167,2555.0,0.4053725713683368
168,2565.0,0.38892377506455406
169,2575.0,0.42218297876077127
170,2585.0,0.41368018245698845
171,2595.0,0.4057303861532056
172,2605.0,0.3855865898494229
173,2615.0,0.3796707935456401
174,2625.0,0.4062769972418573
175,2635.0,0.4278952009380745
176,2645.0,0.4790794046342917
177,2655.0,0.4977416083305089
178,2665.0,0.43250681202672614
179,2675.0,0.4604070157229433
180,2685.0,0.45985021941916054
181,2695.0,0.4321294231153778
182,2705.0,0.45504062681159496
183,2715.0,0.4191878305078122
184,2725.0,0.4143800342040294
185,2735.0,0.4456072379002466
186,2745.0,0.3668834415964638
187,2755.0,0.379261645292681
188,2765.0,0.4014338489888982
189,2775.0,0.42508405268511545
190,2785.0,0.39348225638133266
191,2795.0,0.2957244600775499
192,2805.0,0.3254736637737671
193,2815.0,0.4206378674699843
194,2825.0,0.4537140711662015
195,2835.0,0.4341222748624187
196,2845.0,0.41157447855863594
197,2855.0,0.3899516822548531
198,2865.0,0.4474198859510703
199,2875.0,0.4559160896472876
200,2884.0315,0.4515748315655261
201,2885.0,0.45110955862309243
202,2895.0,0.45388150139610534
203,2910.0,0.5135694155556249
204,2930.0,0.4845563011016506
205,2950.0,0.47402218664767654
206,2970.0,0.4843710721937024
207,2990.0,0.4862189577397283
208,3010.0,0.4954588432857541
209,3030.0,0.49545872883178
210,3050.0,0.4956436143778059
211,3070.0,0.5019264999238318
212,3090.0,0.5056223854698576
213,3110.0,0.5111652710158835
214,3130.0,0.5000771565619093
215,3150.0,0.5021110421079352
216,3170.0,0.5083929276539612
217,3190.0,0.47402081319998696
218,3210.0,0.49712069874601283
219,3230.0,0.4653365842920387
220,3250.0,0.5133824698380646
221,3270.0,0.5416553553840905
222,3290.0,0.5355572409301164
223,3310.0,0.5285341264761422
224,3311.31121,0.5284492836854825
225,3330.0,0.5272380744944635
226,3350.0,0.5174428865753753
227,3370.0,0.4754926986562869
228,3390.0,0.4889805107371986
229,3410.0,0.49322832281811024
230,3430.0,0.495629134899022
231,3450.0,0.5039429469799336
232,3470.0,0.5044947590608454
233,3490.0,0.522231571141757
234,3510.0,0.5364583832226688
235,3530.0,0.5131741953035804
236,3550.0,0.5438460073844921
237,3570.0,0.47066681946540384
238,3590.0,0.46937063154631553
239,3610.0,0.5054024436272273
240,3630.0,0.5155642557081389
241,3640.0,0.5214761617485948
242,3650.0,0.5584340677890506
243,3670.0,0.5612038798699623
244,3690.0,0.513525691950874
245,3710.0,0.5551015040317857
246,3730.0,0.4906063161126974
247,3750.0,0.580043128193609
248,3770.0,0.6426849402745208
249,3790.0,0.7197407523554324
250,3801.8939600000003,0.7496307567783274
251,3810.0,0.7700017492050131
252,3830.0,0.5791110171649211
253,3850.0,0.7622372851248289
254,3870.0,0.8143485530847369
255,3890.0,0.6323268210446448
256,3910.0,0.8849330890045526
257,3930.0,0.6661383569644607
258,3950.0,0.8117546249243685
259,3970.0,0.5192258928842765
260,3990.0,0.9388851608441844
261,4010.0,1.0229634288040923
262,4030.0,1.0163116967640002
263,4050.0,0.999307964723908
264,4070.0,0.9560642326838159
265,4090.0,0.9429435006437239
266,4110.0,0.8163597686036318
267,4130.0,0.9702880365635398
268,4150.0,0.9919073045234477
269,4170.0,0.9909825724833555
270,4190.0,0.9830348404432635
271,4210.0,0.9861731084031714
272,4230.0,0.9542033763630794
273,4250.0,0.9811806443229872
274,4270.0,0.9386779122828951
275,4290.0,0.9168711802428031
276,4310.0,0.838516448202711
277,4330.0,0.885081716162619
278,4350.0,0.8265019841225268
279,4365.15832,0.973136195733624
280,4370.0,1.0199729112125966
281,4390.0,0.9632479019057778
282,4410.0,0.9878258925989594
283,4430.0,1.0114758832921407
284,4450.0,1.0212668739853221
285,4470.0,1.0519578646785035
286,4490.0,1.0582288553716848
287,4510.0,1.1528498460648664
288,4530.0,1.0488108367580475
289,4550.0,1.068581827451229
290,4570.0,1.1304928181444103
291,4590.0,1.079303808837592
292,4610.0,1.0990847995307733
293,4630.0,1.0678457902239546
294,4650.0,1.0813467809171362
295,4670.0,1.1083177716103174
296,4690.0,1.084668762303499
297,4710.0,1.0477097529966801
298,4730.0,1.0855907436898617
299,4750.0,1.105731734383043
300,4770.0,1.0946527250762244
301,4790.0,1.0915037157694059
302,4810.0,1.0795047064625871
303,4830.0,1.0937256971557687
304,4850.0,0.9773156878489501
305,4870.0,0.8605276785421314
306,4890.0,1.0443886692353128
307,4910.0,1.055299659928494
308,4930.0,1.0355206506216756
309,4950.0,1.074141641314857
310,4970.0,1.0577026320080385
311,4990.0,0.9950616227012198
312,5010.0,0.9459086133944011
313,5011.87234,0.9502508498341244
314,5030.0,0.9922917845292236
315,5050.0,0.9839789743012062
316,5070.0,1.0201981640731888
317,5090.0,0.9732623538451713
318,5110.0,0.9902655436171538
319,5130.0,0.9579257333891364
320,5150.0,0.9274379231611191
321,5170.0,0.8740341129331015
322,5190.0,0.8928833027050841
323,5210.0,0.9411144924770666
324,5230.0,0.9878686822490492
325,5250.0,1.0209388720210317
326,5270.0,0.9187590617930143
327,5290.0,1.0263112515649968
328,5310.0,1.0706524413369793
329,5330.0,0.962188631108962
330,5350.0,1.0373948208809445
331,5370.0,1.030926010652927
332,5390.0,1.0072772004249095
333,5410.0,0.9908373901968922
334,5430.0,1.0045095799688748
335,5450.0,1.0290907697408573
336,5470.0,1.00470195951284
337,5490.0,1.0056231492848224
338,5510.0,0.995461339056805
339,5530.0,1.0218855288287876
340,5550.0,1.0327867186007702
341,5570.0,1.0133879083727526
342,5590.0,0.9906630981447353
343,5610.0,1.020960287916718
344,5630.0,1.0104314776887005
345,5650.0,1.0200426674606828
346,5670.0,0.9963968572326655
347,5690.0,1.024305047004648
348,5710.0,0.9930712367766307
349,5730.0,1.0658774265486133
350,5750.0,1.0239286163205956
351,5754.399369999999,1.0261241636629534
352,5770.0,1.0339112417665244
353,5790.0,0.9947432720718008
354,5810.0,1.0315173023770772
355,5830.0,1.0581203326823536
356,5850.0,1.02561336298763
357,5870.0,1.0226563932929067
358,5890.0,0.9145584235981831
359,5910.0,1.0051024539034596
360,5930.0,1.011575484208736
361,5950.0,1.0093585145140125
362,5970.0,1.024341544819289
363,5990.0,1.0049345751245653
364,6010.0,0.9910806054298419
365,6030.0,1.0154706357351182
366,6050.0,1.0304436660403948
367,6070.0,1.0276766963456712
368,6090.0,0.9901697266509477
369,6110.0,0.9916507569562242
370,6130.0,0.9406507872615006
371,6150.0,0.960610817566777
372,6170.0,0.9188508478720535
373,6190.0,0.9717038781773301
374,6210.0,0.9620989084826065
375,6230.0,0.932164938787883
376,6250.0,0.9013069690931593
377,6270.0,0.9430739993984358
378,6290.0,0.9591540297037123
379,6310.0,0.9314390600089888
380,6330.0,0.9430830903142653
381,6350.0,0.9371741206195418
382,6370.0,0.9323701509248182
383,6390.0,0.9538101812300946
384,6410.0,0.9347792115353711
385,6430.0,0.9421732418406475
386,6450.0,0.934047272145924
387,6470.0,0.9327553024512005
388,6490.0,0.912802332756477
389,6510.0,0.9410773630617535
390,6530.0,0.9342443933670298
391,6550.0,0.8963644236723063
392,6570.0,0.8255904539775828
393,6590.0,0.9172504842828593
394,6606.93448,0.9299276616710641
395,6610.0,0.9322220527879473
396,6630.0,0.9235360702263149
397,6650.0,0.9237220876646824
398,6670.0,0.90228610510305
399,6690.0,0.9148511225414174
400,6710.0,0.880481139979785
401,6730.0,0.9026561574181525
402,6750.0,0.88657917485652
403,6770.0,0.8908281922948876
404,6790.0,0.878634209733255
405,6810.0,0.8830672271716226
406,6830.0,0.89193724460999
407,6850.0,0.8688392620483576
408,6870.0,0.8828832794867251
409,6890.0,0.8947082969250927
410,6910.0,0.8906443143634601
411,6930.0,0.8825123318018278
412,6950.0,0.8812193492401952
413,6970.0,0.8910143666785627
414,6990.0,0.8858383841169302
415,7010.0,0.8699474015552977
416,7030.0,0.8884274189936652
417,7050.0,0.8932324364320328
418,7070.0,0.8677314538704003
419,7090.0,0.8416744713087678
420,7110.0,0.8196844887471353
421,7130.0,0.8039765061855029
422,7150.0,0.8017595236238704
423,7170.0,0.810074541062238
424,7190.0,0.7906715585006053
425,7210.0,0.8098905759389728
426,7230.0,0.8248585933773404
427,7250.0,0.830216610815708
428,7270.0,0.8342836282540754
429,7290.0,0.820424645692443
430,7310.0,0.8427836631308105
431,7330.0,0.8451846805691781
432,7350.0,0.8525776980075456
433,7370.0,0.8729037154459129
434,7390.0,0.8551657328842805
435,7410.0,0.854240750322648
436,7430.0,0.8725347677610156
437,7450.0,0.8727197851993831
438,7470.0,0.8849158026377506
439,7490.0,0.8823288200761181
440,7510.0,0.8923068375144857
441,7530.0,0.9065368549528532
442,7550.0,0.9122658723912207
443,7570.0,0.9076458898295882
444,7585.77575,0.8935076764347546
445,7590.0,0.8897221640034461
446,7610.0,0.8749383969735195
447,7630.0,0.8583096299435928
448,7650.0,0.8416788629136661
449,7670.0,0.8023210958837395
450,7690.0,0.8217243288538129
451,7710.0,0.8071275618238861
452,7730.0,0.8073127947939595
453,7750.0,0.8017700277640328
454,7770.0,0.8104562607341063
455,7790.0,0.8195124937041794
456,7810.0,0.8163727266742529
457,7830.0,0.8095359596443262
458,7850.0,0.7973411926143995
459,7870.0,0.8113884255844729
460,7890.0,0.7973436585545463
461,7910.0,0.7796058915246195
462,7930.0,0.7823771244946929
463,7950.0,0.7749883574647662
464,7970.0,0.8017835904348395
465,7990.0,0.8017848234049129
466,8010.0,0.8089930563749863
467,8030.0,0.8108422893450596
468,8050.0,0.8110285223151329
469,8070.0,0.8197147552852062
470,8090.0,0.8102909882552797
471,8110.0,0.8184242212253529
472,8130.0,0.8418924541954262
473,8150.0,0.8505796871654996
474,8170.0,0.8592659201355729
475,8190.0,0.8337661531056463
476,8210.0,0.8230493860757196
477,8230.0,0.8289636190457931
478,8250.0,0.8284108520158663
479,8270.0,0.8383900849859397
480,8290.0,0.828782317956013
481,8310.0,0.7981095509260863
482,8330.0,0.7938607838961597
483,8350.0,0.7934930168662331
484,8370.0,0.7995912498363063
485,8390.0,0.7727974828063797
486,8410.0,0.797375715776453
487,8430.0,0.7593099487465264
488,8450.0,0.7421271817165996
489,8470.0,0.7424974146866731
490,8490.0,0.7474876476567465
491,8510.0,0.7110848806268197
492,8530.0,0.745272113596893
493,8550.0,0.6713563465669664
494,8570.0,0.7737325795370397
495,8590.0,0.757656812507113
496,8610.0,0.7657890454771864
497,8630.0,0.7905522784472597
498,8650.0,0.785563511417333
499,8670.0,0.6913217443874065
500,8690.0,0.7704129773574797
501,8709.6359,0.8021644563863317
502,8710.0,0.8027532521656571
503,8730.0,0.806268783301285
504,8750.0,0.7833573144369131
505,8770.0,0.8120048455725412
506,8790.0,0.8260503767081693
507,8810.0,0.8101619078437974
508,8830.0,0.8181124389794254
509,8850.0,0.8110939701150535
510,8870.0,0.7697035012506815
511,8890.0,0.7977950323863096
512,8910.0,0.8116585635219377
513,8930.0,0.7948460946575657
514,8950.0,0.7985466257931938
515,8970.0,0.8007671569288218
516,8990.0,0.7996616880644499
517,9010.0,0.760858219200078
518,9030.0,0.7965277503357061
519,9050.0,0.8321952814713341
520,9070.0,0.8320148126069622
521,9090.0,0.8142783437425902
522,9110.0,0.8259218748782183
523,9130.0,0.8436674060138464
524,9150.0,0.8372029371494745
525,9170.0,0.8359124682851025
526,9190.0,0.8453389994207307
527,9210.0,0.8057985305563587
528,9230.0,0.7706920616919868
529,9250.0,0.7808595928276149
530,9270.0,0.7908401239632429
531,9290.0,0.783082655098871
532,9310.0,0.789554186234499
533,9330.0,0.7902977173701271
534,9350.0,0.7877132485057552
535,9370.0,0.7744127796413832
536,9390.0,0.7880903107770113
537,9410.0,0.7688748419126394
538,9430.0,0.7927163730482674
539,9450.0,0.7795999041838956
540,9470.0,0.7997464353195235
541,9490.0,0.8014119664551517
542,9510.0,0.7845994975907796
543,9530.0,0.7851580287264078
544,9550.0,0.7572575598620358
545,9570.0,0.7792520909976639
546,9590.0,0.7997676221332919
547,9610.0,0.7886821532689201
548,9630.0,0.7925676844045481
549,9650.0,0.7794512155401762
550,9670.0,0.7788987466758042
551,9690.0,0.7931332778114323
552,9710.0,0.7807558089470603
553,9730.0,0.7735513400826884
554,9750.0,0.7700428712183165
555,9770.0,0.7742984023539445
556,9790.0,0.7632149334895726
557,9810.0,0.7835444646252007
558,9830.0,0.7743089957608287
559,9850.0,0.7811485268964569
560,9870.0,0.7754230580320849
561,9890.0,0.774689589167713
562,9910.0,0.7684081203033409
563,9930.0,0.7735866514389691
564,9950.0,0.7752541825745972
565,9970.0,0.7758117137102253
566,9990.0,0.7726742448458533
567,10000.0,0.7713825104136672
568,10030.0,0.767507321126391
569,10070.0,0.7553184020766892
570,10130.0,0.7708510235021365
571,10170.0,0.7623561044524347
572,10220.0,0.7656919556403075
573,10280.0,0.7682905770657548
574,10320.0,0.7586876580160529
575,10380.0,0.7533402794415003
576,10430.0,0.756675130629373
577,10480.0,0.7454119818172458
578,10520.0,0.7385810627675439
579,10580.0,0.7239926841929911
580,10630.0,0.7177195353808639
581,10680.0,0.7092273865687366
582,10720.0,0.7144084675190349
583,10780.0,0.7101690889444822
584,10820.0,0.6992731698947804
585,10870.0,0.6970650210826531
586,10920.0,0.6900518722705259
587,10980.0,0.6850734936959731
588,11020.0,0.6839715746462713
589,11080.0,0.6732631960717186
590,11130.0,0.6716100472595914
591,11170.0,0.6669971282098895
592,11220.0,0.6671899793977624
593,11280.0,0.6577776008232096
594,11330.0,0.6572304520110823
595,11380.0,0.6533583031989552
596,11430.0,0.6463461543868279
597,11470.0,0.6555922353371261
598,11481.5362,0.6551324449785968
599,11530.0,0.6532087589284754
600,11570.0,0.6454613619970574
601,11620.0,0.635869365832785
602,11670.0,0.6351483696685125
603,11730.0,0.6383087742713855
604,11770.0,0.6235393773399676
605,11830.0,0.6172767819428406
606,11870.0,0.6065723850114226
607,11920.0,0.6167523888471502
608,11980.0,0.5958917934500232
609,12030.0,0.6081057972857508
610,12070.0,0.6025754003543328
611,12120.0,0.6035154041900603
612,12180.0,0.6053848087929333
613,12230.0,0.6013358126286609
614,12270.0,0.5970994156972429
615,12320.0,0.5924964195329705
616,12370.0,0.591404423368698
617,12430.0,0.5827398279715711
618,12480.0,0.5809098318072986
619,12530.0,0.5751978356430262
620,12580.0,0.5731828394787537
621,12620.0,0.5702394425473357
622,12670.0,0.5647124463830633
623,12720.0,0.5650994502187907
624,12780.0,0.5647508548216639
625,12830.0,0.5411128586573914
626,12880.0,0.5544358624931188
627,12920.0,0.5485344655617009
628,12980.0,0.554838870164574
629,13020.0,0.546906473233156
630,13080.0,0.549328877836029
631,13130.0,0.5373348816717565
632,13180.0,0.5360578855074841
633,13182.5674,0.5360587586204411
634,13230.0,0.5360825795507252
635,13280.0,0.5266836898443673
636,13320.0,0.527812778079281
637,13380.0,0.5217449104316516
638,13430.0,0.5238020207252936
639,13470.0,0.5190181089602074
640,13520.0,0.5157182192538494
641,13570.0,0.5077963295474915
642,13630.0,0.5057944618998621
643,13670.0,0.5078465501347758
644,13730.0,0.5089856824871463
645,13770.0,0.50752777072206
646,13820.0,0.507921881015702
647,13880.0,0.5031480133680727
648,13930.0,0.4828451236617147
649,13970.0,0.4800932118966284
650,14020.0,0.4745763221902705
651,14080.0,0.47848645454264105
652,14120.0,0.47203854277755475
653,14180.0,0.47705767512992525
654,14230.0,0.47154078542356737
655,14280.0,0.4638038957172095
656,14330.0,0.47251500601085156
657,14380.0,0.4754961163044937
658,14420.0,0.46313420453940735
659,14480.0,0.4722203368917779
660,14520.0,0.46762042512669155
661,14570.0,0.47078653542033366
662,14620.0,0.4610176457139758
