,lambda (Angstroms),Total Flux (erg/s/cm^2/Angstrom)
0,1005.0,21.033314172313418
1,1015.0,20.750354963345305
2,1025.0,20.328247754377195
3,1035.0,20.133804545409085
4,1045.0,20.075737336440973
5,1055.0,19.84951012747286
6,1065.0,19.514623918504746
7,1075.0,19.32258170953664
8,1085.0,18.969403500568525
9,1095.0,18.819124291600414
10,1096.4782,18.787568238390747
11,1105.0,18.64518569482773
12,1115.0,18.42580833203699
13,1125.0,18.21530196924624
14,1135.0,18.101070606455497
15,1145.0,17.834755243664752
16,1155.0,17.68467488087401
17,1165.0,17.517963518083267
18,1175.0,17.20194015529252
19,1185.0,17.052228792501776
20,1195.0,16.53274942971103
21,1205.0,16.293230066920287
22,1215.0,15.979609704129542
23,1225.0,15.917120341338798
24,1235.0,16.028704978548053
25,1245.0,15.956421615757307
26,1255.0,15.697498252966565
27,1258.92541,15.533405373949318
28,1265.0,15.316024657878904
29,1275.0,15.507372167306835
30,1285.0,15.444445676734768
31,1295.0,15.083080186162697
32,1305.0,14.85439769559063
33,1315.0,14.939674205018559
34,1325.0,14.780287714446493
35,1335.0,14.467337223874422
36,1345.0,14.556679733302351
37,1355.0,14.368279242730287
38,1365.0,14.094320752158216
39,1375.0,14.039157261586146
40,1385.0,13.907856771014078
41,1395.0,13.735721280442009
42,1405.0,13.591855789869943
43,1415.0,13.380173299297875
44,1425.0,13.282135808725803
45,1435.0,13.085236318153736
46,1442.0,13.051795374753288
47,1445.43977,13.02913262533978
48,1447.0,13.025892824831484
49,1455.0,12.903101712442687
50,1465.0,12.718058821956692
51,1475.0,12.5888239314707
52,1485.0,12.522233040984704
53,1495.0,12.453607150498708
54,1505.0,12.311436260012714
55,1512.0,12.13495003667252
56,1517.0,12.157832591429523
57,1525.0,11.996603479040726
58,1535.0,11.794374588554732
59,1545.0,11.825723698068739
60,1555.0,11.653245807582742
61,1565.0,11.522531917096748
62,1575.0,11.452799026610753
63,1585.0,11.40302313612476
64,1595.0,11.322020245638763
65,1605.0,11.17929235515277
66,1615.0,11.081656464666777
67,1625.0,10.913799574180782
68,1635.0,10.850164683694787
69,1645.0,10.760290793208792
70,1655.0,10.5654529027228
71,1659.58691,10.554148513260886
72,1665.0,10.557722065973476
73,1672.0,10.372065447034222
74,1677.0,10.45492129064904
75,1685.0,10.462087440432752
76,1695.0,10.331944127662387
77,1705.0,10.210670814892026
78,1715.0,10.091061502121665
79,1725.0,10.010258189351301
80,1735.0,9.980640876580939
81,1745.0,9.892261563810578
82,1755.0,9.882787251040217
83,1765.0,9.709403938269855
84,1775.0,9.677939625499492
85,1785.0,9.60785331272913
86,1795.0,9.592835999958767
87,1805.0,9.498726687188407
88,1815.0,9.376531374418045
89,1825.0,9.300532061647683
90,1835.0,9.192747748877322
91,1845.0,9.063159436106957
92,1855.0,8.986606123336596
93,1865.0,8.930564810566235
94,1875.0,8.912035497795872
95,1885.0,8.791132185025509
96,1895.0,8.699241872255147
97,1905.0,8.640428559484784
98,1905.46072,8.636416272810829
99,1915.0,8.571957793562765
100,1925.0,8.51288815372405
101,1935.0,8.460838513885339
102,1945.0,8.429303874046624
103,1955.0,8.343808234207911
104,1967.0,8.331688266401454
105,1976.0,8.295339290546613
106,1984.0,8.215744978675641
107,1995.0,8.131364674853057
108,2005.0,8.086892035014342
109,2015.0,8.000473395175629
110,2025.0,7.976511755336915
111,2035.0,7.895453115498202
112,2045.0,7.866686475659488
113,2055.0,7.781931835820776
114,2065.0,7.725633195982061
115,2074.0,7.713678220127219
116,2078.0,7.679516564191733
117,2085.0,7.654612916304633
118,2095.0,7.5659772764659206
119,2105.0,7.503210636627205
120,2115.0,7.452455996788493
121,2125.0,7.405397356949778
122,2135.0,7.292182717111067
123,2145.0,7.2700690772723515
124,2155.0,7.2331744374336395
125,2165.0,7.150636797594924
126,2175.0,7.0884241577562115
127,2185.0,7.027691517917498
128,2187.7616199999998,7.02025788866436
129,2195.0,7.013305878797981
130,2205.0,6.95306950618093
131,2215.0,6.881560133563882
132,2225.0,6.826868760946834
133,2235.0,6.837962388329784
134,2245.0,6.765899015712735
135,2255.0,6.706402643095687
136,2265.0,6.682570270478639
137,2275.0,6.66631389786159
138,2285.0,6.648394525244541
139,2295.0,6.587789152627493
140,2305.0,6.541226780010443
141,2315.0,6.479143407393395
142,2325.0,6.3385220347763465
143,2335.0,6.370127662159296
144,2345.0,6.3145112895422475
145,2355.0,6.3250499169252
146,2365.0,6.238942544308151
147,2375.0,6.221763171691102
148,2385.0,6.146373799074055
149,2395.0,6.146934426457005
150,2405.0,6.091317053839956
151,2415.0,6.068408681222907
152,2425.0,6.066567308605858
153,2435.0,6.01261393598881
154,2445.0,6.00892456337176
155,2455.0,5.962361190754712
156,2465.0,5.925223818137664
157,2475.0,5.868869445520614
158,2485.0,5.848732072903566
159,2495.0,5.800692700286517
160,2505.0,5.8101233276694675
161,2511.88643,5.732214822550345
162,2513.0,5.720644603639981
163,2518.0,5.7162085861450525
164,2525.0,5.674591161652154
165,2535.0,5.658327126662298
166,2545.0,5.624138091672443
167,2555.0,5.635777056682587
168,2565.0,5.592349021692732
169,2575.0,5.598628986702877
170,2585.0,5.56314695171302
171,2595.0,5.5282179167231655
172,2605.0,5.48109488173331
173,2615.0,5.448199846743454
174,2625.0,5.4478268117535995
175,2635.0,5.442465776763743
176,2645.0,5.466670741773887
177,2655.0,5.458353706784032
178,2665.0,5.366139671794177
179,2675.0,5.367060636804322
180,2685.0,5.339524601814466
181,2695.0,5.284824566824611
182,2705.0,5.280756531834755
183,2715.0,5.217924496844899
184,2725.0,5.1861374618550435
185,2735.0,5.190385426865188
186,2745.0,5.084682391875332
187,2755.0,5.070081356885476
188,2765.0,5.065274321895622
189,2775.0,5.0619452869057655
190,2785.0,5.00336425191591
191,2795.0,4.878627216926055
192,2805.0,4.881397181936198
193,2815.0,4.9495821469463435
194,2825.0,4.955679111956488
195,2835.0,4.909108076966632
196,2845.0,4.859581041976777
197,2855.0,4.810979006986922
198,2865.0,4.841467971997066
199,2875.0,4.82298493700721
200,2884.0315,4.794277379506122
201,2885.0,4.791966558018057
202,2895.0,4.775682759483561
203,2910.0,4.80678706168182
204,2930.0,4.739662464612831
205,2950.0,4.6910168675438415
206,2970.0,4.663254270474851
207,2990.0,4.626990673405862
208,3010.0,4.5981190763368724
209,3030.0,4.560007479267883
210,3050.0,4.5220808821988925
211,3070.0,4.490252285129904
212,3090.0,4.455836688060915
213,3110.0,4.423268090991924
214,3130.0,4.374068493922935
215,3150.0,4.337990896853945
216,3170.0,4.306161299784956
217,3190.0,4.233677702715966
218,3210.0,4.218666105646977
219,3230.0,4.148770508577988
220,3250.0,4.158704911508998
221,3270.0,4.148866314440009
222,3290.0,4.104656717371019
223,3310.0,4.05952212030203
224,3311.31121,4.056938669655389
225,3330.0,4.030504215678881
226,3350.0,3.993716114055387
227,3370.0,3.9247730124318925
228,3390.0,3.9112679108083985
229,3410.0,3.888522809184904
230,3430.0,3.86393070756141
231,3450.0,3.845251605937916
232,3470.0,3.818810504314422
233,3490.0,3.809554402690928
234,3510.0,3.7967883010674335
235,3530.0,3.7465111994439386
236,3550.0,3.7501900978204445
237,3570.0,3.6500179961969508
238,3590.0,3.6217288945734563
239,3610.0,3.630767792949962
240,3630.0,3.613936691326468
241,3640.0,3.6063521405147205
242,3650.0,3.629813589702974
243,3670.0,3.6055904880794793
244,3690.0,3.5309193864559854
245,3710.0,3.545502284832491
246,3730.0,3.454014183208997
247,3750.0,3.5164580815855024
248,3770.0,3.552106979962008
249,3790.0,3.6021698783385143
250,3801.8939600000003,3.616007250967226
251,3810.0,3.6286110415598545
252,3830.0,3.418556323568402
253,3850.0,3.5825186055769507
254,3870.0,3.615465887585499
255,3890.0,3.4142801695940475
256,3910.0,3.6477224516025957
257,3930.0,3.409763733611144
258,3950.0,3.5362160156196927
259,3970.0,3.2245232976282407
260,3990.0,3.6250185796367886
261,4010.0,3.689932861645337
262,4030.0,3.6641171436538857
263,4050.0,3.6279494256624334
264,4070.0,3.5655417076709823
265,4090.0,3.5332569896795305
266,4110.0,3.387509271688079
267,4130.0,3.522273553696627
268,4150.0,3.524728835705176
269,4170.0,3.5046401177137243
270,4190.0,3.4775283997222726
271,4210.0,3.4615026817308205
272,4230.0,3.4103689637393693
273,4250.0,3.418182245747917
274,4270.0,3.356515527756465
275,4290.0,3.3155448097650138
276,4310.0,3.218026091773562
277,4330.0,3.2454273737821104
278,4350.0,3.1676836557906585
279,4365.15832,3.299793175825445
280,4370.0,3.343360574248731
281,4390.0,3.273130677978352
282,4410.0,3.284203781707973
283,4430.0,3.294348885437594
284,4450.0,3.2906349891672146
285,4470.0,3.3078210928968357
286,4490.0,3.300587196626456
287,4510.0,3.3817033003560777
288,4530.0,3.2641594040856985
289,4550.0,3.270425507815319
290,4570.0,3.31883161154494
291,4590.0,3.2541377152745614
292,4610.0,3.2604138190041816
293,4630.0,3.2156699227338024
294,4650.0,3.215666026463424
295,4670.0,3.2291321301930447
296,4690.0,3.191978233922665
297,4710.0,3.1415143376522865
298,4730.0,3.165890441381907
299,4750.0,3.172526545111528
300,4770.0,3.147942648841149
301,4790.0,3.1312887525707698
302,4810.0,3.1057848563003905
303,4830.0,3.1065009600300115
304,4850.0,2.9765860637596324
305,4870.0,2.846293167489253
306,4890.0,3.0166492712188737
307,4910.0,3.014055374948495
308,4930.0,2.9807714786781156
309,4950.0,3.0058875824077367
310,4970.0,2.9759436861373576
311,4990.0,2.8997977898669784
312,5010.0,2.837139893596599
313,5011.87234,2.8402178430334546
314,5030.0,2.87360591829216
315,5050.0,2.8557465262809525
316,5070.0,2.8824191342697443
317,5090.0,2.8259367422585364
318,5110.0,2.833393350247329
319,5130.0,2.7915069582361207
320,5150.0,2.7514725662249124
321,5170.0,2.688522174213705
322,5190.0,2.6978247822024968
323,5210.0,2.736509390191289
324,5230.0,2.773716998180081
325,5250.0,2.797240606168873
326,5270.0,2.6855142141576644
327,5290.0,2.7835198221464568
328,5310.0,2.818314430135249
329,5330.0,2.700304038124041
330,5350.0,2.7659636461128327
331,5370.0,2.749948254101625
332,5390.0,2.716752862090417
333,5410.0,2.690766470079209
334,5430.0,2.6948920780680012
335,5450.0,2.709926686056793
336,5470.0,2.675991294045585
337,5490.0,2.667365902034377
338,5510.0,2.647657510023169
339,5530.0,2.664535118011961
340,5550.0,2.665889726000753
341,5570.0,2.636944333989545
342,5590.0,2.604672941978337
343,5610.0,2.6254235499671292
344,5630.0,2.6053481579559215
345,5650.0,2.6054127659447133
346,5670.0,2.572220373933505
347,5690.0,2.590581981922297
348,5710.0,2.5498015899110893
349,5730.0,2.6130611978998814
350,5750.0,2.561565805888673
351,5754.399369999999,2.561661405956056
352,5770.0,2.5641641691855233
353,5790.0,2.518221710416829
354,5810.0,2.548221251648134
355,5830.0,2.5680497928794397
356,5850.0,2.5287683341107456
357,5870.0,2.519036875342051
358,5890.0,2.404164416573357
359,5910.0,2.4879339578046626
360,5930.0,2.487632499035968
361,5950.0,2.4786410402672736
362,5970.0,2.4868495814985794
363,5990.0,2.460668122729885
364,6010.0,2.4400396639611905
365,6030.0,2.4576552051924963
366,6050.0,2.465853746423802
367,6070.0,2.4563122876551073
368,6090.0,2.4120308288864134
369,6110.0,2.406737370117719
370,6130.0,2.3489629113490245
371,6150.0,2.36214845258033
372,6170.0,2.313613993811636
373,6190.0,2.3596925350429414
374,6210.0,2.3433130762742467
375,6230.0,2.3066046175055526
376,6250.0,2.268972158736858
377,6270.0,2.303964699968164
378,6290.0,2.3132702411994694
379,6310.0,2.2787807824307746
380,6330.0,2.283650323662081
381,6350.0,2.2709668648933863
382,6370.0,2.259388406124692
383,6390.0,2.2740539473559975
384,6410.0,2.2482484885873033
385,6430.0,2.248868029818609
386,6450.0,2.2339675710499147
387,6470.0,2.2259011122812202
388,6490.0,2.199173653512526
389,6510.0,2.2206741947438315
390,6530.0,2.207066735975137
391,6550.0,2.1624122772064425
392,6570.0,2.084863818437748
393,6590.0,2.169749359669054
394,6606.93448,2.1766904145705896
395,6610.0,2.1782614310506085
396,6630.0,2.164856023159084
397,6650.0,2.1603226152675585
398,6670.0,2.1341672073760334
399,6690.0,2.1420127994845086
400,6710.0,2.1029233915929835
401,6730.0,2.1203789837014586
402,6750.0,2.099582575809934
403,6770.0,2.099112167918409
404,6790.0,2.0821987600268836
405,6810.0,2.0819123521353586
406,6830.0,2.0860629442438334
407,6850.0,2.0582455363523087
408,6870.0,2.0675701284607837
409,6890.0,2.0746757205692585
410,6910.0,2.0658923126777338
411,6930.0,2.053040904786209
412,6950.0,2.0470284968946837
413,6970.0,2.0521040890031585
414,6990.0,2.042208681111634
415,7010.0,2.0215982732201088
416,7030.0,2.035358865328584
417,7050.0,2.035444457437059
418,7070.0,2.005224049545534
419,7090.0,1.9744476416540087
420,7110.0,1.9477382337624838
421,7130.0,1.927310825870959
422,7150.0,1.920374417979434
423,7170.0,1.923970010087909
424,7190.0,1.8998476021963842
425,7210.0,1.914347194304859
426,7230.0,1.9245957864133336
427,7250.0,1.925234378521809
428,7270.0,1.924581970630284
429,7290.0,1.906003562738759
430,7310.0,1.9236431548472341
431,7330.0,1.921324746955709
432,7350.0,1.923998339064184
433,7370.0,1.939604931172659
434,7390.0,1.917147523281134
435,7410.0,1.9115031153896087
436,7430.0,1.925077707498084
437,7450.0,1.920543299606559
438,7470.0,1.9280198917150342
439,7490.0,1.9207134838235091
440,7510.0,1.9259720759319843
441,7530.0,1.935482668040459
442,7550.0,1.9364922601489343
443,7570.0,1.927152852257409
444,7585.77575,1.909292015155173
445,7590.0,1.9048149388505708
446,7610.0,1.8867569154518518
447,7630.0,1.8668538920531323
448,7650.0,1.846948868654413
449,7670.0,1.804316845255694
450,7690.0,1.8204458218569748
451,7710.0,1.8025747984582554
452,7730.0,1.799485775059536
453,7750.0,1.7906687516608168
454,7770.0,1.7960807282620976
455,7790.0,1.8018627048633784
456,7810.0,1.795448681464659
457,7830.0,1.7853376580659397
458,7850.0,1.7698686346672203
459,7870.0,1.7806416112685013
460,7890.0,1.763322587869782
461,7910.0,1.7423105644710626
462,7930.0,1.7418075410723435
463,7950.0,1.7311445176736244
464,7970.0,1.754665494274905
465,7990.0,1.7513924708761857
466,8010.0,1.7553264474774666
467,8030.0,1.7539014240787472
468,8050.0,1.7508134006800278
469,8070.0,1.7562253772813086
470,8090.0,1.7435273538825895
471,8110.0,1.74838633048387
472,8130.0,1.7685803070851507
473,8150.0,1.7739932836864316
474,8170.0,1.7794052602877124
475,8190.0,1.7506312368889931
476,8210.0,1.7366402134902739
477,8230.0,1.7392801900915547
478,8250.0,1.7354531666928352
479,8270.0,1.7421581432941162
480,8290.0,1.7292761198953968
481,8310.0,1.6953290964966774
482,8330.0,1.6878060730979583
483,8350.0,1.684164049699239
484,8370.0,1.68698802630052
485,8390.0,1.6569200029018007
486,8410.0,1.6782239795030813
487,8430.0,1.636883956104362
488,8450.0,1.6164269327056426
489,8470.0,1.6135229093069234
490,8490.0,1.6152388859082043
491,8510.0,1.5755618625094852
492,8530.0,1.6064748391107657
493,8550.0,1.5292848157120464
494,8570.0,1.6283867923133273
495,8590.0,1.609036768914608
496,8610.0,1.6138947455158887
497,8630.0,1.6353837221171696
498,8650.0,1.6271206987184503
499,8670.0,1.5296046753197308
500,8690.0,1.6054216519210116
501,8709.6359,1.6339584824182651
502,8710.0,1.6345080155000908
503,8730.0,1.6358668480639298
504,8750.0,1.6107986806277685
505,8770.0,1.6372895131916074
506,8790.0,1.649178345755446
507,8810.0,1.6311331783192853
508,8830.0,1.6369270108831242
509,8850.0,1.6277518434469629
510,8870.0,1.5842046760108017
511,8890.0,1.6101395085746408
512,8910.0,1.6218463411384796
513,8930.0,1.6028771737023184
514,8950.0,1.6044210062661572
515,8970.0,1.6044848388299964
516,8990.0,1.6012226713938351
517,9010.0,1.560262503957674
518,9030.0,1.5937753365215128
519,9050.0,1.6272861690853517
520,9070.0,1.6249490016491905
521,9090.0,1.6050558342130294
522,9110.0,1.6145426667768685
523,9130.0,1.6301314993407074
524,9150.0,1.6215103319045463
525,9170.0,1.618063164468385
526,9190.0,1.6253329970322241
527,9210.0,1.5836358295960629
528,9230.0,1.5463726621599019
529,9250.0,1.5543834947237405
530,9270.0,1.5622073272875794
531,9290.0,1.5522931598514185
532,9310.0,1.5566079924152572
533,9330.0,1.5551948249790961
534,9350.0,1.550453657542935
535,9370.0,1.5349964901067739
536,9390.0,1.5465173226706128
537,9410.0,1.5251451552344517
538,9430.0,1.5468299877982905
539,9450.0,1.5315568203621295
540,9470.0,1.5495466529259683
541,9490.0,1.549055485489807
542,9510.0,1.530086318053646
543,9530.0,1.528488150617485
544,9550.0,1.4984309831813238
545,9570.0,1.5182688157451625
546,9590.0,1.5366276483090016
547,9610.0,1.5233854808728404
548,9630.0,1.5251143134366794
549,9650.0,1.509841146000518
550,9670.0,1.507131978564357
551,9690.0,1.519209811128196
552,9710.0,1.5046756436920348
553,9730.0,1.4953144762558737
554,9750.0,1.4896493088197125
555,9770.0,1.4917481413835514
556,9790.0,1.4785079739473903
557,9810.0,1.4966808065112291
558,9830.0,1.4852886390750681
559,9850.0,1.489971471638907
560,9870.0,1.4820893042027459
561,9890.0,1.4791991367665847
562,9910.0,1.4707609693304236
563,9930.0,1.4737828018942625
564,9950.0,1.4732936344581014
565,9970.0,1.4716944670219403
566,9990.0,1.466400299585779
567,10000.0,1.4640302158676985
568,10030.0,1.4581725309073208
569,10070.0,1.443340284293484
570,10130.0,1.4549079143727288
571,10170.0,1.4437696677588918
572,10220.0,1.4438013594915957
573,10280.0,1.4424349895708404
574,10320.0,1.4301887429570037
575,10380.0,1.4208763730362484
576,10430.0,1.4209070647689521
577,10480.0,1.406339756501656
578,10520.0,1.396865509887819
579,10580.0,1.378312139967064
580,10630.0,1.3687348316997678
581,10680.0,1.3569385234324718
582,10720.0,1.359476276818635
583,10780.0,1.3512719068978796
584,10820.0,1.3377326602840427
585,10870.0,1.3322203520167466
586,10920.0,1.3219030437494506
587,10980.0,1.3129596738286953
588,11020.0,1.3092144272148585
589,11080.0,1.294541057294103
590,11130.0,1.2895837490268072
591,11170.0,1.2823275024129699
592,11220.0,1.279216194145674
593,11280.0,1.2658388242249186
594,11330.0,1.2619875159576224
595,11380.0,1.2548112076903264
596,11430.0,1.2444948994230303
597,11470.0,1.2510976528091935
598,11481.5362,1.2498755135645299
599,11530.0,1.2462703489634812
600,11570.0,1.2371351297391957
601,11620.0,1.2258083557088386
602,11670.0,1.2233525816784814
603,11730.0,1.224431252842053
604,11770.0,1.208274033617767
605,11830.0,1.1999297047813386
606,11870.0,1.1878374855570528
607,11920.0,1.1962827115266959
608,11980.0,1.1733403826902673
609,12030.0,1.1838196086599102
610,12070.0,1.1769013894356246
611,12120.0,1.1761066154052675
612,12180.0,1.1758942865688389
613,12230.0,1.1701105125384816
614,12270.0,1.1644862933141962
615,12320.0,1.1581485192838388
616,12370.0,1.1553217452534819
617,12430.0,1.1445754164170534
618,12480.0,1.141010642386696
619,12530.0,1.133563868356339
620,12580.0,1.1298140943259818
621,12620.0,1.1254828751016963
622,12670.0,1.118221101071339
623,12720.0,1.1168733270409819
624,12780.0,1.1144429982045536
625,12830.0,1.0890702241741963
626,12880.0,1.1006584501438392
627,12920.0,1.0933692309195533
628,12980.0,1.097591902083125
629,13020.0,1.0882716828588392
630,13080.0,1.0886123540224109
631,13130.0,1.0748835799920538
632,13180.0,1.0718718059616963
633,13182.5674,1.0717836017007856
634,13230.0,1.0712245681578878
635,13280.0,1.0612112756218497
636,13320.0,1.0618488415930192
637,13380.0,1.0550436905497733
638,13430.0,1.056486398013735
639,13470.0,1.0512109639849045
640,13520.0,1.0472966714488663
641,13570.0,1.0387603789128281
642,13630.0,1.0360212278695822
643,13670.0,1.0375817938407517
644,13730.0,1.0379836427975058
645,13770.0,1.0360342087686751
646,13820.0,1.035813916232637
647,13880.0,1.0303027651893912
648,13930.0,1.0093854726533529
649,13970.0,1.0061420386245223
650,14020.0,1.0000107460884842
651,14080.0,1.0031835950452384
652,14120.0,0.9962441610164077
653,14180.0,1.0005260099731619
654,14230.0,0.9943947174371237
655,14280.0,0.9860434249010854
656,14330.0,0.9941401323650472
657,14380.0,0.9965068398290089
658,14420.0,0.9836534058001785
659,14480.0,0.9920022547569325
660,14520.0,0.9869108207281021
661,14570.0,0.9894625281920637
662,14620.0,0.9790792356560255
663,14670.0,0.9764589431199873
664,14720.0,0.970879650583949
665,14770.0,0.9732473580479108
666,14830.0,0.9745732070046651
667,14880.0,0.9691799144686268
668,14920.0,0.9809034804397962
669,14980.0,0.9752063293965503
670,15030.0,0.968335036860512
671,15070.0,0.9686036028316816
