,lambda (Angstroms),Total Flux (erg/s/cm^2/Angstrom)
0,1005.0,0.44033348569173736
1,1015.0,0.41334421158960316
2,1025.0,0.247206937487469
3,1035.0,0.30873366338533487
4,1045.0,0.5066363892832006
5,1055.0,0.5363791151810665
6,1065.0,0.4574628410789323
7,1075.0,0.5213905669767981
8,1085.0,0.42418229287466397
9,1095.0,0.5298730187725298
10,1096.4782,0.5361544413347523
11,1105.0,0.5723499122758782
12,1115.0,0.562526886015142
13,1125.0,0.5615748597544059
14,1135.0,0.6568978334936697
15,1145.0,0.6001368072329335
16,1155.0,0.6596107809721973
17,1165.0,0.7024537547114611
18,1175.0,0.595984728450725
19,1185.0,0.6558277021899888
20,1195.0,0.3459026759292526
21,1205.0,0.31593764966851645
22,1215.0,0.21187162340778026
23,1225.0,0.3589365971470441
24,1235.0,0.6800755708863079
25,1245.0,0.8173465446255718
26,1255.0,0.7679775183648355
27,1258.92541,0.6861433081634188
28,1265.0,0.5595233785387909
29,1275.0,0.9002814431577543
30,1285.0,0.9867655077767178
31,1295.0,0.7748105723956811
32,1305.0,0.6955386370146446
33,1315.0,0.930225701633608
34,1325.0,0.9202497662525715
35,1335.0,0.756709830871535
36,1345.0,0.9954628954904983
37,1355.0,0.9564729601094617
38,1365.0,0.8319250247284252
39,1375.0,0.9261720893473887
40,1385.0,0.944282153966352
41,1395.0,0.9215572185853155
42,1405.0,0.9271022832042789
43,1415.0,0.8648303478232424
44,1425.0,0.9162034124422058
45,1435.0,0.8687144770611692
46,1442.0,0.9398609222944436
47,1445.43977,0.9685919674238804
48,1447.0,0.9816239028346423
49,1455.0,0.942265289085446
50,1465.0,0.8615130218989505
51,1475.0,0.8365687547124553
52,1485.0,0.87426848752596
53,1495.0,0.9099332203394646
54,1505.0,0.8720529531529692
55,1512.0,0.7685701661224225
56,1517.0,0.8435980325291748
57,1525.0,0.7658014187799784
58,1535.0,0.667863151593483
59,1545.0,0.8035028844069877
60,1555.0,0.7353156172204924
61,1565.0,0.708892350033997
62,1575.0,0.7434500828475017
63,1585.0,0.7979648156610062
64,1595.0,0.8212525484745109
65,1605.0,0.7828152812880156
66,1615.0,0.7894700141015202
67,1625.0,0.7259037469150249
68,1635.0,0.7665594797285294
69,1645.0,0.7809762125420341
70,1655.0,0.6904289453555387
71,1659.58691,0.7269617261854979
72,1665.0,0.7700805901289262
73,1672.0,0.6355624482177435
74,1677.0,0.7549457754240417
75,1685.0,0.8205558989541188
76,1695.0,0.7634675533667151
77,1705.0,0.7152492077793116
78,1715.0,0.6686948621919079
79,1725.0,0.6609465166045042
80,1735.0,0.7043841710171006
81,1745.0,0.6890598254296969
82,1755.0,0.7526404798422933
83,1765.0,0.6523121342548897
84,1775.0,0.693902788667486
85,1785.0,0.6968714430800824
86,1795.0,0.7549090974926788
87,1805.0,0.733854751905275
88,1815.0,0.6847144063178714
89,1825.0,0.6817700607304678
90,1835.0,0.6470407151430642
91,1845.0,0.5905073695556605
92,1855.0,0.5870090239682568
93,1865.0,0.6040226783808532
94,1875.0,0.6585483327934495
95,1885.0,0.610699987206046
96,1895.0,0.5918646416186423
97,1905.0,0.6061062960312387
98,1905.46072,0.6054597978053358
99,1915.0,0.5920463188783637
100,1925.0,0.5864870071997336
101,1935.0,0.5879476955211037
102,1945.0,0.6099233838424737
103,1955.0,0.5779380721638436
104,1967.0,0.6300304981494877
105,1976.0,0.6418408176387207
106,1984.0,0.6050547682958166
107,1995.0,0.5795358254493237
108,2005.0,0.5885735137706937
109,2015.0,0.5556652020920638
110,2025.0,0.5852138904134337
111,2035.0,0.5576655787348037
112,2045.0,0.5824092670561738
113,2055.0,0.5511649553775437
114,2065.0,0.5483766436989138
115,2074.0,0.5845809631881468
116,2078.0,0.5718234385166948
117,2085.0,0.5843770203416537
118,2095.0,0.5492517086630239
119,2105.0,0.5399953969843938
120,2115.0,0.5427510853057638
121,2125.0,0.5492027736271339
122,2135.0,0.4894984619485038
123,2145.0,0.5208951502698739
124,2155.0,0.5375108385912439
125,2165.0,0.5084835269126139
126,2175.0,0.49978121523398394
127,2185.0,0.49255890355535387
128,2187.7616199999998,0.4999027935475595
129,2195.0,0.5191728125325674
130,2205.0,0.49516281771191306
131,2215.0,0.4598798228912588
132,2225.0,0.4414148280706045
133,2235.0,0.4887348332499502
134,2245.0,0.45289783842929593
135,2255.0,0.42962784360864165
136,2265.0,0.44202184878798734
137,2275.0,0.46199185396733305
138,2285.0,0.4802988591466788
139,2295.0,0.4559198643260245
140,2305.0,0.4455838695053702
141,2315.0,0.419726874684716
142,2325.0,0.3153318798640617
143,2335.0,0.3831638850434074
144,2345.0,0.36377389022275314
145,2355.0,0.4105388954020988
146,2365.0,0.36065790058144453
147,2375.0,0.37970490576079025
148,2385.0,0.340541910940136
149,2395.0,0.3773289161194817
150,2405.0,0.3579379212988274
151,2415.0,0.3712559264781731
152,2425.0,0.40564093165751886
153,2435.0,0.38791393683686454
154,2445.0,0.4204509420162103
155,2455.0,0.410113947195556
156,2465.0,0.40920295237490173
157,2475.0,0.3890749575542474
158,2485.0,0.4051639627335931
159,2495.0,0.39335096791293883
160,2505.0,0.43900797309228456
161,2511.88643,0.3860465094580046
162,2513.0,0.37748036851960415
163,2518.0,0.3865328518461996
164,2525.0,0.36379932850343333
165,2535.0,0.3745122951566243
166,2545.0,0.3673002618098153
167,2555.0,0.4059162284630063
168,2565.0,0.38946519511619726
169,2575.0,0.42272216176938826
170,2585.0,0.41421712842257924
171,2595.0,0.40626509507577013
172,2605.0,0.38611906172896115
173,2615.0,0.38020102838215214
174,2625.0,0.4068049950353431
175,2635.0,0.4284209616885341
176,2645.0,0.4796029283417251
177,2655.0,0.49826289499491605
178,2665.0,0.4330258616481071
179,2675.0,0.46092382830129797
180,2685.0,0.46036479495448895
181,2695.0,0.43264176160768
182,2705.0,0.45555072826087095
183,2715.0,0.41969569491406195
184,2725.0,0.41488566156725293
185,2735.0,0.4461106282204439
186,2745.0,0.3673845948736349
187,2755.0,0.3797605615268258
188,2765.0,0.4019305281800168
189,2775.0,0.4255784948332078
190,2785.0,0.3939744614863988
191,2795.0,0.29621442813958976
192,2805.0,0.32596139479278075
193,2815.0,0.42112336144597173
194,2825.0,0.45419732809916274
195,2835.0,0.43460329475235365
196,2845.0,0.41205326140554466
197,2855.0,0.3904282280587356
198,2865.0,0.4478941947119266
199,2875.0,0.4563881613651176
200,2884.0315,0.452044882897947
201,2885.0,0.45157960552156634
202,2895.0,0.4543515025129896
203,2910.0,0.5140393480001246
204,2930.0,0.4850261419829711
205,2950.0,0.47449193596581773
206,2970.0,0.4848407299486643
207,2990.0,0.48668852393151085
208,3010.0,0.49592831791435743
209,3030.0,0.495928111897204
210,3050.0,0.4961129058800506
211,3070.0,0.5023956998628971
212,3090.0,0.5060914938457437
213,3110.0,0.5116342878285903
214,3130.0,0.5005460818114369
215,3150.0,0.5025798757942834
216,3170.0,0.50886166977713
217,3190.0,0.4744894637599765
218,3210.0,0.49758925774282314
219,3230.0,0.4658050517256697
220,3250.0,0.5138508457085162
221,3270.0,0.5421236396913629
222,3290.0,0.5360254336742094
223,3310.0,0.529002227657056
224,3311.31121,0.5289173788634683
225,3330.0,0.5277045340900343
226,3350.0,0.5179075958356754
227,3370.0,0.4759556575813164
228,3390.0,0.48944171932695746
229,3410.0,0.4936877810725985
230,3430.0,0.4960868428182396
231,3450.0,0.5043989045638806
232,3470.0,0.5049489663095217
233,3490.0,0.5226840280551627
234,3510.0,0.5369090898008038
235,3530.0,0.5136231515464448
236,3550.0,0.5442932132920858
237,3570.0,0.4711122750377269
238,3590.0,0.469814336783368
239,3610.0,0.5058443985290091
240,3630.0,0.5160044602746501
241,3640.0,0.5219154911474706
242,3650.0,0.5588725220202911
243,3670.0,0.5616405837659322
244,3690.0,0.5139606455115733
245,3710.0,0.5555347072572143
246,3730.0,0.4910377690028553
247,3750.0,0.5804728307484963
248,3770.0,0.6431128924941374
249,3790.0,0.7201669542397784
250,3801.8939600000003,0.7500559177417886
251,3810.0,0.7704263485690236
252,3830.0,0.5795342308968578
253,3850.0,0.762659113224692
254,3870.0,0.8147689955525262
255,3890.0,0.6327458778803606
256,3910.0,0.8853507602081948
257,3930.0,0.6665546425360291
258,3950.0,0.8121695248638633
259,3970.0,0.5196394071916975
260,3990.0,0.9392972895195318
261,4010.0,1.0233741718473661
262,4030.0,1.0167210541752003
263,4050.0,0.9997159365030345
264,4070.0,0.9564708188308687
265,4090.0,0.9433487011587031
266,4110.0,0.8167635834865373
267,4130.0,0.9706904658143716
268,4150.0,0.9923083481422058
269,4170.0,0.99138223047004
270,4190.0,0.9834331127978743
271,4210.0,0.9865699951257085
272,4230.0,0.9545988774535428
273,4250.0,0.981574759781377
274,4270.0,0.9390706421092112
275,4290.0,0.9172625244370456
276,4310.0,0.8389064067648798
277,4330.0,0.8854702890927141
278,4350.0,0.8268891714205483
279,4365.15832,0.9735223328389266
280,4370.0,1.0203592401826738
281,4390.0,0.9636350234304002
282,4410.0,0.9882138066781267
283,4430.0,1.0118645899258534
284,4450.0,1.0216563731735797
285,4470.0,1.0523481564213062
286,4490.0,1.0586199396690328
287,4510.0,1.1532417229167593
288,4530.0,1.0492035061644858
289,4550.0,1.0689752894122122
290,4570.0,1.1308870726599387
291,4590.0,1.0796988559076655
292,4610.0,1.0994806391553917
293,4630.0,1.0682424224031184
294,4650.0,1.081744205650845
295,4670.0,1.1087159888985714
296,4690.0,1.085067772146298
297,4710.0,1.0481095553940245
298,4730.0,1.085991338641751
299,4750.0,1.1061331218894774
300,4770.0,1.095054905137204
301,4790.0,1.0919066883849304
302,4810.0,1.079908471632657
303,4830.0,1.0941302548803835
304,4850.0,0.9777210381281101
305,4870.0,0.8609338213758365
306,4890.0,1.044795604623563
307,4910.0,1.0557073878712895
308,4930.0,1.0359291711190162
309,4950.0,1.0745509543667426
310,4970.0,1.0581127376144692
311,4990.0,0.9954725208621956
312,5010.0,0.9463203041099221
313,5011.87234,0.9506626147462243
314,5030.0,0.9927044121526025
315,5050.0,0.984392553742171
316,5070.0,1.0206126953317396
317,5090.0,0.9736778369213084
318,5110.0,0.9906819785108769
319,5130.0,0.9583431201004455
320,5150.0,0.9278562616900142
321,5170.0,0.8744534032795828
322,5190.0,0.8933035448691513
323,5210.0,0.94153568645872
324,5230.0,0.9882908280482886
325,5250.0,1.0213619696378573
326,5270.0,0.9191831112274257
327,5290.0,1.0267362528169943
328,5310.0,1.071078394406563
329,5330.0,0.9626155359961316
330,5350.0,1.0378226775857
331,5370.0,1.0313548191752686
332,5390.0,1.0077069607648375
333,5410.0,0.991268102354406
334,5430.0,1.0049412439439747
335,5450.0,1.0295233855335433
336,5470.0,1.0051355271231117
337,5490.0,1.0060576687126803
338,5510.0,0.9958968103022491
339,5530.0,1.0223219518918176
340,5550.0,1.0332240934813863
341,5570.0,1.0138262350709548
342,5590.0,0.9911023766605235
343,5610.0,1.021400518250092
344,5630.0,1.0108726598396607
345,5650.0,1.0204848014292291
346,5670.0,0.9968399430187979
347,5690.0,1.0247490846083664
348,5710.0,0.9935162261979351
349,5730.0,1.0663233677875037
350,5750.0,1.0243755093770721
351,5754.399369999999,1.0265712660893167
352,5770.0,1.0343602351797436
353,5790.0,0.9951946897292414
354,5810.0,1.0319711442787391
355,5830.0,1.0585765988282367
356,5850.0,1.0260720533777343
357,5870.0,1.023117507927232
358,5890.0,0.9150219624767295
359,5910.0,1.0055684170262273
360,5930.0,1.012043871575725
361,5950.0,1.0098293261252225
362,5970.0,1.02481478067472
363,5990.0,1.0054102352242178
364,6010.0,0.9915586897737153
365,6030.0,1.015951144323213
366,6050.0,1.0309265988727108
367,6070.0,1.0281620534222082
368,6090.0,0.9906575079717059
369,6110.0,0.9921409625212035
370,6130.0,0.9411434170707011
371,6150.0,0.9611058716201988
372,6170.0,0.9193483261696964
373,6190.0,0.9722037807191941
374,6210.0,0.9626012352686917
375,6230.0,0.9326696898181893
376,6250.0,0.9018141443676869
377,6270.0,0.9435835989171846
378,6290.0,0.9596660534666822
379,6310.0,0.9319535080161798
380,6330.0,0.9435999625656775
381,6350.0,0.9376934171151752
382,6370.0,0.9328918716646728
383,6390.0,0.9543343262141704
384,6410.0,0.935305780763668
385,6430.0,0.9427022353131657
386,6450.0,0.9345786898626632
387,6470.0,0.9332891444121609
388,6490.0,0.9133385989616586
389,6510.0,0.9416160535111562
390,6530.0,0.9347855080606537
391,6550.0,0.8969079626101514
392,6570.0,0.826136417159649
393,6590.0,0.9177988717091466
394,6606.93448,0.9304781017631154
395,6610.0,0.9327724950183053
396,6630.0,0.9240865264073669
397,6650.0,0.9242725577964285
398,6670.0,0.9028365891854899
399,6690.0,0.9154016205745514
400,6710.0,0.881031651963613
401,6730.0,0.9032066833526745
402,6750.0,0.8871297147417361
403,6770.0,0.8913787461307976
404,6790.0,0.8791847775198591
405,6810.0,0.8836178089089207
406,6830.0,0.8924878402979821
407,6850.0,0.8693898716870437
408,6870.0,0.8834339030761051
409,6890.0,0.8952589344651668
410,6910.0,0.8911949658542283
411,6930.0,0.8830629972432898
412,6950.0,0.8817700286323513
413,6970.0,0.8915650600214128
414,6990.0,0.8863890914104744
415,7010.0,0.870498122799536
416,7030.0,0.8889781541885974
417,7050.0,0.893783185577659
418,7070.0,0.8682822169667205
419,7090.0,0.842225248355782
420,7110.0,0.8202352797448436
421,7130.0,0.8045273111339051
422,7150.0,0.8023103425229666
423,7170.0,0.8106253739120283
424,7190.0,0.7912224053010897
425,7210.0,0.8104414366901512
426,7230.0,0.8254094680792127
427,7250.0,0.8307674994682743
428,7270.0,0.8348345308573358
429,7290.0,0.8209755622463973
430,7310.0,0.8433345936354589
431,7330.0,0.8457356250245204
432,7350.0,0.8531286564135819
433,7370.0,0.8734546878026435
434,7390.0,0.855716719191705
435,7410.0,0.8547917505807665
436,7430.0,0.8730857819698281
437,7450.0,0.8732708133588896
438,7470.0,0.8854668447479511
439,7490.0,0.8828798761370126
440,7510.0,0.8928579075260742
441,7530.0,0.9070879389151357
442,7550.0,0.9128169703041972
443,7570.0,0.9081970016932588
444,7585.77575,0.8940587993025583
445,7590.0,0.890273495206203
446,7610.0,0.8754907145523351
447,7630.0,0.858862933898467
448,7650.0,0.842233153244599
449,7670.0,0.8028763725907311
450,7690.0,0.8222805919368631
451,7710.0,0.8076848112829951
452,7730.0,0.807871030629127
453,7750.0,0.8023292499752591
454,7770.0,0.8110164693213912
455,7790.0,0.8200736886675231
456,7810.0,0.8169349080136551
457,7830.0,0.8100991273597872
458,7850.0,0.7979053467059192
459,7870.0,0.8119535660520512
460,7890.0,0.7979097853981831
461,7910.0,0.7801730047443152
462,7930.0,0.7829452240904472
463,7950.0,0.7755574434365792
464,7970.0,0.8023536627827111
465,7990.0,0.8023558821288432
466,8010.0,0.8095651014749753
467,8030.0,0.8114153208211072
468,8050.0,0.8116025401672392
469,8070.0,0.8202897595133712
470,8090.0,0.8108669788595033
471,8110.0,0.8190011982056352
472,8130.0,0.8424704175517672
473,8150.0,0.8511586368978993
474,8170.0,0.8598458562440313
475,8190.0,0.8343470755901633
476,8210.0,0.8236312949362953
477,8230.0,0.8295465142824274
478,8250.0,0.8289947336285594
479,8270.0,0.8389749529746914
480,8290.0,0.8293681723208233
481,8310.0,0.7986963916669554
482,8330.0,0.7944486110130874
483,8350.0,0.7940818303592194
484,8370.0,0.8001810497053513
485,8390.0,0.7733882690514835
486,8410.0,0.7979674883976154
487,8430.0,0.7599027077437475
488,8450.0,0.7427209270898794
489,8470.0,0.7430921464360115
490,8490.0,0.7480833657821435
491,8510.0,0.7116815851282755
492,8530.0,0.7458698044744074
493,8550.0,0.6719550238205395
494,8570.0,0.7743322431666715
495,8590.0,0.7582574625128035
496,8610.0,0.7663906818589354
497,8630.0,0.7911549012050676
498,8650.0,0.7861671205511995
499,8670.0,0.6919263398973315
500,8690.0,0.7710185592434635
501,8709.6359,0.8027710066913981
502,8710.0,0.8033598538981827
503,8730.0,0.8068782099423132
504,8750.0,0.7839695659864436
505,8770.0,0.8126199220305742
506,8790.0,0.8266682780747047
507,8810.0,0.8107826341188353
508,8830.0,0.8187359901629657
509,8850.0,0.8117203462070963
510,8870.0,0.7703327022512267
511,8890.0,0.7984270582953573
512,8910.0,0.8122934143394878
513,8930.0,0.7954837703836184
514,8950.0,0.7991871264277488
515,8970.0,0.8014104824718794
516,8990.0,0.8003078385160098
517,9010.0,0.7615071945601405
518,9030.0,0.7971795506042709
519,9050.0,0.8328499066484015
520,9070.0,0.8326722626925319
521,9090.0,0.8149386187366625
522,9110.0,0.8265849747807931
523,9130.0,0.8443333308249236
524,9150.0,0.8378716868690541
525,9170.0,0.8365840429131846
526,9190.0,0.8460133989573152
527,9210.0,0.8064757550014456
528,9230.0,0.7713721110455762
529,9250.0,0.7815424670897066
530,9270.0,0.7915258231338372
531,9290.0,0.7837711791779677
532,9310.0,0.7902455352220983
533,9330.0,0.7909918912662287
534,9350.0,0.7884102473103594
535,9370.0,0.7751126033544897
536,9390.0,0.7887929593986204
537,9410.0,0.7695803154427509
538,9430.0,0.7934246714868813
539,9450.0,0.7803110275310119
540,9470.0,0.8004603835751424
541,9490.0,0.8021287396192729
542,9510.0,0.7853190956634034
543,9530.0,0.7858804517075341
544,9550.0,0.7579828077516645
545,9570.0,0.779980163795795
546,9590.0,0.8004985198399255
547,9610.0,0.7894158758840562
548,9630.0,0.7933042319281866
549,9650.0,0.7801905879723171
550,9670.0,0.7796409440164476
551,9690.0,0.7938783000605781
552,9710.0,0.7815036561047086
553,9730.0,0.7743020121488392
554,9750.0,0.7707963681929697
555,9770.0,0.7750547242371002
556,9790.0,0.7639740802812307
557,9810.0,0.7843064363253612
558,9830.0,0.7750737923694917
559,9850.0,0.7819161484136223
560,9870.0,0.7761935044577528
561,9890.0,0.7754628605018834
562,9910.0,0.7691842165460138
563,9930.0,0.7743655725901444
564,9950.0,0.776035928634275
565,9970.0,0.7765962846784055
566,9990.0,0.773461640722536
567,10000.0,0.7721713187446011
568,10030.0,0.7683003780275037
569,10070.0,0.7561171237380405
570,10130.0,0.7716582423038457
571,10170.0,0.7631689880143824
572,10220.0,0.7665119201525533
573,10280.0,0.7691190387183585
574,10320.0,0.7595217844288953
575,10380.0,0.7541829029947004
576,10430.0,0.7575248351328713
577,10480.0,0.7462687672710423
578,10520.0,0.7394435129815791
579,10580.0,0.7248636315473841
580,10630.0,0.718597563685555
581,10680.0,0.710112495823726
582,10720.0,0.7152992415342628
583,10780.0,0.7110683601000679
584,10820.0,0.7001781058106047
585,10870.0,0.6979770379487756
586,10920.0,0.6909709700869465
587,10980.0,0.6860010886527517
588,11020.0,0.6849048343632884
589,11080.0,0.6742049529290935
590,11130.0,0.6725588850672645
591,11170.0,0.6679516307778012
592,11220.0,0.6681515629159722
593,11280.0,0.6587476814817773
594,11330.0,0.6582076136199482
595,11380.0,0.6543425457581192
596,11430.0,0.6473374778962901
597,11470.0,0.6565892236068269
598,11481.5362,0.6561310669934742
599,11530.0,0.6542205660712558
600,11570.0,0.6464840515947033
601,11620.0,0.6369056584990129
602,11670.0,0.6361982654033226
603,11730.0,0.639374993688494
604,11770.0,0.6246164792119417
605,11830.0,0.6183702074971131
606,11870.0,0.6076766930205608
607,11920.0,0.6178702999248704
608,11980.0,0.5970260282100418
609,12030.0,0.6092536351143514
610,12070.0,0.6037341206377991
611,12120.0,0.6046877275421086
612,12180.0,0.6065734558272801
613,12230.0,0.6025380627315896
614,12270.0,0.5983125482550373
615,12320.0,0.5937231551593469
616,12370.0,0.5926447620636565
617,12430.0,0.583996490348828
618,12480.0,0.5821800972531375
619,12530.0,0.576481704157447
620,12580.0,0.5744803110617566
621,12620.0,0.5715477965852043
622,12670.0,0.5660344034895138
623,12720.0,0.5664350103938234
624,12780.0,0.5661027386789949
625,12830.0,0.5424783455833044
626,12880.0,0.5558149524876139
627,12920.0,0.5499244380110616
628,12980.0,0.5562451662962331
629,13020.0,0.5483236518196808
630,13080.0,0.5507623801048522
631,13130.0,0.5387819870091617
632,13180.0,0.5375185939134713
633,13182.5674,0.5375201655167939
634,13230.0,0.5375630431913054
635,13280.0,0.5281842417198612
636,13320.0,0.5293294005427057
637,13380.0,0.5232856387769728
638,13430.0,0.5253628373055285
639,13470.0,0.5205949961283732
640,13520.0,0.517315194656929
641,13570.0,0.5094133931854847
642,13630.0,0.5074356314197518
643,13670.0,0.5095037902425963
644,13730.0,0.5106670284768633
645,13770.0,0.509225187299708
646,13820.0,0.5096393858282637
647,13880.0,0.5048896240625308
648,13930.0,0.48460682259108645
649,13970.0,0.4818709814139311
650,14020.0,0.47637417994248693
651,14080.0,0.48030841817675385
652,14120.0,0.4738765769995985
653,14180.0,0.47891981523386545
654,14230.0,0.47342301376242124
655,14280.0,0.46570621229097703
656,14330.0,0.47443741081953283
657,14380.0,0.4774386093480886
658,14420.0,0.46509276817093326
659,14480.0,0.47420300640520024
660,14520.0,0.46961916522804487
661,14570.0,0.47280536375660065
