,lambda (Angstroms),Total Flux (erg/s/cm^2/Angstrom)
0,1005.0,0.4398489904611582
1,1015.0,0.4128628077264021
2,1025.0,0.246728624991646
3,1035.0,0.3082584422568899
4,1045.0,0.5061642595221337
5,1055.0,0.5359100767873777
6,1065.0,0.45699689405262156
7,1075.0,0.5209277113178654
8,1085.0,0.4237225285831093
9,1095.0,0.5294163458483532
10,1096.4782,0.5356982253765016
11,1105.0,0.5719019415172522
12,1115.0,0.5620885906767614
13,1125.0,0.5611462398362705
14,1135.0,0.6564788889957798
15,1145.0,0.599727538155289
16,1155.0,0.6592111873147982
17,1165.0,0.7020638364743075
18,1175.0,0.5956044856338166
19,1185.0,0.6554571347933258
20,1195.0,0.3455417839528351
21,1205.0,0.3155864331123443
22,1215.0,0.21153008227185352
23,1225.0,0.35860473143136273
24,1235.0,0.6797533805908719
25,1245.0,0.8170340297503812
26,1255.0,0.7676746789098904
27,1258.92541,0.6858442667076122
28,1265.0,0.5592239190258605
29,1275.0,0.8999812954385028
30,1285.0,0.9864646718511452
31,1295.0,0.7745090482637874
32,1305.0,0.6952364246764298
33,1315.0,0.929922801089072
34,1325.0,0.9199461775017144
35,1335.0,0.7564055539143566
36,1345.0,0.9951579303269988
37,1355.0,0.9561673067396411
38,1365.0,0.8316186831522835
39,1375.0,0.9258650595649258
40,1385.0,0.943974435977568
41,1395.0,0.9212488123902103
42,1405.0,0.9267931888028526
43,1415.0,0.8645205652154949
44,1425.0,0.9158929416281372
45,1435.0,0.8684033180407795
46,1442.0,0.9395492815296291
47,1445.43977,0.9682800899319202
48,1447.0,0.9813119352230948
49,1455.0,0.9419528593902974
50,1465.0,0.8612000145993004
51,1475.0,0.8362551698083035
52,1485.0,0.8739543250173066
53,1495.0,0.9096184802263098
54,1505.0,0.8717376354353127
55,1512.0,0.768254444081615
56,1517.0,0.8432820216861165
57,1525.0,0.7654849458533189
58,1535.0,0.667546101062322
59,1545.0,0.8031852562713251
60,1555.0,0.7349974114803283
61,1565.0,0.7085735666893314
62,1575.0,0.7431307218983345
63,1585.0,0.7976448771073374
64,1595.0,0.8209320323163406
65,1605.0,0.7824941875253437
66,1615.0,0.7891483427343468
67,1625.0,0.7255814979433499
68,1635.0,0.766236653152353
69,1645.0,0.7806528083613561
70,1655.0,0.6901049635703591
71,1659.58691,0.726637479458332
72,1665.0,0.7697540600859508
73,1672.0,0.6352329654784957
74,1677.0,0.7546141836160278
75,1685.0,0.8202209326360792
76,1695.0,0.7631283689111434
77,1705.0,0.7149058051862077
78,1715.0,0.668347241461272
79,1725.0,0.6605946777363362
80,1735.0,0.7040281140114004
81,1745.0,0.6886995502864647
82,1755.0,0.7522759865615288
83,1765.0,0.651943422836593
84,1775.0,0.6935298591116573
85,1785.0,0.6964942953867216
86,1795.0,0.7545277316617859
87,1805.0,0.73346916793685
88,1815.0,0.6843246042119142
89,1825.0,0.6813760404869785
90,1835.0,0.6466424767620428
91,1845.0,0.590104913037107
92,1855.0,0.5866023493121713
93,1865.0,0.6036117855872355
94,1875.0,0.6581332218622997
95,1885.0,0.610280658137364
96,1895.0,0.5914410944124281
97,1905.0,0.6056785306874924
98,1905.46072,0.6050318381235572
99,1915.0,0.5916235459189091
100,1925.0,0.586069671466489
101,1935.0,0.5875357970140691
102,1945.0,0.6095169225616491
103,1955.0,0.5775370481092291
104,1967.0,0.6296359987663251
105,1976.0,0.6414512117591471
106,1984.0,0.6046695121972111
107,1995.0,0.5791565502995492
108,2005.0,0.5881996758471291
109,2015.0,0.5552968013947092
110,2025.0,0.5848509269422891
111,2035.0,0.5573080524898691
112,2045.0,0.5820571780374492
113,2055.0,0.5508183035850291
114,2065.0,0.5480354291326092
115,2074.0,0.5842446421254311
116,2078.0,0.5714892923444632
117,2085.0,0.5840466802277692
118,2095.0,0.5489268057753492
119,2105.0,0.5396759313229292
120,2115.0,0.5424370568705092
121,2125.0,0.5488941824180893
122,2135.0,0.48919530796566923
123,2145.0,0.5205974335132492
124,2155.0,0.5372185590608293
125,2165.0,0.5081966846084093
126,2175.0,0.49949981015598927
127,2185.0,0.49228293570356924
128,2187.7616199999998,0.49962832725103945
129,2195.0,0.5188952083550449
130,2205.0,0.4948808784746087
131,2215.0,0.4595935485941725
132,2225.0,0.44112421871373636
133,2235.0,0.48843988883330014
134,2245.0,0.45259855895286394
135,2255.0,0.4293242290724278
136,2265.0,0.44171389919199155
137,2275.0,0.4616795693115554
138,2285.0,0.47998223943111923
139,2295.0,0.455598909550683
140,2305.0,0.44525857967024685
141,2315.0,0.41939724978981063
142,2325.0,0.3149979199093744
143,2335.0,0.3828255900289383
144,2345.0,0.3634312601485021
145,2355.0,0.41019193026806583
146,2365.0,0.3603066003876297
147,2375.0,0.37934927050719347
148,2385.0,0.34018194062675733
149,2395.0,0.37696461074632115
150,2405.0,0.3575692808658849
151,2415.0,0.37088295098544877
152,2425.0,0.4052636211050126
153,2435.0,0.38753229122457633
154,2445.0,0.42006496134414023
155,2455.0,0.409723631463704
156,2465.0,0.4088083015832678
157,2475.0,0.38867597170283164
158,2485.0,0.4047606418223954
159,2495.0,0.39294331194195925
160,2505.0,0.43859598206152306
161,2511.88643,0.3856315331186697
162,2513.0,0.3770655790130695
163,2518.0,0.3861189012307997
164,2525.0,0.3633865523356222
165,2535.0,0.3741011967710829
166,2545.0,0.3668908412065435
167,2555.0,0.4055084856420042
168,2565.0,0.38905913007746484
169,2575.0,0.4223177745129255
170,2585.0,0.41381441894838616
171,2595.0,0.4058640633838468
172,2605.0,0.3857197078193075
173,2615.0,0.3798033522547681
174,2625.0,0.40640899669022873
175,2635.0,0.4280266411256894
176,2645.0,0.47921028556115003
177,2655.0,0.4978719299966107
178,2665.0,0.4326365744320714
179,2675.0,0.460536218867532
180,2685.0,0.45997886330299265
181,2695.0,0.43225750773845334
182,2705.0,0.455168152173914
183,2715.0,0.41931479660937465
184,2725.0,0.4145064410448353
185,2735.0,0.4457330854802959
186,2745.0,0.36700872991575656
187,2755.0,0.3793863743512172
188,2765.0,0.40155801878667785
189,2775.0,0.42520766322213854
190,2785.0,0.3936053076575992
191,2795.0,0.29584695209305983
192,2805.0,0.3255955965285205
193,2815.0,0.42075924096398115
194,2825.0,0.45383488539944183
195,2835.0,0.43424252983490247
196,2845.0,0.41169417427036314
197,2855.0,0.3900708187058237
198,2865.0,0.44753846314128437
199,2875.0,0.45603410757674506
200,2884.0315,0.4516923443986313
201,2885.0,0.4512270703477109
202,2895.0,0.4539990016753264
203,2910.0,0.5136868986667498
204,2930.0,0.48467376132198076
205,2950.0,0.4741396239772118
206,2970.0,0.48448848663244287
207,2990.0,0.48633634928767394
208,3010.0,0.4955762119429049
209,3030.0,0.49557607459813596
210,3050.0,0.49576093725336706
211,3070.0,0.502043799908598
212,3090.0,0.5057396625638292
213,3110.0,0.5112825252190601
214,3130.0,0.5001943878742913
215,3150.0,0.5022282505295222
216,3170.0,0.5085101131847534
217,3190.0,0.47413797583998435
218,3210.0,0.4972378384952154
219,3230.0,0.4654537011504465
220,3250.0,0.5134995638056774
221,3270.0,0.5417724264609086
222,3290.0,0.5356742891161396
223,3310.0,0.5286511517713707
224,3311.31121,0.5285663074799789
225,3330.0,0.5273546893933562
226,3350.0,0.5175590638904503
227,3370.0,0.4756084383875443
228,3390.0,0.4890958128846383
229,3410.0,0.49334318738173233
230,3430.0,0.4957435618788264
231,3450.0,0.5040569363759204
232,3470.0,0.5046083108730145
233,3490.0,0.5223446853701085
234,3510.0,0.5365710598672025
235,3530.0,0.5132864343642966
236,3550.0,0.5439578088613906
237,3570.0,0.4707781833584846
238,3590.0,0.46948155785557866
239,3610.0,0.5055129323526727
240,3630.0,0.5156743068497667
241,3640.0,0.5215859940983137
242,3650.0,0.5585436813468607
243,3670.0,0.5613130558439547
244,3690.0,0.5136344303410488
245,3710.0,0.5552098048381429
246,3730.0,0.49071417933523687
247,3750.0,0.5801505538323308
248,3770.0,0.6427919283294249
249,3790.0,0.719847302826519
250,3801.8939600000003,0.7497370470191926
251,3810.0,0.7701078990460157
252,3830.0,0.5792168205979052
253,3850.0,0.7623427421497947
254,3870.0,0.8144536637016841
255,3890.0,0.6324315852535737
256,3910.0,0.8850375068054631
257,3930.0,0.6662424283573527
258,3950.0,0.8118583499092422
259,3970.0,0.5193292714611317
260,3990.0,0.9389881930130213
261,4010.0,1.0230661145649107
262,4030.0,1.0164140361168001
263,4050.0,0.9994099576686897
264,4070.0,0.9561658792205792
265,4090.0,0.9430448007724687
266,4110.0,0.8164607223243582
267,4130.0,0.9703886438762477
268,4150.0,0.9920075654281372
269,4170.0,0.9910824869800267
270,4190.0,0.9831344085319161
271,4210.0,0.9862723300838057
272,4230.0,0.9543022516356953
273,4250.0,0.9812791731875847
274,4270.0,0.9387760947394742
275,4290.0,0.9169690162913637
276,4310.0,0.8386139378432532
277,4330.0,0.8851788593951427
278,4350.0,0.8265987809470322
279,4365.15832,0.9732327300099496
280,4370.0,1.0200694934551158
281,4390.0,0.9633446822869334
282,4410.0,0.9879228711187512
283,4430.0,1.0115730599505688
284,4450.0,1.0213642487823866
285,4470.0,1.0520554376142042
286,4490.0,1.0583266264460218
287,4510.0,1.1529478152778396
288,4530.0,1.0489090041096572
289,4550.0,1.0686801929414749
290,4570.0,1.1305913817732924
291,4590.0,1.0794025706051102
292,4610.0,1.0991837594369278
293,4630.0,1.0679449482687455
294,4650.0,1.0814461371005633
295,4670.0,1.108417325932381
296,4690.0,1.0847685147641988
297,4710.0,1.0478097035960163
298,4730.0,1.0856908924278341
299,4750.0,1.1058320812596516
300,4770.0,1.0947532700914693
301,4790.0,1.091604458923287
302,4810.0,1.0796056477551046
303,4830.0,1.0938268365869224
304,4850.0,0.9774170254187401
305,4870.0,0.8606292142505577
306,4890.0,1.0444904030823754
307,4910.0,1.055401591914193
308,4930.0,1.0356227807460108
309,4950.0,1.0742439695778285
310,4970.0,1.0578051584096462
311,4990.0,0.9951643472414637
312,5010.0,0.9460115360732814
313,5011.87234,0.9503537910621495
314,5030.0,0.9923949414350683
315,5050.0,0.9840823691614474
316,5070.0,1.0203017968878265
317,5090.0,0.9733662246142056
318,5110.0,0.9903696523405846
319,5130.0,0.9580300800669638
320,5150.0,0.9275425077933428
321,5170.0,0.8741389355197219
322,5190.0,0.8929883632461009
323,5210.0,0.94121979097248
324,5230.0,0.987974218698859
325,5250.0,1.021044646425238
326,5270.0,0.9188650741516171
327,5290.0,1.0264175018779962
328,5310.0,1.0707589296043754
329,5330.0,0.9622953573307544
330,5350.0,1.0375017850571333
331,5370.0,1.0310332127835125
332,5390.0,1.0073846405098916
333,5410.0,0.9909450682362707
334,5430.0,1.0046174959626497
335,5450.0,1.0291989236890289
336,5470.0,1.0048103514154079
337,5490.0,1.005731779141787
338,5510.0,0.9955702068681661
339,5530.0,1.021994634594545
340,5550.0,1.0328960623209242
341,5570.0,1.0134974900473033
342,5590.0,0.9907729177736824
343,5610.0,1.0210703455000614
344,5630.0,1.0105417732264406
345,5650.0,1.0201532009528196
346,5670.0,0.9965076286791986
347,5690.0,1.0244160564055775
348,5710.0,0.9931824841319568
349,5730.0,1.0659889118583359
350,5750.0,1.0240403395847146
351,5754.399369999999,1.0262359392695444
352,5770.0,1.034023490119829
353,5790.0,0.994856126486161
354,5810.0,1.0316307628524928
355,5830.0,1.0582343992188243
356,5850.0,1.0257280355851561
357,5870.0,1.022771671951488
358,5890.0,0.9146743083178197
359,5910.0,1.0052189446841515
360,5930.0,1.0116925810504833
361,5950.0,1.0094762174168148
362,5970.0,1.0244598537831466
363,5990.0,1.0050534901494785
364,6010.0,0.9912001265158102
365,6030.0,1.015590762882142
366,6050.0,1.0305643992484739
367,6070.0,1.0277980356148053
368,6090.0,0.9902916719811372
369,6110.0,0.991773308347469
370,6130.0,0.9407739447138007
371,6150.0,0.9607345810801324
372,6170.0,0.9189752174464643
373,6190.0,0.971828853812796
374,6210.0,0.9622244901791277
375,6230.0,0.9322911265454595
376,6250.0,0.9014337629117912
377,6270.0,0.9432013992781231
378,6290.0,0.9592820356444548
379,6310.0,0.9315676720107865
380,6330.0,0.9432123083771183
381,6350.0,0.9373039447434501
382,6370.0,0.9325005811097818
383,6390.0,0.9539412174761136
384,6410.0,0.9349108538424453
385,6430.0,0.9423054902087771
386,6450.0,0.9341801265751088
387,6470.0,0.9328887629414406
388,6490.0,0.9129363993077724
389,6510.0,0.9412120356741042
390,6530.0,0.9343796720404358
391,6550.0,0.8965003084067676
392,6570.0,0.8257269447730994
393,6590.0,0.9173875811394311
394,6606.93448,0.9300652716940769
395,6610.0,0.9323596633455369
396,6630.0,0.9236736842715779
397,6650.0,0.923859705197619
398,6670.0,0.90242372612366
399,6690.0,0.9149887470497009
400,6710.0,0.880618767975742
401,6730.0,0.902793788901783
402,6750.0,0.886716809827824
403,6770.0,0.8909658307538652
404,6790.0,0.8787718516799061
405,6810.0,0.8832048726059472
406,6830.0,0.8920748935319881
407,6850.0,0.8689769144580292
408,6870.0,0.8830209353840701
409,6890.0,0.8948459563101112
410,6910.0,0.8907819772361522
411,6930.0,0.8826499981621933
412,6950.0,0.8813570190882342
413,6970.0,0.8911520400142752
414,6990.0,0.8859760609403162
415,7010.0,0.8700850818663572
416,7030.0,0.8885651027923983
417,7050.0,0.8933701237184394
418,7070.0,0.8678691446444804
419,7090.0,0.8418121655705214
420,7110.0,0.8198221864965624
421,7130.0,0.8041142074226034
422,7150.0,0.8018972283486444
423,7170.0,0.8102122492746855
424,7190.0,0.7908092702007264
425,7210.0,0.8100282911267674
426,7230.0,0.8249963120528084
427,7250.0,0.8303543329788495
428,7270.0,0.8344213539048905
429,7290.0,0.8205623748309315
430,7310.0,0.8429213957569727
431,7330.0,0.8453224166830137
432,7350.0,0.8527154376090547
433,7370.0,0.8730414585350956
434,7390.0,0.8553034794611367
435,7410.0,0.8543785003871777
436,7430.0,0.8726725213132187
437,7450.0,0.8728575422392597
438,7470.0,0.8850535631653007
439,7490.0,0.8824665840913417
440,7510.0,0.8924446050173828
441,7530.0,0.9066746259434237
442,7550.0,0.9124036468694647
443,7570.0,0.9077836677955059
444,7585.77575,0.8936454571517055
445,7590.0,0.8898599968041353
446,7610.0,0.8750764763682234
447,7630.0,0.8584479559323114
448,7650.0,0.8418174354963994
449,7670.0,0.8024599150604873
450,7690.0,0.8218633946245754
451,7710.0,0.8072668741886634
452,7730.0,0.8074523537527514
453,7750.0,0.8019098333168394
454,7770.0,0.8105963128809275
455,7790.0,0.8196527924450153
456,7810.0,0.8165132720091034
457,7830.0,0.8096767515731914
458,7850.0,0.7974822311372795
459,7870.0,0.8115297107013675
460,7890.0,0.7974851902654555
461,7910.0,0.7797476698295434
462,7930.0,0.7825191493936314
463,7950.0,0.7751306289577194
464,7970.0,0.8019261085218075
465,7990.0,0.8019275880858955
466,8010.0,0.8091360676499836
467,8030.0,0.8109855472140715
468,8050.0,0.8111720267781595
469,8070.0,0.8198585063422474
470,8090.0,0.8104349859063356
471,8110.0,0.8185684654704235
472,8130.0,0.8420369450345115
473,8150.0,0.8507244245985994
474,8170.0,0.8594109041626875
475,8190.0,0.8339113837267755
476,8210.0,0.8231948632908636
477,8230.0,0.8291093428549516
478,8250.0,0.8285568224190396
479,8270.0,0.8385363019831276
480,8290.0,0.8289287815472155
481,8310.0,0.7982562611113035
482,8330.0,0.7940077406753916
483,8350.0,0.7936402202394797
484,8370.0,0.7997386998035676
485,8390.0,0.7729451793676556
486,8410.0,0.7975236589317436
487,8430.0,0.7594581384958317
488,8450.0,0.7422756180599196
489,8470.0,0.7426460976240077
490,8490.0,0.7476365771880957
491,8510.0,0.7112340567521837
492,8530.0,0.7454215363162716
493,8550.0,0.6715060158803596
494,8570.0,0.7738824954444476
495,8590.0,0.7578069750085357
496,8610.0,0.7659394545726237
497,8630.0,0.7907029341367118
498,8650.0,0.7857144137007996
499,8670.0,0.6914728932648877
500,8690.0,0.7705643728289757
501,8709.6359,0.8023160939625984
502,8710.0,0.8029049025987884
503,8730.0,0.8064211399615421
504,8750.0,0.7835103773242957
505,8770.0,0.8121586146870494
506,8790.0,0.8262048520498031
507,8810.0,0.8103170894125569
508,8830.0,0.8182683267753105
509,8850.0,0.8112505641380642
510,8870.0,0.7698608015008178
511,8890.0,0.7979530388635715
512,8910.0,0.8118172762263252
513,8930.0,0.7950055135890789
514,8950.0,0.7987067509518325
515,8970.0,0.8009279883145862
516,8990.0,0.7998232256773399
517,9010.0,0.7610204630400936
518,9030.0,0.7966907004028473
519,9050.0,0.832358937765601
520,9070.0,0.8321791751283546
521,9090.0,0.8144434124911083
522,9110.0,0.826087649853862
523,9130.0,0.8438338872166157
524,9150.0,0.8373701245793693
525,9170.0,0.836080361942123
526,9190.0,0.8455075993048767
527,9210.0,0.8059678366676304
528,9230.0,0.7708620740303841
529,9250.0,0.7810303113931377
530,9270.0,0.7910115487558914
531,9290.0,0.7832547861186451
532,9310.0,0.7897270234813989
533,9330.0,0.7904712608441525
534,9350.0,0.7878874982069063
535,9370.0,0.7745877355696599
536,9390.0,0.7882659729324136
537,9410.0,0.7690512102951673
538,9430.0,0.7928934476579209
539,9450.0,0.7797776850206747
540,9470.0,0.7999249223834283
541,9490.0,0.801591159746182
542,9510.0,0.7847793971089356
543,9530.0,0.7853386344716894
544,9550.0,0.757438871834443
545,9570.0,0.7794341091971967
546,9590.0,0.7999503465599503
547,9610.0,0.7888655839227041
548,9630.0,0.7927518212854577
549,9650.0,0.7796360586482114
550,9670.0,0.7790842960109651
551,9690.0,0.7933195333737187
552,9710.0,0.7809427707364724
553,9730.0,0.7737390080992261
554,9750.0,0.7702312454619799
555,9770.0,0.7744874828247335
556,9790.0,0.7634047201874872
557,9810.0,0.7837349575502408
558,9830.0,0.7745001949129945
559,9850.0,0.7813404322757482
560,9870.0,0.7756156696385019
561,9890.0,0.7748829070012556
562,9910.0,0.7686021443640092
563,9930.0,0.7737813817267629
564,9950.0,0.7754496190895166
565,9970.0,0.7760078564522703
566,9990.0,0.772871093815024
567,10000.0,0.7715797124964008
568,10030.0,0.7677055853516691
569,10070.0,0.755518082492027
570,10130.0,0.7710528282025638
571,10170.0,0.7625593253429216
572,10220.0,0.7658969467683688
573,10280.0,0.7684976924789056
574,10320.0,0.7588961896192635
575,10380.0,0.7535509353298003
576,10430.0,0.7568875567552475
577,10480.0,0.7456261781806949
578,10520.0,0.7387966753210526
579,10580.0,0.7242104210315894
580,10630.0,0.7179390424570367
581,10680.0,0.7094486638824841
582,10720.0,0.7146311610228419
583,10780.0,0.7103939067333787
584,10820.0,0.6994994038737364
585,10870.0,0.6972930252991838
586,10920.0,0.6902816467246311
587,10980.0,0.6853053924351677
588,11020.0,0.6842048895755256
589,11080.0,0.6734986352860624
590,11130.0,0.6718472567115097
591,11170.0,0.6672357538518674
592,11220.0,0.6674303752773149
593,11280.0,0.6580201209878515
594,11330.0,0.6574747424132988
595,11380.0,0.6536043638387462
596,11430.0,0.6465939852641934
597,11470.0,0.6558414824045512
598,11481.5362,0.6553821004823162
599,11530.0,0.6534617107141705
600,11570.0,0.6457170343964689
601,11620.0,0.636128438999342
602,11670.0,0.635410843602215
603,11730.0,0.6385753291256627
604,11770.0,0.6238086528079612
605,11830.0,0.6175501383314087
606,11870.0,0.6068484620137071
607,11920.0,0.6170318666165803
608,11980.0,0.5961753521400278
609,12030.0,0.6083927567429009
610,12070.0,0.6028650804251994
611,12120.0,0.6038084850280724
612,12180.0,0.6056819705515201
613,12230.0,0.601636375154393
614,12270.0,0.5974026988366915
615,12320.0,0.5928031034395647
616,12370.0,0.5917145080424376
617,12430.0,0.5830539935658853
618,12480.0,0.5812273981687583
619,12530.0,0.5755188027716314
620,12580.0,0.5735072073745044
621,12620.0,0.5705665310568029
622,12670.0,0.5650429356596759
623,12720.0,0.5654333402625489
624,12780.0,0.5650888257859966
625,12830.0,0.5414542303888696
626,12880.0,0.5547806349917427
627,12920.0,0.5488819586740411
628,12980.0,0.5551904441974888
629,13020.0,0.5472607678797872
630,13080.0,0.5496872534032349
631,13130.0,0.5376966580061078
632,13180.0,0.536423062608981
633,13182.5674,0.5364241103445293
634,13230.0,0.5364526954608703
635,13280.0,0.5270588278132409
636,13320.0,0.5281919336951372
637,13380.0,0.5221300925179818
638,13430.0,0.5241922248703523
639,13470.0,0.5194123307522488
640,13520.0,0.5161174631046194
641,13570.0,0.5082005954569898
642,13630.0,0.5062047542798346
643,13670.0,0.5082608601617309
644,13730.0,0.5094060189845755
645,13770.0,0.507952124866472
646,13820.0,0.5083512572188424
647,13880.0,0.5035834160416872
648,13930.0,0.48328554839405763
649,13970.0,0.4805376542759541
650,14020.0,0.4750257866283246
651,14080.0,0.47894194545116925
652,14120.0,0.4724980513330657
653,14180.0,0.4775232101559103
654,14230.0,0.4720113425082808
655,14280.0,0.46427947486065135
656,14330.0,0.47299560721302186
657,14380.0,0.4759817395653924
658,14420.0,0.46362384544728885
659,14480.0,0.4727160042701335
660,14520.0,0.46812011015202987
661,14570.0,0.4712912425044004
