,lambda (Angstroms),Total Flux (erg/s/cm^2/Angstrom)
0,1005.0,26.18192271539177
1,1015.0,25.83496870418163
2,1025.0,25.34886669297149
3,1035.0,25.090428681761352
4,1045.0,24.968366670551216
5,1055.0,24.678144659341076
6,1065.0,24.279263648130932
7,1075.0,24.023226636920796
8,1085.0,23.606053625710654
9,1095.0,23.391779614500518
10,1096.4782,23.350763849623434
11,1105.0,23.163730618534665
12,1115.0,22.891957415046235
13,1125.0,22.6290552115578
14,1135.0,22.46242800806937
15,1145.0,22.14371680458094
16,1155.0,21.94124060109251
17,1165.0,21.722133397604082
18,1175.0,21.353714194115646
19,1185.0,21.15160699062722
20,1195.0,20.579731787138783
21,1205.0,20.287816583650358
22,1215.0,19.92180038016193
23,1225.0,19.806915176673495
24,1235.0,19.866103973185066
25,1245.0,19.741424769696632
26,1255.0,19.430105566208205
27,1258.92541,19.24544517148765
28,1265.0,19.00537457234863
29,1275.0,19.159369959133542
30,1285.0,19.059091345918457
31,1295.0,18.66037373270337
32,1305.0,18.394339119488283
33,1315.0,18.4422635062732
34,1325.0,18.245524893058114
35,1335.0,17.89522227984303
36,1345.0,17.94721266662794
37,1355.0,17.72146005341286
38,1365.0,17.410149440197767
39,1375.0,17.317633826982682
40,1385.0,17.1489812137676
41,1395.0,16.939493600552513
42,1405.0,16.758275987337427
43,1415.0,16.50924137412234
44,1425.0,16.373851760907254
45,1435.0,16.139600147692168
46,1442.0,16.08001271844161
47,1445.43977,16.044501697937722
48,1447.0,16.037194031039352
49,1455.0,15.893545140553359
50,1465.0,15.682430027445864
51,1475.0,15.527122914338372
52,1485.0,15.43445980123088
53,1495.0,15.339761688123385
54,1505.0,15.171518575015892
55,1512.0,14.976781795840648
56,1517.0,14.986628239286903
57,1525.0,14.804541348800907
58,1535.0,14.576240235693414
59,1545.0,14.581517122585922
60,1555.0,14.382967009478428
61,1565.0,14.226180896370934
62,1575.0,14.13037578326344
63,1585.0,14.054527670155949
64,1595.0,13.947452557048454
65,1605.0,13.778652443940961
66,1615.0,13.65494433083347
67,1625.0,13.461015217725977
68,1635.0,13.371308104618484
69,1645.0,13.25536199151099
70,1655.0,13.034451878403498
71,1659.58691,13.011188395075107
72,1665.0,13.004877332466844
73,1672.0,12.806438308792776
74,1677.0,12.8801638633113
75,1685.0,12.87272155054094
76,1695.0,12.724317659577984
77,1705.0,12.584783768615033
78,1715.0,12.446913877652081
79,1725.0,12.347849986689127
80,1735.0,12.299972095726176
81,1745.0,12.193332204763223
82,1755.0,12.16559731380027
83,1765.0,11.973953422837317
84,1775.0,11.924228531874364
85,1785.0,11.835881640911412
86,1795.0,11.802603749948458
87,1805.0,11.690233858985508
88,1815.0,11.549777968022555
89,1825.0,11.455518077059603
90,1835.0,11.329473186096651
91,1845.0,11.181624295133696
92,1855.0,11.086810404170745
93,1865.0,11.012508513207793
94,1875.0,10.97571862224484
95,1885.0,10.836554731281886
96,1895.0,10.726403840318934
97,1905.0,10.64932994935598
98,1905.46072,10.644476361323536
99,1915.0,10.567252741953457
100,1925.0,10.494801442155062
101,1935.0,10.429370142356673
102,1945.0,10.38445384255828
103,1955.0,10.285576542759888
104,1967.0,10.257398583001818
105,1976.0,10.209006113183266
106,1984.0,10.11870647334455
107,1995.0,10.01960634356632
108,2005.0,9.961752043767929
109,2015.0,9.861951743969536
110,2025.0,9.824608444171144
111,2035.0,9.730168144372751
112,2045.0,9.68801984457436
113,2055.0,9.589883544775969
114,2065.0,9.520203244977575
115,2074.0,9.496204775159024
116,2078.0,9.456690455239666
117,2085.0,9.422419645380792
118,2095.0,9.320402345582401
119,2105.0,9.244254045784007
120,2115.0,9.180117745985617
121,2125.0,9.119677446187223
122,2135.0,8.993081146388832
123,2145.0,8.957585846590439
124,2155.0,8.907309546792048
125,2165.0,8.811390246993655
126,2175.0,8.735795947195264
127,2185.0,8.661681647396872
128,2187.7616199999998,8.650552512165948
129,2195.0,8.637047348497475
130,2205.0,8.567757632726163
131,2215.0,8.487194916954852
132,2225.0,8.423450201183542
133,2235.0,8.425490485412231
134,2245.0,8.344373769640919
135,2255.0,8.27582405386961
136,2265.0,8.242938338098298
137,2275.0,8.217628622326988
138,2285.0,8.190655906555676
139,2295.0,8.120997190784365
140,2305.0,8.065381475013053
141,2315.0,7.994244759241743
142,2325.0,7.844570043470433
143,2335.0,7.8671223276991205
144,2345.0,7.80245261192781
145,2355.0,7.8039378961565
146,2365.0,7.708777180385188
147,2375.0,7.682544464613877
148,2385.0,7.598101748842567
149,2395.0,7.589609033071255
150,2405.0,7.524938317299944
151,2415.0,7.492976601528634
152,2425.0,7.482081885757323
153,2435.0,7.419075169986012
154,2445.0,7.4063324542146995
155,2455.0,7.350715738443389
156,2465.0,7.304525022672079
157,2475.0,7.239117306900767
158,2485.0,7.209926591129457
159,2495.0,7.152833875358146
160,2505.0,7.153211159586834
161,2511.88643,7.0690681330779315
162,2513.0,7.056746754549975
163,2518.0,7.048937982681315
164,2525.0,7.0025987020651925
165,2535.0,6.979589158327872
166,2545.0,6.938654614590553
167,2555.0,6.943548070853233
168,2565.0,6.893374527115914
169,2575.0,6.892908983378596
170,2585.0,6.850681439641275
171,2595.0,6.8090068959039565
172,2605.0,6.755138352166637
173,2615.0,6.715497808429317
174,2625.0,6.708379264691999
175,2635.0,6.696272720954679
176,2645.0,6.713732177217359
177,2655.0,6.69866963348004
178,2665.0,6.599710089742721
179,2675.0,6.593885546005402
180,2685.0,6.559604002268082
181,2695.0,6.498158458530763
182,2705.0,6.487344914793443
183,2715.0,6.417767371056123
184,2725.0,6.379234827318804
185,2735.0,6.376737283581484
186,2745.0,6.264288739844165
187,2755.0,6.242942196106845
188,2765.0,6.2313896523695265
189,2775.0,6.221315108632207
190,2785.0,6.155988564894887
191,2795.0,6.024506021157568
192,2805.0,6.020530477420248
193,2815.0,6.081969933682929
194,2825.0,6.081321389945609
195,2835.0,6.02800484620829
196,2845.0,5.971732302470971
197,2855.0,5.916384758733652
198,2865.0,5.940128214996332
199,2875.0,5.914899671259013
200,2884.0315,5.880099907532653
201,2885.0,5.877327697522571
202,2895.0,5.856279949354452
203,2910.0,5.8802383271022745
204,2930.0,5.803585830766038
205,2950.0,5.745412334429801
206,2970.0,5.708121838093564
207,2990.0,5.662330341757327
208,3010.0,5.62393084542109
209,3030.0,5.576291349084854
210,3050.0,5.528836852748616
211,3070.0,5.487480356412379
212,3090.0,5.443536860076142
213,3110.0,5.401440363739905
214,3130.0,5.342712867403669
215,3150.0,5.2971073710674315
216,3170.0,5.255749874731195
217,3190.0,5.173738378394958
218,3210.0,5.149198882058721
219,3230.0,5.069775385722484
220,3250.0,5.070181889386248
221,3270.0,5.050815393050011
222,3290.0,4.9970778967137734
223,3310.0,4.942415400377538
224,3311.31121,4.939207295890985
225,3330.0,4.906466519598601
226,3350.0,4.862929642569233
227,3370.0,4.7872377655398655
228,3390.0,4.766983888510498
229,3410.0,4.73749001148113
230,3430.0,4.7061491344517625
231,3450.0,4.680721257422395
232,3470.0,4.647531380393027
233,3490.0,4.631526503363659
234,3510.0,4.612011626334292
235,3530.0,4.554985749304923
236,3550.0,4.551915872275556
237,3570.0,4.444994995246188
238,3590.0,4.409957118216821
239,3610.0,4.412247241187453
240,3630.0,4.388667364158085
241,3640.0,4.377708425643401
242,3650.0,4.397795487128717
243,3670.0,4.366823610099349
244,3690.0,4.285403733069981
245,3710.0,4.293237856040614
246,3730.0,4.195000979011246
247,3750.0,4.2506961019818785
248,3770.0,4.27959622495251
249,3790.0,4.322910347923142
250,3801.8939600000003,4.332734237315532
251,3810.0,4.343396051949817
252,3830.0,4.1285499044605025
253,3850.0,4.287720756971188
254,3870.0,4.315876609481873
255,3890.0,4.109899461992559
256,3910.0,4.3385503145032445
257,3930.0,4.09580016701393
258,3950.0,4.217461019524615
259,3970.0,3.900976872035301
260,3990.0,4.296680724545986
261,4010.0,4.356803577056671
262,4030.0,4.326196429567357
263,4050.0,4.285237282078042
264,4070.0,4.218038134588728
265,4090.0,4.180961987099413
266,4110.0,4.0304228396100985
267,4130.0,4.160395692120784
268,4150.0,4.158059544631469
269,4170.0,4.133179397142155
270,4190.0,4.10127624965284
271,4210.0,4.080459102163526
272,4230.0,4.024533954674212
273,4250.0,4.027555807184896
274,4270.0,3.9610976596955814
275,4290.0,3.915335512206267
276,4310.0,3.8130253647169523
277,4330.0,3.835635217227638
278,4350.0,3.753100069738323
279,4365.15832,3.881578088693808
280,4370.0,3.9243282178109142
281,4390.0,3.8507223474729404
282,4410.0,3.858419477134966
283,4430.0,3.8651886067969925
284,4450.0,3.8580987364590182
285,4470.0,3.8719088661210446
286,4490.0,3.8612989957830703
287,4510.0,3.939039125445097
288,4530.0,3.818119255107123
289,4550.0,3.821009384769149
290,4570.0,3.8660395144311748
291,4590.0,3.797969644093201
292,4610.0,3.8008697737552266
293,4630.0,3.7527499034172536
294,4650.0,3.7493700330792796
295,4670.0,3.7594601627413056
296,4690.0,3.718930292403331
297,4710.0,3.665090422065358
298,4730.0,3.686090551727384
299,4750.0,3.68935068138941
300,4770.0,3.6613908110514357
301,4790.0,3.6413609407134624
302,4810.0,3.6124810703754884
303,4830.0,3.6098212000375143
304,4850.0,3.47653032969954
305,4870.0,3.342861459361566
306,4890.0,3.5098415890235923
307,4910.0,3.5038717186856188
308,4930.0,3.4672118483476444
309,4950.0,3.4889519780096707
310,4970.0,3.455632107671697
311,4990.0,3.376110237333723
312,5010.0,3.3100763669957485
313,5011.87234,3.312838267868319
314,5030.0,3.3440633978652006
315,5050.0,3.3238176578511904
316,5070.0,3.3481039178371805
317,5090.0,3.2892351778231705
318,5110.0,3.294305437809161
319,5130.0,3.2500326977951506
320,5150.0,3.2076119577811406
321,5170.0,3.142275217767131
322,5190.0,3.1491914777531207
323,5210.0,3.1854897377391107
324,5230.0,3.220310997725101
325,5250.0,3.241448257711091
326,5270.0,3.1273355176970803
327,5290.0,3.2229547776830705
328,5310.0,3.2553630376690608
329,5330.0,3.1349662976550507
330,5350.0,3.198239557641041
331,5370.0,3.179837817627031
332,5390.0,3.1442560776130213
333,5410.0,3.115883337599011
334,5430.0,3.117622597585001
335,5450.0,3.130270857570991
336,5470.0,3.0939491175569813
337,5490.0,3.0829373775429714
338,5510.0,3.0608426375289612
339,5530.0,3.0753338975149513
340,5550.0,3.0743021575009415
341,5570.0,3.0429704174869308
342,5590.0,3.0083126774729214
343,5610.0,3.0266769374589115
344,5630.0,3.0042151974449016
345,5650.0,3.0018934574308913
346,5670.0,2.966314717416881
347,5690.0,2.9822899774028713
348,5710.0,2.9391232373888614
349,5730.0,2.9999964973748514
350,5750.0,2.9461147573608413
351,5754.399369999999,2.9456854360375697
352,5770.0,2.9468677114819037
353,5790.0,2.8992323880210358
354,5810.0,2.927539064560168
355,5830.0,2.9456747410992996
356,5850.0,2.904700417638432
357,5870.0,2.893276094177564
358,5890.0,2.776710770716696
359,5910.0,2.8587874472558283
360,5930.0,2.85679312379496
361,5950.0,2.8461088003340924
362,5970.0,2.852624476873224
363,5990.0,2.824750153412356
364,6010.0,2.8024288299514883
365,6030.0,2.81835150649062
366,6050.0,2.8248571830297524
367,6070.0,2.813622859568884
368,6090.0,2.767648536108016
369,6110.0,2.7606622126471483
370,6130.0,2.7011948891862803
371,6150.0,2.712687565725412
372,6170.0,2.6624602422645447
373,6190.0,2.7068459188036766
374,6210.0,2.6887735953428082
375,6230.0,2.6503722718819405
376,6250.0,2.6110469484210728
377,6270.0,2.644346624960205
378,6290.0,2.651959301499337
379,6310.0,2.6157769780384683
380,6330.0,2.618953654577601
381,6350.0,2.604577331116733
382,6370.0,2.5913060076558647
383,6390.0,2.604278684194997
384,6410.0,2.576780360734129
385,6430.0,2.575707037273261
386,6450.0,2.559113713812393
387,6470.0,2.5493543903515254
388,6490.0,2.520934066890657
389,6510.0,2.5407417434297894
390,6530.0,2.525441419968921
391,6550.0,2.479094096508053
392,6570.0,2.399852773047185
393,6590.0,2.4830454495863172
394,6606.93448,2.4885531153242373
395,6610.0,2.4899432888132607
396,6630.0,2.4753580289488544
397,6650.0,2.4696447690844483
398,6670.0,2.442309509220042
399,6690.0,2.4489752493556356
400,6710.0,2.4087059894912297
401,6730.0,2.4249817296268232
402,6750.0,2.403005469762417
403,6770.0,2.4013552098980107
404,6790.0,2.3832619500336047
405,6810.0,2.3817956901691986
406,6830.0,2.3847664303047917
407,6850.0,2.355769170440386
408,6870.0,2.3639139105759797
409,6890.0,2.3698396507115733
410,6910.0,2.359876390847167
411,6930.0,2.345845130982761
412,6950.0,2.338652871118355
413,6970.0,2.3425486112539486
414,6990.0,2.3314733513895423
415,7010.0,2.3096830915251356
416,7030.0,2.3222638316607296
417,7050.0,2.3211695717963234
418,7070.0,2.2897693119319174
419,7090.0,2.257813052067511
420,7110.0,2.2299237922031048
421,7130.0,2.2083165323386984
422,7150.0,2.200200272474292
423,7170.0,2.202616012609886
424,7190.0,2.17731375274548
425,7210.0,2.190633492881074
426,7230.0,2.199702233016667
427,7250.0,2.199160973152261
428,7270.0,2.197328713287855
429,7290.0,2.177570453423449
430,7310.0,2.1940301935590423
431,7330.0,2.1905319336946363
432,7350.0,2.19202567383023
433,7370.0,2.206452413965824
434,7390.0,2.1828151541014176
435,7410.0,2.175990894237011
436,7430.0,2.188385634372605
437,7450.0,2.1826713745081987
438,7470.0,2.1889681146437927
439,7490.0,2.1804818547793863
440,7510.0,2.1845605949149802
441,7530.0,2.192891335050574
442,7550.0,2.1927210751861677
443,7570.0,2.1822018153217613
444,7585.77575,2.1634103257314665
445,7590.0,2.158760423563214
446,7610.0,2.1398841443148147
447,7630.0,2.119162865066415
448,7650.0,2.0984395858180163
449,7670.0,2.054989306569617
450,7690.0,2.0703000273212186
451,7710.0,2.0516107480728194
452,7730.0,2.04770346882442
453,7750.0,2.038068189576021
454,7770.0,2.042661910327622
455,7790.0,2.0476256310792227
456,7810.0,2.040393351830824
457,7830.0,2.0294640725824244
458,7850.0,2.0131767933340257
459,7870.0,2.0231315140856263
460,7890.0,2.0049942348372274
461,7910.0,1.9831639555888283
462,7930.0,1.9818426763404293
463,7950.0,1.9703613970920304
464,7970.0,1.9930641178436312
465,7990.0,1.9889728385952323
466,8010.0,1.9920885593468332
467,8030.0,1.989845280098434
468,8050.0,1.9859390008500348
469,8070.0,1.9905327216016357
470,8090.0,1.9770164423532368
471,8110.0,1.9810571631048375
472,8130.0,2.0004328838564387
473,8150.0,2.0050276046080393
474,8170.0,2.0096213253596407
475,8190.0,1.9800290461112415
476,8210.0,1.9652197668628424
477,8230.0,1.9670414876144433
478,8250.0,1.962396208366044
479,8270.0,1.9682829291176454
480,8290.0,1.954582649869246
481,8310.0,1.919817370620847
482,8330.0,1.9114760913724478
483,8350.0,1.9070158121240488
484,8370.0,1.9090215328756497
485,8390.0,1.8781352536272509
486,8410.0,1.8986209743788516
487,8430.0,1.8564626951304526
488,8450.0,1.8351874158820534
489,8470.0,1.8314651366336543
490,8490.0,1.8323628573852555
491,8510.0,1.7918675781368563
492,8530.0,1.8219622988884572
493,8550.0,1.743954019640058
494,8570.0,1.842237740391659
495,8590.0,1.82206946114326
496,8610.0,1.8261091818948607
497,8630.0,1.8467799026464617
498,8650.0,1.8376986233980626
499,8670.0,1.7393643441496636
500,8690.0,1.8143630649012645
501,8709.6359,1.8420965358965815
502,8710.0,1.8426362693751135
503,8730.0,1.843456810079912
504,8750.0,1.8178503507847106
505,8770.0,1.8438028914895095
506,8790.0,1.8551534321943077
507,8810.0,1.8365699728991065
508,8830.0,1.8418255136039052
509,8850.0,1.8321120543087037
510,8870.0,1.7880265950135024
511,8890.0,1.8134231357183008
512,8910.0,1.8245916764230994
513,8930.0,1.805084217127898
514,8950.0,1.8060897578326967
515,8970.0,1.8056152985374954
516,8990.0,1.801814839242294
517,9010.0,1.7603163799470924
518,9030.0,1.793290920651891
519,9050.0,1.8262634613566897
520,9070.0,1.8233880020614883
521,9090.0,1.802956542766287
522,9110.0,1.8119050834710855
523,9130.0,1.8269556241758842
524,9150.0,1.8177961648806826
525,9170.0,1.8138107055854813
526,9190.0,1.8205422462902798
527,9210.0,1.7783067869950786
528,9230.0,1.7405053276998772
529,9250.0,1.7479778684046756
530,9270.0,1.755263409109474
531,9290.0,1.7448109498142728
532,9310.0,1.7485874905190715
533,9330.0,1.7466360312238702
534,9350.0,1.7413565719286688
535,9370.0,1.7253611126334671
536,9390.0,1.736343653338266
537,9410.0,1.7144331940430644
538,9430.0,1.735579734747863
539,9450.0,1.7197682754526618
540,9470.0,1.7372198161574601
541,9490.0,1.736190356862259
542,9510.0,1.7166828975670574
543,9530.0,1.714546438271856
544,9550.0,1.6839509789766547
545,9570.0,1.7032505196814531
546,9590.0,1.7210710603862518
547,9610.0,1.7072906010910505
548,9630.0,1.7084811417958492
549,9650.0,1.6926696825006475
550,9670.0,1.6894222232054463
551,9690.0,1.7009617639102448
552,9710.0,1.6858893046150434
553,9730.0,1.675989845319842
554,9750.0,1.6697863860246407
555,9770.0,1.6713469267294392
556,9790.0,1.657568467434238
557,9810.0,1.6752030081390363
558,9830.0,1.6632725488438351
559,9850.0,1.6674170895486338
560,9870.0,1.6589966302534322
561,9890.0,1.6555681709582308
562,9910.0,1.6465917116630293
563,9930.0,1.649075252367828
564,9950.0,1.6480477930726267
565,9970.0,1.6459103337774255
566,9990.0,1.6400778744822238
567,10000.0,1.637438644834623
568,10030.0,1.631086663634151
569,10070.0,1.615595355366855
570,10130.0,1.626174392965911
571,10170.0,1.614377084698615
572,10220.0,1.6135849493644947
573,10280.0,1.6112299869635505
574,10320.0,1.5983246786962544
575,10380.0,1.5880237162953104
576,10430.0,1.5872305809611902
577,10480.0,1.5718394456270701
578,10520.0,1.5617061373597738
579,10580.0,1.5421641749588297
580,10630.0,1.5317630396247097
581,10680.0,1.5191429042905895
582,10720.0,1.5210215960232936
583,10780.0,1.5118286336223494
584,10820.0,1.4976303253550534
585,10870.0,1.491294190020933
586,10920.0,1.4801530546868131
587,10980.0,1.470221092285869
588,11020.0,1.465816784018573
589,11080.0,1.4501548216176285
590,11130.0,1.4443736862835088
591,11170.0,1.4364583780162126
592,11220.0,1.4325232426820924
593,11280.0,1.4181572802811482
594,11330.0,1.413482144947028
595,11380.0,1.405482009612908
596,11430.0,1.3943418742787879
597,11470.0,1.4002855660114917
598,11481.5362,1.3988733500906623
599,11530.0,1.3948519362043517
600,11570.0,1.3853731621739946
601,11620.0,1.3736169446360482
602,11670.0,1.3707317270981016
603,11730.0,1.371295066052566
604,11770.0,1.3547942920222091
605,11830.0,1.3459346309766733
606,11870.0,1.3334988569463162
607,11920.0,1.34151463940837
608,11980.0,1.3180569783628342
609,12030.0,1.3281067608248875
610,12070.0,1.3208449867945307
611,12120.0,1.3196207692565842
612,12180.0,1.3188931082110484
613,12230.0,1.312679890673102
614,12270.0,1.306712116642745
615,12320.0,1.2999448991047986
616,12370.0,1.2966886815668521
617,12430.0,1.2854270205213165
618,12480.0,1.2814328029833701
619,12530.0,1.2735565854454238
620,12580.0,1.2693773679074773
621,12620.0,1.2647025938771201
622,12670.0,1.257011376339174
623,12720.0,1.2552341588012275
624,12780.0,1.2522884977556918
625,12830.0,1.2264862802177454
626,12880.0,1.2376450626797988
627,12920.0,1.2300122886494418
628,12980.0,1.2337196276039062
629,13020.0,1.224055853573549
630,13080.0,1.2238811925280135
631,13130.0,1.209722974990067
632,13180.0,1.2062817574521205
633,13182.5674,1.206171502125982
634,13230.0,1.20547271019736
635,13280.0,1.1953120945273121
636,13320.0,1.195831801991274
637,13380.0,1.1888498631872166
638,13430.0,1.1901452475171688
639,13470.0,1.1847519549811305
640,13520.0,1.1806903393110828
641,13570.0,1.1720067236410352
642,13630.0,1.1690907848369778
643,13670.0,1.1705334923009394
644,13730.0,1.1707585534968823
645,13770.0,1.168691260960844
646,13820.0,1.1683236452907964
647,13880.0,1.162635706486739
648,13930.0,1.1415710908166912
649,13970.0,1.138209798280653
650,14020.0,1.131931182610605
651,14080.0,1.1349272438065479
652,14120.0,1.1278699512705097
653,14180.0,1.1319750124664523
654,14230.0,1.1256963967964044
655,14280.0,1.1171977811263567
656,14330.0,1.125147165456309
657,14380.0,1.1273665497862613
658,14420.0,1.114395257250223
659,14480.0,1.1225673184461655
660,14520.0,1.1173580259101275
661,14570.0,1.1197624102400796
662,14620.0,1.1092317945700318
663,14670.0,1.106464178899984
664,14720.0,1.1007375632299363
665,14770.0,1.1029579475598885
666,14830.0,1.1041070087558313
667,14880.0,1.0985663930857834
668,14920.0,1.1101721005497451
669,14980.0,1.104298161745688
670,15030.0,1.0972795460756402
671,15070.0,1.0974302535396019
672,15120.0,1.104824637869554
