,lambda (Angstroms),Total Flux (erg/s/cm^2/Angstrom)
0,1005.0,0.017922974991031456
1,1015.0,0.01488931857306579
2,1025.0,0.006816462155100121
3,1035.0,0.010125395737134453
4,1045.0,0.022373249319168786
5,1055.0,0.026232692901203118
6,1065.0,0.022359236483237448
7,1075.0,0.02628848006527178
8,1085.0,0.021097623647306114
9,1095.0,0.026884367229340445
10,1096.4782,0.029258909805636786
11,1105.0,0.042944922931868176
12,1115.0,0.04963042566161003
13,1125.0,0.05342362839135189
14,1135.0,0.060422831121093735
15,1145.0,0.0542140338508356
16,1155.0,0.06253773658057744
17,1165.0,0.0685262393103193
18,1175.0,0.05876294204006116
19,1185.0,0.052833044769803016
20,1195.0,0.013207347499544869
21,1205.0,0.014327450229286725
22,1215.0,0.00545281295902858
23,1225.0,0.012894755688770436
24,1235.0,0.04911155841851229
25,1245.0,0.08270076114825414
26,1255.0,0.085971063877996
27,1258.92541,0.07219338615283141
28,1265.0,0.05087594350097448
29,1275.0,0.1281705345182166
30,1285.0,0.15887492553545873
31,1295.0,0.13444531655270084
32,1305.0,0.09921340756994296
33,1315.0,0.15587909858718507
34,1325.0,0.1672054896044272
35,1335.0,0.13636388062166932
36,1345.0,0.18936927163891143
37,1355.0,0.18086666265615353
38,1365.0,0.15553205367339568
39,1375.0,0.1823304446906378
40,1385.0,0.1840748357078799
41,1395.0,0.19111422672512202
42,1405.0,0.18930261774236415
43,1415.0,0.17247200875960628
44,1425.0,0.19003539977684838
45,1435.0,0.1721577907940905
46,1442.0,0.19383406450615998
47,1445.43977,0.20752448360709772
48,1447.0,0.21373425021022016
49,1455.0,0.20432451275162647
50,1465.0,0.18247484092838437
51,1475.0,0.17449516910514226
52,1485.0,0.19101249728190015
53,1495.0,0.20568482545865802
54,1505.0,0.20331615363541594
55,1512.0,0.17484438335914643
56,1517.0,0.19652054744752537
57,1525.0,0.1678408099889317
58,1535.0,0.14362013816568958
59,1545.0,0.19812446634244746
60,1555.0,0.17265079451920537
61,1565.0,0.15878012269596323
62,1575.0,0.17561345087272112
63,1585.0,0.194918779049479
64,1595.0,0.2083371072262369
65,1605.0,0.19342143540299478
66,1615.0,0.19150576357975266
67,1625.0,0.16962109175651055
68,1635.0,0.18286341993326846
69,1645.0,0.19338874811002632
70,1655.0,0.15843507628678422
71,1659.58691,0.17259777013450942
72,1665.0,0.18931252412692298
73,1672.0,0.1294772017563167
74,1677.0,0.1932524000630265
75,1685.0,0.21695331735376214
76,1695.0,0.1953137139671817
77,1705.0,0.18238611058060128
78,1715.0,0.17859250719402084
79,1725.0,0.1766419038074404
80,1735.0,0.19420830042086
81,1745.0,0.18988969703427955
82,1755.0,0.21641209364769914
83,1765.0,0.17571049026111868
84,1775.0,0.20042088687453827
85,1785.0,0.1968342834879578
86,1795.0,0.2267366801013774
87,1805.0,0.213810076714797
88,1815.0,0.20753947332821654
89,1825.0,0.20032786994163612
90,1835.0,0.18827326655505566
91,1845.0,0.16882966316847525
92,1855.0,0.1805400597818948
93,1865.0,0.18800145639531438
94,1875.0,0.19681985300873397
95,1885.0,0.18940024962215352
96,1895.0,0.1920506462355731
97,1905.0,0.18508404284899266
98,1905.46072,0.18535067978576616
99,1915.0,0.190866206332853
100,1925.0,0.18981711707149043
101,1935.0,0.17594402781012783
102,1945.0,0.19803593854876522
103,1955.0,0.19304884928740262
104,1967.0,0.2105051421737675
105,1976.0,0.20990936183854117
106,1984.0,0.2016828904294511
107,1995.0,0.19338549224195223
108,2005.0,0.19000140298058962
109,2015.0,0.180170313719227
110,2025.0,0.18260722445786443
111,2035.0,0.1861941351965018
112,2045.0,0.1985280459351392
113,2055.0,0.18695495667377662
114,2065.0,0.182490867412414
115,2074.0,0.20043608707718766
116,2078.0,0.21029585137264262
117,2085.0,0.2115486888896888
118,2095.0,0.1994175996283262
119,2105.0,0.18889051036696358
120,2115.0,0.19136242110560098
121,2125.0,0.19418133184423841
122,2135.0,0.16396424258287579
123,2145.0,0.1867871533215132
124,2155.0,0.1912090640601506
125,2165.0,0.176256974798788
126,2175.0,0.17402288553742537
127,2185.0,0.1790027962760628
128,2187.7616199999998,0.1822070793114661
129,2195.0,0.19060972598501424
130,2205.0,0.17977318902998818
131,2215.0,0.15973765207496213
132,2225.0,0.1559061151199361
133,2235.0,0.18267357816491006
134,2245.0,0.16528704120988405
135,2255.0,0.15155750425485798
136,2265.0,0.15452296729983195
137,2275.0,0.1654334303448059
138,2285.0,0.17878389338977987
139,2295.0,0.1647753564347538
140,2305.0,0.16645081947972779
141,2315.0,0.15401228252470173
142,2325.0,0.1104187455696757
143,2335.0,0.13164320861464968
144,2345.0,0.11575567165962361
145,2355.0,0.14935213470459757
146,2365.0,0.11736359774957153
147,2375.0,0.1316180607945455
148,2385.0,0.10586752383951946
149,2395.0,0.1229819868844934
150,2405.0,0.11688544992946737
151,2415.0,0.12451991297444133
152,2425.0,0.15038037601941528
153,2435.0,0.14449283906438923
154,2445.0,0.16045630210936318
155,2455.0,0.15833376515433717
156,2465.0,0.15453722819931112
157,2475.0,0.14418869124428507
158,2485.0,0.14373915428925904
159,2495.0,0.14042961733423298
160,2505.0,0.17151808037920696
161,2511.88643,0.13627158458288685
162,2513.0,0.13057167038535097
163,2518.0,0.1281321937537248
164,2525.0,0.12070852646944819
165,2535.0,0.12903557320619585
166,2545.0,0.12994061994294354
167,2555.0,0.15848266667969121
168,2565.0,0.14468071341643887
169,2575.0,0.16402176015318656
170,2585.0,0.15861880688993424
171,2595.0,0.15109085362668193
172,2605.0,0.1408789003634296
173,2615.0,0.13544094710017726
174,2625.0,0.15753499383692496
175,2635.0,0.18109104057367262
176,2645.0,0.2210980873104203
177,2655.0,0.24705913404716798
178,2665.0,0.19206618078391563
179,2675.0,0.21147722752066334
180,2685.0,0.217958274257411
181,2695.0,0.19202832099415867
182,2705.0,0.21238036773090635
183,2715.0,0.18282641446765402
184,2725.0,0.17589146120440172
185,2735.0,0.1974965079411494
186,2745.0,0.14152655467789704
187,2755.0,0.15598860141464474
188,2765.0,0.1743896481513924
189,2775.0,0.1896166948881401
190,2785.0,0.15570774162488776
191,2795.0,0.09151408836163545
192,2805.0,0.10712583509838312
193,2815.0,0.18361888183513078
194,2825.0,0.21972192857187847
195,2835.0,0.21153197530862614
196,2845.0,0.1914220220453738
197,2855.0,0.16532006878212152
198,2865.0,0.2203811155188692
199,2875.0,0.23787316225561686
200,2884.0315,0.23107429126591045
201,2885.0,0.23034529942648832
202,2895.0,0.24010227991774108
203,2910.0,0.29544425065462016
204,2930.0,0.2700032116371256
205,2950.0,0.26083817261963105
206,2970.0,0.2728271336021365
207,2990.0,0.27648509458464193
208,3010.0,0.2833850555671474
209,3030.0,0.2878110165496528
210,3050.0,0.2921319775321583
211,3070.0,0.3045739385146637
212,3090.0,0.30770989949716915
213,3110.0,0.32252186047967457
214,3130.0,0.3111948214621801
215,3150.0,0.3144357824446855
216,3170.0,0.3265987434271909
217,3190.0,0.29485070440969635
218,3210.0,0.31830466539220187
219,3230.0,0.28495262637470725
220,3250.0,0.3435005873572127
221,3270.0,0.3783145483397181
222,3290.0,0.37308650932222365
223,3310.0,0.36507247030472906
224,3311.31121,0.36525525042072254
225,3330.0,0.3678597707817585
226,3350.0,0.36019102491756494
227,3370.0,0.31227227905337135
228,3390.0,0.33126653318917776
229,3410.0,0.33642178732498423
230,3430.0,0.3423460414607906
231,3450.0,0.3542632955965971
232,3470.0,0.3584455497324035
233,3490.0,0.3821408038682099
234,3510.0,0.3992160580040163
235,3530.0,0.3730783121398228
236,3550.0,0.4100185662756292
237,3570.0,0.3261008204114356
238,3590.0,0.328296074547242
239,3610.0,0.37342532868304845
240,3630.0,0.3877105828188549
241,3640.0,0.3953782098867581
242,3650.0,0.4382428369546613
243,3670.0,0.44799909109046776
244,3690.0,0.4051343452262742
245,3710.0,0.4403315993620806
246,3730.0,0.35808685349788705
247,3750.0,0.42360310763369347
248,3770.0,0.4929513617694999
249,3790.0,0.5476646159053064
250,3801.8939600000003,0.5634153435693625
251,3810.0,0.5741499330289694
252,3830.0,0.4040833425744626
253,3850.0,0.5490567521199555
254,3870.0,0.5877381616654487
255,3890.0,0.4901595712109417
256,3910.0,0.6793919807564348
257,3930.0,0.4413693903019278
258,3950.0,0.6037667998474209
259,3970.0,0.377246209392914
260,3990.0,0.761981618938407
261,4010.0,0.8463170284839
262,4030.0,0.8452704380293931
263,4050.0,0.8222698475748862
264,4070.0,0.7814952571203791
265,4090.0,0.8125106666658722
266,4110.0,0.7163250762113653
267,4130.0,0.8187824857568584
268,4150.0,0.8337668953023515
269,4170.0,0.8358573048478445
270,4190.0,0.8285377143933376
271,4210.0,0.8351591239388306
272,4230.0,0.8013535334843237
273,4250.0,0.8386419430298168
274,4270.0,0.7971713525753098
275,4290.0,0.7706847621208028
276,4310.0,0.6908791716662959
277,4330.0,0.7915945812117889
278,4350.0,0.7529089907572819
279,4365.15832,0.8741447866023603
280,4370.0,0.9128686250010233
281,4390.0,0.8463069627294955
282,4410.0,0.8741853004579676
283,4430.0,0.9072926381864397
284,4450.0,0.9180969759149119
285,4470.0,0.961659313643384
286,4490.0,0.9714176513718561
287,4510.0,1.0818969891003283
288,4530.0,0.9637503268288004
289,4550.0,0.9916316645572725
290,4570.0,1.0623680022857447
291,4590.0,1.0080083400142168
292,4610.0,1.0303186777426887
293,4630.0,0.999651015471161
294,4650.0,1.0149793531996332
295,4670.0,1.0498296909281053
296,4690.0,1.0257800286565772
297,4710.0,0.9891943663850494
298,4730.0,1.0303207041135214
299,4750.0,1.056111041841994
300,4770.0,1.0432113795704658
301,4790.0,1.0428617172989378
302,4810.0,1.03380205502741
303,4830.0,1.0564523927558822
304,4850.0,0.9515587304843542
305,4870.0,0.8435270682128265
306,4890.0,1.0073134059412985
307,4910.0,1.0167237436697707
308,4930.0,0.9972100813982429
309,4950.0,1.040424419126715
310,4970.0,1.0212647568551871
311,4990.0,0.9526070945836591
312,5010.0,0.9010294323121313
313,5011.87234,0.9059884500362575
314,5030.0,0.9540008315533713
315,5050.0,0.9484252371480412
316,5070.0,0.987806642742711
317,5090.0,0.9355330483373808
318,5110.0,0.9578354539320508
319,5130.0,0.9219418595267207
320,5150.0,0.8895322651213905
321,5170.0,0.8275016707160604
322,5190.0,0.8508500763107302
323,5210.0,0.9111404819054001
324,5230.0,0.96829388750007
325,5250.0,1.0076702930947399
326,5270.0,0.8919756986894096
327,5290.0,1.0160311042840795
328,5310.0,1.0714515098787494
329,5330.0,0.9456449154734193
330,5350.0,1.033462321068089
331,5370.0,1.026852726662759
332,5390.0,1.0014031322574288
333,5410.0,0.9843285378520987
334,5430.0,1.0010539434467685
335,5450.0,1.0292843490414383
336,5470.0,1.0034947546361082
337,5490.0,1.0055851602307782
338,5510.0,0.9947855658254481
339,5530.0,1.0268559714201178
340,5550.0,1.0407863770147878
341,5570.0,1.0195267826094576
342,5590.0,0.9937411882041275
343,5610.0,1.0296375937987974
344,5630.0,1.0188379993934673
345,5650.0,1.0324284049881371
346,5670.0,1.006288810582807
347,5690.0,1.0390492161774767
348,5710.0,1.0041996217721467
349,5730.0,1.0888800273668164
350,5750.0,1.0418304329614863
351,5754.399369999999,1.044516337564537
352,5770.0,1.054041327979095
353,5790.0,1.010472361013732
354,5810.0,1.0533333940483691
355,5830.0,1.0847044270830062
356,5850.0,1.0484654601176433
357,5870.0,1.0467264931522804
358,5890.0,0.9198705261869173
359,5910.0,1.0268685592215545
360,5930.0,1.0355695922561914
361,5950.0,1.0348806252908287
362,5970.0,1.0523016583254656
363,5990.0,1.0313926913601028
364,6010.0,1.0164037243947397
365,6030.0,1.044994757429377
366,6050.0,1.0631157904640138
367,6070.0,1.060316823498651
368,6090.0,1.0185078565332881
369,6110.0,1.0212988895679251
370,6130.0,0.9634439226025622
371,6150.0,0.9881889556371992
372,6170.0,0.9387049886718363
373,6190.0,1.0003930217064734
374,6210.0,0.9902830547411104
375,6230.0,0.9568280877757476
376,6250.0,0.9237221208103846
377,6270.0,0.9704211538450216
378,6290.0,0.9895901868796587
379,6310.0,0.9592722199142958
380,6330.0,0.9728642529489328
381,6350.0,0.9683352859835699
382,6370.0,0.9631073190182069
383,6390.0,0.9875043520528439
384,6410.0,0.966596385087481
385,6430.0,0.9753094181221181
386,6450.0,0.9669474511567553
387,6470.0,0.9652044841913923
388,6490.0,0.9446445172260294
389,6510.0,0.9777535502606663
390,6530.0,0.9718285832953034
391,6550.0,0.9366336163299405
392,6570.0,0.8693746493645775
393,6590.0,0.9551056823992147
394,6606.93448,0.9677947162344346
395,6610.0,0.9700915580056236
396,6630.0,0.9596355639503836
397,6650.0,0.9599845698951437
398,6670.0,0.9366365758399037
399,6690.0,0.9509235817846639
400,6710.0,0.9122415877294239
401,6730.0,0.9376815936741839
402,6750.0,0.9202565996189439
403,6770.0,0.925134605563704
404,6790.0,0.9118926115084639
405,6810.0,0.917468617453224
406,6830.0,0.928272623397984
407,6850.0,0.902481629342744
408,6870.0,0.918862635287504
409,6890.0,0.932104641232264
410,6910.0,0.9282726471770241
411,6930.0,0.919907653121784
412,6950.0,0.9192116590665441
413,6970.0,0.9307106650113041
414,6990.0,0.9254846709560641
415,7010.0,0.9087566769008242
416,7030.0,0.9296666828455842
417,7050.0,0.9348946887903442
418,7070.0,0.9059676947351042
419,7090.0,0.8766957006798642
420,7110.0,0.8529967066246242
421,7130.0,0.8352247125693842
422,7150.0,0.8327837185141442
423,7170.0,0.8425437244589042
424,7190.0,0.8212847304036642
425,7210.0,0.8428917363484243
426,7230.0,0.8606637422931843
427,7250.0,0.8669377482379443
428,7270.0,0.8721647541827043
429,7290.0,0.8571787601274644
430,7310.0,0.8833167660722244
431,7330.0,0.8861037720169844
432,7350.0,0.8948167779617444
433,7370.0,0.9185137839065044
434,7390.0,0.8986487898512646
435,7410.0,0.8983017957960245
436,7430.0,0.9199078017407846
437,7450.0,0.9199078076855446
438,7470.0,0.9348948136303047
439,7490.0,0.9321048195750646
440,7510.0,0.9436068255198247
441,7530.0,0.9603328314645847
442,7550.0,0.9669558374093448
443,7570.0,0.9624248433541047
444,7585.77575,0.9459313014182573
445,7590.0,0.9415149368202957
446,7610.0,0.9240893571412455
447,7630.0,0.9049237774621955
448,7650.0,0.8857571977831453
449,7670.0,0.8411496181040953
450,7690.0,0.863105038425045
451,7710.0,0.847423458745995
452,7730.0,0.8477718790669448
453,7750.0,0.8418502993878948
454,7770.0,0.8526527197088446
455,7790.0,0.8620621400297945
456,7810.0,0.8585775603507444
457,7830.0,0.8516079806716943
458,7850.0,0.8387144009926442
459,7870.0,0.8543978213135941
460,7890.0,0.8397622416345438
461,7910.0,0.8198966619554938
462,7930.0,0.8226870822764436
463,7950.0,0.8150185025973935
464,7970.0,0.8446429229183434
465,7990.0,0.8453393432392933
466,8010.0,0.8533537635602432
467,8030.0,0.856143183881193
468,8050.0,0.8564906042021428
469,8070.0,0.8672960245230928
470,8090.0,0.8578864448440426
471,8110.0,0.8676448651649926
472,8130.0,0.8948282854859424
473,8150.0,0.9056317058068923
474,8170.0,0.9160871261278422
475,8190.0,0.8864645464487921
476,8210.0,0.8746179667697419
477,8230.0,0.8808903870906919
478,8250.0,0.8801948074116417
479,8270.0,0.8906482277325917
480,8290.0,0.8801956480535414
481,8310.0,0.8460430683744914
482,8330.0,0.8411634886954412
483,8350.0,0.8411639090163912
484,8370.0,0.847785329337341
485,8390.0,0.8178167496582908
486,8410.0,0.8460451699792407
487,8430.0,0.8035295903001906
488,8450.0,0.7840150106211404
489,8470.0,0.7847114309420903
490,8490.0,0.7895908512630402
491,8510.0,0.75160527158399
492,8530.0,0.78645569190494
493,8550.0,0.7101361122258898
494,8570.0,0.8174715325468398
495,8590.0,0.8024869528677896
496,8610.0,0.8125943731887395
497,8630.0,0.8355947935096893
498,8650.0,0.8324592138306393
499,8670.0,0.7341846341515891
500,8690.0,0.814687054472539
501,8709.6359,0.8489010593015447
502,8710.0,0.8495354890561477
503,8730.0,0.8551126928244415
504,8750.0,0.8366448965927351
505,8770.0,0.8634791003610288
506,8790.0,0.8774213041293225
507,8810.0,0.8599965078976162
508,8830.0,0.8694077116659098
509,8850.0,0.8638329154342035
510,8870.0,0.8213181192024971
511,8890.0,0.8453653229707908
512,8910.0,0.8593065267390846
513,8930.0,0.8411847305073782
514,8950.0,0.8453689342756718
515,8970.0,0.8481561380439656
516,8990.0,0.8481573418122592
517,9010.0,0.8119175455805528
518,9030.0,0.8495547493488466
519,9050.0,0.8857999531171402
520,9070.0,0.8861491568854339
521,9090.0,0.8680293606537276
522,9110.0,0.8809245644220213
523,9130.0,0.900441768190315
524,9150.0,0.8931239719586087
525,9170.0,0.8924301757269023
526,9190.0,0.9035823794951959
527,9210.0,0.8610675832634896
528,9230.0,0.8258697870317833
529,9250.0,0.832143990800077
530,9270.0,0.8419041945683707
531,9290.0,0.8314493983366644
532,9310.0,0.838072602104958
533,9330.0,0.8398168058732517
534,9350.0,0.8366810096415455
535,9370.0,0.8220462134098391
536,9390.0,0.8377284171781327
537,9410.0,0.8178656209464265
538,9430.0,0.84330582471472
539,9450.0,0.8297170284830138
540,9470.0,0.8523702322513075
541,9490.0,0.8544624360196011
542,9510.0,0.8356446397878948
543,9530.0,0.8384338435561886
544,9550.0,0.8133440473244821
545,9570.0,0.8325122510927758
546,9590.0,0.8534214548610696
547,9610.0,0.8412256586293632
548,9630.0,0.8461068623976569
549,9650.0,0.8311230661659506
550,9670.0,0.8311242699342442
551,9690.0,0.8464594737025378
552,9710.0,0.8321716774708315
553,9730.0,0.8238098812391252
554,9750.0,0.8203250850074189
555,9770.0,0.8252052887757126
556,9790.0,0.8133584925440062
557,9810.0,0.8356626963123
558,9830.0,0.8255589000805936
559,9850.0,0.8332261038488872
560,9870.0,0.8273023076171809
561,9890.0,0.8266065113854747
562,9910.0,0.8189417151537682
563,9930.0,0.825214918922062
564,9950.0,0.8276561226903557
565,9970.0,0.8283553264586493
566,9990.0,0.825218530226943
567,10000.0,0.8245223821110899
568,10030.0,0.822433942539311
569,10070.0,0.8102373564436057
570,10130.0,0.8259239773000479
571,10170.0,0.8165173912043426
572,10220.0,0.8207014085847112
573,10280.0,0.8241920294411533
574,10320.0,0.8144354433454482
575,10380.0,0.8088630642018904
576,10430.0,0.8130470815822588
577,10480.0,0.7998090989626273
578,10520.0,0.791098512866922
579,10580.0,0.7740251337233642
580,10630.0,0.7663621511037327
581,10680.0,0.7586981684841012
582,10720.0,0.764974582388396
583,10780.0,0.7607952032448382
584,10820.0,0.748948617149133
585,10870.0,0.7468596345295014
586,10920.0,0.7412886519098699
587,10980.0,0.7343222727663121
588,11020.0,0.731187686670607
589,11080.0,0.718298307527049
590,11130.0,0.7169063249074176
591,11170.0,0.7120297388117124
592,11220.0,0.7123817561920809
593,11280.0,0.702974377048523
594,11330.0,0.7026313944288916
595,11380.0,0.69810241180926
596,11430.0,0.6907884291896285
597,11470.0,0.7008958430939232
598,11481.5362,0.7004274004759913
599,11530.0,0.6984621578080266
600,11570.0,0.6901047951101243
601,11620.0,0.6796555917377467
602,11670.0,0.678963388365369
603,11730.0,0.6821063443185157
604,11770.0,0.6653839816206135
605,11830.0,0.6580729375737603
606,11870.0,0.6458795748758581
607,11920.0,0.6566883715034804
608,11980.0,0.6343923274566271
609,12030.0,0.6479891240842494
610,12070.0,0.6424177613863472
611,12120.0,0.6438165580139695
612,12180.0,0.6455675139671162
613,12230.0,0.6413903105947385
614,12270.0,0.6368649478968363
615,12320.0,0.6316437445244587
616,12370.0,0.6306045411520809
617,12430.0,0.6205064971052277
618,12480.0,0.6184202937328499
619,12530.0,0.6125020903604722
620,12580.0,0.6100678869880946
621,12620.0,0.6069355242901923
622,12670.0,0.6010163209178147
623,12720.0,0.6013701175454369
624,12780.0,0.6010290734985836
625,12830.0,0.577337870126206
626,12880.0,0.5902386667538282
627,12920.0,0.583620304055926
628,12980.0,0.5902502600090728
629,13020.0,0.5818898973111706
630,13080.0,0.5843378532643173
631,13130.0,0.5707516498919395
632,13180.0,0.5693634465195619
633,13182.5674,0.5693637441647971
634,13230.0,0.5693718647479812
635,13280.0,0.5589254248766521
636,13320.0,0.559629272979589
637,13380.0,0.5530175451339943
638,13430.0,0.5547691052626654
639,13470.0,0.5495489533656022
640,13520.0,0.5457235134942734
641,13570.0,0.5370210736229444
642,13630.0,0.5349393457773497
643,13670.0,0.5373861938802865
644,13730.0,0.5384424660346918
645,13770.0,0.5370553141376286
646,13820.0,0.5374118742662998
647,13880.0,0.532195146420705
648,13930.0,0.507808706549376
649,13970.0,0.5046795546523128
650,14020.0,0.498764114780984
651,14080.0,0.5029553869353893
652,14120.0,0.4959922350383261
653,14180.0,0.5015785071927314
654,14230.0,0.4956640673214025
655,14280.0,0.48765562745007357
656,14330.0,0.4967261875787446
657,14380.0,0.5002197477074157
