,lambda (Angstroms),Total Flux (erg/s/cm^2/Angstrom)
0,1005.0,2.2116060938106687
1,1015.0,2.181304314509415
2,1025.0,2.1459633352081613
3,1035.0,2.1220041459069074
4,1045.0,2.1069838766056534
5,1055.0,2.0835751973044
6,1065.0,2.052433618003146
7,1075.0,2.0290947387018923
8,1085.0,1.9966357594006385
9,1095.0,1.9751543800993847
10,1096.4782,1.9734981487510734
11,1105.0,1.9681620065964747
12,1115.0,1.952525751856163
13,1125.0,1.9339971971158512
14,1135.0,1.9186746423755396
15,1145.0,1.8901440876352282
16,1155.0,1.8761460328949167
17,1165.0,1.859812778154605
18,1175.0,1.8277277234142935
19,1185.0,1.7994760686739815
20,1195.0,1.7375286139336696
21,1205.0,1.7163269591933585
22,1215.0,1.6851305644530468
23,1225.0,1.6702507497127352
24,1235.0,1.6841457949724234
25,1245.0,1.6954132402321116
26,1255.0,1.6763617854918003
27,1258.92541,1.6538219027675833
28,1265.0,1.6228354627682549
29,1275.0,1.684212934527289
30,1285.0,1.699000206286323
31,1295.0,1.6586534780453572
32,1305.0,1.6075044498043911
33,1315.0,1.6482530215634257
34,1325.0,1.6436622933224598
35,1335.0,1.596903565081494
36,1345.0,1.633991836840528
37,1355.0,1.6095721085995625
38,1365.0,1.5683203803585966
39,1375.0,1.5792016521176306
40,1385.0,1.5650289238766648
41,1395.0,1.5561511956356993
42,1405.0,1.5384224673947333
43,1415.0,1.5056747391537675
44,1425.0,1.5073210109128017
45,1435.0,1.4735262826718358
46,1442.0,1.4840605729031597
47,1445.43977,1.492275869073017
48,1447.0,1.4967521589199324
49,1455.0,1.4784541075270738
50,1465.0,1.4454940432860008
51,1475.0,1.426403979044928
52,1485.0,1.4318109148038551
53,1495.0,1.4353728505627823
54,1505.0,1.4218937863217094
55,1512.0,1.3856447413529585
56,1517.0,1.4017657092324218
57,1525.0,1.3641976578395636
58,1535.0,1.3288665935984907
59,1545.0,1.3722605293574177
60,1555.0,1.3356764651163449
61,1565.0,1.3106954008752718
62,1575.0,1.316418336634199
63,1585.0,1.324613272393126
64,1595.0,1.3269212081520534
65,1605.0,1.3008951439109802
66,1615.0,1.2878690796699073
67,1625.0,1.2548740154288345
68,1635.0,1.2570059511877616
69,1645.0,1.2564208869466889
70,1655.0,1.2103568227056156
71,1659.58691,1.2194232795448137
72,1665.0,1.2319246399757535
73,1672.0,1.1666407189433259
74,1677.0,1.2265240610630208
75,1685.0,1.2439980084545321
76,1695.0,1.2145746926939216
77,1705.0,1.193863376933311
78,1715.0,1.1822860611727004
79,1725.0,1.1725517454120897
80,1735.0,1.1823344296514793
81,1745.0,1.1702321138908685
82,1755.0,1.188970798130258
83,1765.0,1.1404854823696473
84,1775.0,1.1574121666090367
85,1785.0,1.146041850848426
86,1795.0,1.1681605350878155
87,1805.0,1.147450219327205
88,1815.0,1.1333959035665946
89,1825.0,1.1184005878059837
90,1835.0,1.0985622720453732
91,1845.0,1.0713349562847627
92,1855.0,1.075261640524152
93,1865.0,1.0749393247635413
94,1875.0,1.0759740090029308
95,1885.0,1.0607706932423202
96,1895.0,1.0556373774817094
97,1905.0,1.040887061721099
98,1905.46072,1.040795087461376
99,1915.0,1.0408739968174894
100,1925.0,1.0341257172703044
101,1935.0,1.0145534377231196
102,1945.0,1.0309461581759347
103,1955.0,1.02025987862875
104,1967.0,1.0308771431721284
105,1976.0,1.0251520915796621
106,1984.0,1.012366267941914
107,1995.0,0.9977997604400111
108,2005.0,0.988716480892826
109,2015.0,0.9731862013456414
110,2025.0,0.9699239217984565
111,2035.0,0.9678116422512718
112,2045.0,0.9744463627040869
113,2055.0,0.9571740831569022
114,2065.0,0.9470108036097173
115,2074.0,0.9598267520172511
116,2078.0,0.9674068401983771
117,2085.0,0.9646702445153478
118,2095.0,0.946839964968163
119,2105.0,0.9306136854209782
120,2115.0,0.9273864058737935
121,2125.0,0.9245061263266087
122,2135.0,0.888589846779424
123,2145.0,0.9057135672322392
124,2155.0,0.9044362876850544
125,2165.0,0.8837850081378694
126,2175.0,0.8758517285906847
127,2185.0,0.8751324490435
128,2187.7616199999998,0.8767628322911902
129,2195.0,0.882371223809489
130,2205.0,0.8676743546319916
131,2215.0,0.8437784854544942
132,2225.0,0.8360866162769967
133,2235.0,0.8589937470994993
134,2245.0,0.8377468779220019
135,2255.0,0.8201570087445044
136,2265.0,0.8192621395670071
137,2275.0,0.8263122703895095
138,2285.0,0.8358024012120122
139,2295.0,0.8179335320345147
140,2305.0,0.8157486628570173
141,2315.0,0.7994497936795198
142,2325.0,0.7519959245020226
143,2335.0,0.769360055324525
144,2345.0,0.7496121861470276
145,2355.0,0.7793483169695303
146,2365.0,0.7434994477920328
147,2375.0,0.7538935786145353
148,2385.0,0.7242827094370379
149,2395.0,0.7375368402595405
150,2405.0,0.7275799710820432
151,2415.0,0.7313541019045456
152,2425.0,0.7533542327270483
153,2435.0,0.7436063635495508
154,2445.0,0.7557094943720534
155,2455.0,0.749726625194556
156,2465.0,0.7420697560170586
157,2475.0,0.7278608868395612
158,2485.0,0.7235510176620638
159,2495.0,0.7163811484845664
160,2505.0,0.7436092793070688
161,2511.88643,0.7057043927480694
162,2513.0,0.6996844957053691
163,2518.0,0.6958082757834042
164,2525.0,0.6863731678926532
165,2535.0,0.6918267280487235
166,2545.0,0.6898582882047937
167,2555.0,0.7155268483608639
168,2565.0,0.6988514085169342
169,2575.0,0.7153189686730044
170,2585.0,0.7070425288290747
171,2595.0,0.6966410889851448
172,2605.0,0.683555649141215
173,2615.0,0.6752442092972852
174,2625.0,0.6944647694533554
175,2635.0,0.7151473296094257
176,2645.0,0.752280889765496
177,2655.0,0.7753684499215662
178,2665.0,0.7175020100776364
179,2675.0,0.7340395702337067
180,2685.0,0.7376471303897768
181,2695.0,0.7088436905458472
182,2705.0,0.7263222507019172
183,2715.0,0.6938948108579874
184,2725.0,0.6840863710140577
185,2735.0,0.7028179311701279
186,2745.0,0.6439744913261981
187,2755.0,0.6555630514822683
188,2765.0,0.6710906116383386
189,2775.0,0.6834441717944088
190,2785.0,0.6466617319504789
191,2795.0,0.5795945921065493
192,2805.0,0.5923328522626194
193,2815.0,0.6659524124186897
194,2825.0,0.6991819725747599
195,2835.0,0.6881185327308301
196,2845.0,0.6651350928869004
197,2855.0,0.6361596530429705
198,2865.0,0.6883472131990408
199,2875.0,0.702965773355111
200,2884.0315,0.6935717129600657
201,2885.0,0.69264611314699
202,2895.0,0.7003730680971616
203,2910.0,0.7526700005224192
204,2930.0,0.7231689104227625
205,2950.0,0.7099438203231059
206,2970.0,0.7178727302234493
207,2990.0,0.7174706401237928
208,3010.0,0.7203105500241361
209,3030.0,0.7206764599244795
210,3050.0,0.7209373698248229
211,3070.0,0.7293192797251662
212,3090.0,0.7283951896255096
213,3110.0,0.7391470995258529
214,3130.0,0.7237600094261964
215,3150.0,0.7229409193265398
216,3170.0,0.7310438292268833
217,3190.0,0.6952357391272266
218,3210.0,0.7146296490275701
219,3230.0,0.6772175589279132
220,3250.0,0.7317054688282567
221,3270.0,0.7624593787286
222,3290.0,0.7531712886289434
223,3310.0,0.7410971985292869
224,3311.31121,0.7410137996663083
225,3330.0,0.7409317261129903
226,3350.0,0.7303878942594374
227,3370.0,0.6795940624058845
228,3390.0,0.6957132305523317
229,3410.0,0.6979933986987787
230,3430.0,0.7010425668452258
231,3450.0,0.710084734991673
232,3470.0,0.7113919031381201
233,3490.0,0.7322120712845672
234,3510.0,0.7464122394310142
235,3530.0,0.7173994075774613
236,3550.0,0.7514645757239085
237,3570.0,0.6646717438703555
238,3590.0,0.6639919120168027
239,3610.0,0.7062460801632497
240,3630.0,0.7176562483096969
241,3640.0,0.7238863323829204
242,3650.0,0.765313416456144
243,3670.0,0.772194584602591
244,3690.0,0.7264547527490381
245,3710.0,0.7587769208954853
246,3730.0,0.6736570890419324
247,3750.0,0.7362982571883796
248,3770.0,0.8027714253348266
249,3790.0,0.8546095934812739
250,3801.8939600000003,0.86865051325763
251,3810.0,0.878557814665928
252,3830.0,0.7064500597185024
253,3850.0,0.8493823047710766
254,3870.0,0.8860225498236509
255,3890.0,0.7864027948762253
256,3910.0,0.9735940399287996
257,3930.0,0.7335302849813738
258,3950.0,0.8938865300339482
259,3970.0,0.6653247750865225
260,3990.0,1.0480190201390969
261,4010.0,1.130313265191671
262,4030.0,1.1272255102442454
263,4050.0,1.10218375529682
264,4070.0,1.059368000349394
265,4090.0,1.0883422454019684
266,4110.0,0.9901154904545428
267,4130.0,1.090531735507117
268,4150.0,1.1034749805596913
269,4170.0,1.1035242256122655
270,4190.0,1.09416347066484
271,4210.0,1.0987437157174142
272,4230.0,1.0628969607699887
273,4250.0,1.098144205822563
274,4270.0,1.0546324508751372
275,4290.0,1.0261046959277116
276,4310.0,0.9442579409802858
277,4330.0,1.0429321860328602
278,4350.0,1.0022054310854345
279,4365.15832,1.1218941957026978
280,4370.0,1.1602696922566422
281,4390.0,1.092269100337891
282,4410.0,1.1187085084191397
283,4430.0,1.1503769165003883
284,4450.0,1.159742324581637
285,4470.0,1.2018657326628857
286,4490.0,1.2101851407441342
287,4510.0,1.319225548825383
288,4530.0,1.1996399569066316
289,4550.0,1.2260823649878803
290,4570.0,1.2953797730691288
291,4590.0,1.2395811811503776
292,4610.0,1.260452589231626
293,4630.0,1.2283459973128747
294,4650.0,1.2422354053941234
295,4670.0,1.275646813475372
296,4690.0,1.2501582215566205
297,4710.0,1.2121336296378693
298,4730.0,1.251821037719118
299,4750.0,1.2761724458003667
300,4770.0,1.2618338538816152
301,4790.0,1.2600452619628637
302,4810.0,1.2495466700441127
303,4830.0,1.2707580781253613
304,4850.0,1.1644254862066097
305,4870.0,1.0549548942878584
306,4890.0,1.217302302369107
307,4910.0,1.225273710450356
308,4930.0,1.2043211185316045
309,4950.0,1.246096526612853
310,4970.0,1.2254979346941017
311,4990.0,1.1554013427753502
312,5010.0,1.102384750856599
313,5011.87234,1.107209060303941
314,5030.0,1.1542993859635426
315,5050.0,1.1477064999083113
316,5070.0,1.18607061385308
317,5090.0,1.1327797277978489
318,5110.0,1.1540648417426178
319,5130.0,1.1171539556873864
320,5150.0,1.0837270696321553
321,5170.0,1.020679183576924
322,5190.0,1.0430102975216926
323,5210.0,1.1022834114664615
324,5230.0,1.1584195254112304
325,5250.0,1.196778639355999
326,5270.0,1.0800667533007677
327,5290.0,1.2031048672455364
328,5310.0,1.2575079811903054
329,5330.0,1.130684095135074
330,5350.0,1.2174842090798428
331,5370.0,1.2098573230246117
332,5390.0,1.1833904369693804
333,5410.0,1.1652985509141494
334,5430.0,1.181006664858918
335,5450.0,1.2082197788036866
336,5470.0,1.1814128927484555
337,5490.0,1.1824860066932243
338,5510.0,1.170669120637993
339,5530.0,1.2017222345827618
340,5550.0,1.2146353485275305
341,5570.0,1.1923584624722992
342,5590.0,1.1655555764170682
343,5610.0,1.2004346903618368
344,5630.0,1.1886178043066058
345,5650.0,1.2011909182513745
346,5670.0,1.174034032196143
347,5690.0,1.205777146140912
348,5710.0,1.1699102600856808
349,5730.0,1.2535733740304495
350,5750.0,1.2055064879752182
351,5754.399369999999,1.2079686204599778
352,5770.0,1.2169301102738725
353,5790.0,1.172638735815142
354,5810.0,1.214777361356411
355,5830.0,1.2454259868976802
356,5850.0,1.2084646124389495
357,5870.0,1.2060032379802186
358,5890.0,1.0784248635214877
359,5910.0,1.184700489062757
360,5930.0,1.192679114604026
361,5950.0,1.1912677401452956
362,5970.0,1.2079663656865647
363,5990.0,1.1863349912278338
364,6010.0,1.1706236167691029
365,6030.0,1.1984922423103723
366,6050.0,1.2158908678516414
367,6070.0,1.2123694933929106
368,6090.0,1.1698381189341798
369,6110.0,1.171906744475449
370,6130.0,1.1133293700167182
371,6150.0,1.1373519955579874
372,6170.0,1.0871456210992565
373,6190.0,1.1481112466405257
374,6210.0,1.1372788721817948
375,6230.0,1.1031014977230642
376,6250.0,1.0692731232643333
377,6270.0,1.1152497488056023
378,6290.0,1.1336963743468718
379,6310.0,1.102655999888141
380,6330.0,1.11552562542941
381,6350.0,1.1102742509706793
382,6370.0,1.1043238765119483
383,6390.0,1.1279985020532175
384,6410.0,1.1063681275944868
385,6430.0,1.114358753135756
386,6450.0,1.1052743786770252
387,6470.0,1.1028090042182943
388,6490.0,1.0815266297595636
389,6510.0,1.1139132553008326
390,6530.0,1.1072658808421019
391,6550.0,1.071348506383371
392,6570.0,1.0033671319246402
393,6590.0,1.0883757574659096
394,6606.93448,1.100453111538715
395,6610.0,1.102672890412989
396,6630.0,1.0917141242543853
397,6650.0,1.0915603580957818
398,6670.0,1.0677095919371784
399,6690.0,1.081493825778575
400,6710.0,1.0423090596199713
401,6730.0,1.0672462934613678
402,6750.0,1.049318527302764
403,6770.0,1.0536937611441606
404,6790.0,1.0399489949855572
405,6810.0,1.0450222288269535
406,6830.0,1.05532346266835
407,6850.0,1.0290296965097465
408,6870.0,1.0449079303511428
409,6890.0,1.0576471641925393
410,6910.0,1.0533123980339358
411,6930.0,1.0444446318753322
412,6950.0,1.0432458657167287
413,6970.0,1.0542420995581252
414,6990.0,1.0485133333995216
415,7010.0,1.0312825672409183
416,7030.0,1.0516898010823146
417,7050.0,1.0564150349237111
418,7070.0,1.0269852687651075
419,7090.0,0.997210502606504
420,7110.0,0.9730087364479004
421,7130.0,0.9547339702892969
422,7150.0,0.9517902041306934
423,7170.0,0.9610474379720898
424,7190.0,0.9392856718134862
425,7210.0,0.9603899056548827
426,7230.0,0.9776591394962791
427,7250.0,0.9834303733376756
428,7270.0,0.9881546071790721
429,7290.0,0.9726658410204686
430,7310.0,0.998301074861865
431,7330.0,1.0005853087032615
432,7350.0,1.008795542544658
433,7370.0,1.0319897763860544
434,7390.0,1.011622010227451
435,7410.0,1.0107722440688471
436,7430.0,1.0318754779102437
437,7450.0,1.03137271175164
438,7470.0,1.0458569455930367
439,7490.0,1.0425641794344331
440,7510.0,1.0535634132758296
441,7530.0,1.069786647117226
442,7550.0,1.0759068809586225
443,7570.0,1.070873114800019
444,7585.77575,1.0539829925136897
445,7590.0,1.0494928934631538
446,7610.0,1.0317182129847935
447,7630.0,1.0122035325064336
448,7650.0,0.9926878520280733
449,7670.0,0.9477311715497132
450,7690.0,0.969337491071353
451,7710.0,0.9533068105929929
452,7730.0,0.9533061301146327
453,7750.0,0.9470354496362726
454,7770.0,0.9574887691579125
455,7790.0,0.9665490886795524
456,7810.0,0.9627154082011922
457,7830.0,0.955396727722832
458,7850.0,0.9421540472444719
459,7870.0,0.9574883667661117
460,7890.0,0.9425036862877515
461,7910.0,0.9222890058093914
462,7930.0,0.9247303253310313
463,7950.0,0.916712644852671
464,7970.0,0.945987964374311
465,7990.0,0.9463352838959508
466,8010.0,0.9540006034175907
467,8030.0,0.9564409229392304
468,8050.0,0.9564392424608703
469,8070.0,0.9668955619825103
470,8090.0,0.9571368815041501
471,8110.0,0.9665462010257899
472,8130.0,0.9933805205474298
473,8150.0,1.0038348400690695
474,8170.0,1.0139411595907095
475,8190.0,0.9839694791123493
476,8210.0,0.9717737986339892
477,8230.0,0.9776971181556291
478,8250.0,0.9766524376772688
479,8270.0,0.9867567571989088
480,8290.0,0.9759550767205486
481,8310.0,0.9414533962421885
482,8330.0,0.9362247157638283
483,8350.0,0.9358760352854681
484,8370.0,0.942148354807108
485,8390.0,0.9118306743287479
486,8410.0,0.9397099938503877
487,8430.0,0.8968453133720276
488,8450.0,0.8769816328936674
489,8470.0,0.8773289524153072
490,8490.0,0.881859271936947
491,8510.0,0.8435245914585869
492,8530.0,0.8780259109802269
493,8550.0,0.8013572305018666
494,8570.0,0.9083435500235065
495,8590.0,0.8930098695451464
496,8610.0,0.9027681890667862
497,8630.0,0.925419508588426
498,8650.0,0.9219348281100659
499,8670.0,0.8233111476317058
500,8690.0,0.9034644671533456
501,8709.6359,0.9373357265630927
502,8710.0,0.937965958532716
503,8730.0,0.9433125781219546
504,8750.0,0.9246141977111931
505,8770.0,0.9512178173004316
506,8790.0,0.9649294368896701
507,8810.0,0.9472740564789087
508,8830.0,0.9564546760681472
509,8850.0,0.9506492956573857
510,8870.0,0.9079039152466242
511,8890.0,0.9317205348358627
512,8910.0,0.9454311544251013
513,8930.0,0.9270787740143398
514,8950.0,0.9310323936035783
515,8970.0,0.9335890131928168
516,8990.0,0.9333596327820555
517,9010.0,0.8968892523712939
518,9030.0,0.9342958719605323
519,9050.0,0.9703104915497709
520,9070.0,0.9704291111390095
521,9090.0,0.9520787307282479
522,9110.0,0.9647433503174865
523,9130.0,0.9840299699067251
524,9150.0,0.9764815894959635
525,9170.0,0.9755572090852022
526,9190.0,0.9864788286744406
527,9210.0,0.9437334482636791
528,9230.0,0.9083050678529176
529,9250.0,0.9143486874421561
530,9270.0,0.9238783070313947
531,9290.0,0.9131929266206332
532,9310.0,0.9195855462098718
533,9330.0,0.9210991657991102
534,9350.0,0.9177327853883488
535,9370.0,0.9028674049775873
536,9390.0,0.9183190245668258
537,9410.0,0.8982256441560643
538,9430.0,0.9234352637453028
539,9450.0,0.9096158833345414
540,9470.0,0.9320385029237799
541,9490.0,0.9339001225130185
542,9510.0,0.914851742102257
543,9530.0,0.9174103616914955
544,9550.0,0.8920899812807339
545,9570.0,0.9110276008699725
546,9590.0,0.931706220459211
547,9610.0,0.9192798400484495
548,9630.0,0.923930459637688
549,9650.0,0.9087160792269265
550,9670.0,0.9084866988161651
551,9690.0,0.9235913184054035
552,9710.0,0.9090729379946421
553,9730.0,0.9004805575838807
554,9750.0,0.8967651771731191
555,9770.0,0.9014147967623578
556,9790.0,0.8893374163515961
557,9810.0,0.9114110359408347
558,9830.0,0.9010766555300733
559,9850.0,0.9085132751193117
560,9870.0,0.9023588947085504
561,9890.0,0.9014325142977888
562,9910.0,0.8935371338870274
563,9930.0,0.899579753476266
564,9950.0,0.9017903730655044
565,9970.0,0.902258992654743
566,9990.0,0.8988916122439815
567,10000.0,0.8980801720386007
568,10030.0,0.895779289325721
569,10070.0,0.883299445708548
570,10130.0,0.8985611802827886
571,10170.0,0.8888713366656157
572,10220.0,0.8927012821441496
573,10280.0,0.8957670167183901
574,10320.0,0.8857271731012173
575,10380.0,0.8797299076754579
576,10430.0,0.8835598531539917
577,10480.0,0.8699677986325255
578,10520.0,0.8609739550153526
579,10580.0,0.8434756895895931
580,10630.0,0.835458635068127
581,10680.0,0.8274405805466608
582,10720.0,0.833433736929488
583,10780.0,0.8288294715037284
584,10820.0,0.8166996278865556
585,10870.0,0.8142565733650894
586,10920.0,0.8083315188436233
587,10980.0,0.8009402534178638
588,11020.0,0.797522409800691
589,11080.0,0.7842081443749315
590,11130.0,0.7824620898534653
591,11170.0,0.7773022462362924
592,11220.0,0.7773001917148263
593,11280.0,0.7674679262890668
594,11330.0,0.7667708717676007
595,11380.0,0.7618878172461345
596,11430.0,0.7542197627246684
597,11470.0,0.7640439191074954
598,11481.5362,0.7634937836040846
599,11530.0,0.7613455475647125
600,11570.0,0.7528371497672867
601,11620.0,0.7421991525205044
602,11670.0,0.7413181552737221
603,11730.0,0.7442345585775835
604,11770.0,0.7273611607801577
605,11830.0,0.7198235640840189
606,11870.0,0.7074791662865931
607,11920.0,0.7180991690398109
608,11980.0,0.6955765723436721
609,12030.0,0.7089845750968898
610,12070.0,0.703262177299464
611,12120.0,0.7044721800526818
612,12180.0,0.705996583356543
613,12230.0,0.7016305861097607
614,12270.0,0.696954188312335
615,12320.0,0.6915441910655528
616,12370.0,0.6903161938187704
617,12430.0,0.6799915971226318
618,12480.0,0.6777165998758494
619,12530.0,0.6716096026290672
620,12580.0,0.6689866053822849
621,12620.0,0.665703207584859
622,12670.0,0.6595952103380769
623,12720.0,0.6597602130912946
624,12780.0,0.6591926163951558
625,12830.0,0.6353126191483737
626,12880.0,0.6480246219015914
627,12920.0,0.6412552241041655
628,12980.0,0.6476586274080268
629,13020.0,0.6391472296106009
630,13080.0,0.6413686329144622
631,13130.0,0.6275936356676799
632,13180.0,0.6260166384208977
633,13182.5674,0.62600724187827
634,13230.0,0.6259476871304386
635,13280.0,0.6154299088431093
636,13320.0,0.6160766862132461
637,13380.0,0.6093793522684511
638,13430.0,0.611059573981122
639,13470.0,0.6057823513512586
640,13520.0,0.6018855730639294
641,13570.0,0.5931117947766003
642,13630.0,0.5909444608318053
643,13670.0,0.593334238201942
644,13730.0,0.594304904257147
645,13770.0,0.5928606816272837
646,13820.0,0.5931459033399544
647,13880.0,0.5878435693951594
648,13930.0,0.5633857911078303
649,13970.0,0.5601995684779669
650,14020.0,0.5542127901906377
651,14080.0,0.5583184562458429
652,14120.0,0.5512982336159795
653,14180.0,0.5567988996711845
654,14230.0,0.5508131213838553
655,14280.0,0.5427333430965262
656,14330.0,0.551732564809197
657,14380.0,0.5551547865218678
658,14420.0,0.5422095638920045
659,14480.0,0.5515442299472094
660,14520.0,0.5469630073173462
661,14570.0,0.550036229030017
662,14620.0,0.5384754507426879
663,14670.0,0.5359736724553587
664,14720.0,0.5310308941680295
665,14770.0,0.5341051158807003
