,lambda (Angstroms),Total Flux (erg/s/cm^2/Angstrom)
0,1967.87,0.06970366068773762
1,1990.66,0.06106897808489484
2,2013.71,0.052547891073243855
3,2037.03,0.05409318794475356
4,2060.61,0.049261680407455065
5,2084.47,0.04445774504528619
6,2108.61,0.046071181858246935
7,2133.03,0.0445017908463373
8,2157.73,0.04539097200955728
9,2182.71,0.049007125347906876
10,2187.7616199999998,0.04974090954084015
11,2207.99,0.05272179353316616
12,2233.55,0.06115895309179344
13,2259.42,0.06856840202691425
14,2285.58,0.07146652166907738
15,2312.05,0.08031143068773405
16,2338.82,0.08428011974815863
17,2365.9,0.10307129818507674
18,2393.3,0.11744687533321396
19,2421.01,0.12410174185784471
20,2449.04,0.1363349070936946
21,2477.4,0.1427463803754892
22,2506.09,0.1668221617032285
23,2511.88643,0.1683098367097172
24,2535.11,0.1742401823360372
25,2564.46,0.1845015788133177
26,2594.16,0.22112484884313813
27,2624.2,0.22212999603828312
28,2654.58,0.21808002039875266
29,2685.32,0.21361391469897759
30,2716.42,0.23737667893895792
31,2747.87,0.24851431673147825
32,2779.69,0.25368982085096936
33,2811.88,0.27114219129743133
34,2844.44,0.3104704280708641
35,2877.38,0.3055065275584832
36,2884.0315,0.30749777735181083
37,2910.69,0.3154879274113386
38,2944.4,0.31188567817156426
39,2978.49,0.3272994261222048
40,3012.98,0.34033417111538733
41,3047.87,0.34984791315111186
42,3083.16,0.3629476522293783
43,3118.86,0.3861793882762503
44,3154.98,0.38264512121779143
45,3191.51,0.42142185112793806
46,3228.47,0.4253145778588173
47,3265.85,0.42825630148436566
48,3303.67,0.4282560218567102
49,3311.31121,0.431461078386198
50,3341.92,0.4442956391748009
51,3380.62,0.43519216939375355
52,3419.77,0.445306636010601
53,3459.37,0.46948003902534324
54,3499.42,0.4204273784379802
55,3539.95,0.4683906500083717
56,3580.94,0.4598488565632779
57,3622.4,0.4727059966893186
58,3664.35,0.4836950675597337
59,3706.78,0.5230200705879032
60,3749.7,0.5514210043604469
61,3793.12,0.5401188674639851
62,3801.8939600000003,0.5601956521832231
63,3837.04,0.6406186949303387
64,3881.47,0.6153397237218948
65,3926.42,0.9002456943314028
66,3971.88,0.8510936078777485
67,4017.88,0.781996461004275
68,4064.4,0.9010592559487536
69,4111.46,0.9182159904734132
70,4159.07,0.9064556634593681
71,4207.23,0.8259882749066186
72,4255.95,0.8973138236962788
73,4305.23,0.9478193098283489
74,4355.08,0.9543797321839436
75,4365.15832,0.9698058484853234
76,4405.51,1.0315761869650344
77,4456.53,1.0169694521466908
78,4508.13,1.0368127544472292
79,4560.33,1.0044160951466108
80,4613.14,1.0235394748848168
81,4666.56,1.024962893661847
82,4720.59,0.9829293514777014
83,4775.25,0.9815768496123415
84,4830.55,1.0886733887057478
85,4886.48,1.5988769681179398
86,4943.07,1.0202805897688598
87,5000.31,1.0079142530185268
88,5011.87234,0.9940575584502489
89,5058.21,0.9385255544253764
90,5116.78,1.0137330560230895
91,5176.03,1.026647609884529
92,5235.96,1.0261822160096947
93,5296.59,1.0121168759357548
94,5357.92,1.0121215896627098
95,5419.97,1.0278563587277278
96,5482.73,1.0010111823622247
97,5546.21,0.9998700613347845
98,5610.44,1.0021809979511602
99,5675.4,1.0044959906741828
100,5741.12,0.9677440418096057
101,5754.399369999999,0.9687258342024466
102,5807.6,0.9726654767600313
103,5874.85,0.9600066413213131
104,5942.87,0.9660019566143746
105,6011.69,0.9328174285118827
106,6081.3,0.9247110550562815
107,6151.72,0.9268548401626824
108,6222.95,0.9506237838310855
109,6295.01,0.9360968899766017
110,6367.9,0.9322421585992311
111,6441.64,0.9638795936140848
112,6516.23,0.9079331950211631
113,6591.69,0.9031569667355769
114,6606.93448,0.9044091513717115
115,6668.01,0.9094140197292127
116,6745.23,0.9017061067180133
117,6823.33,0.9037821946981394
118,6902.34,0.8893462837033861
119,6982.27,0.8771563737450183
120,7063.12,0.8645374648230361
121,7144.91,0.8751405569599696
122,7227.64,0.8852656501558189
123,7311.33,0.8913957444331141
124,7395.99,0.8963298398031201
125,7481.63,0.8671269362771021
126,7568.27,0.8677250338775903
127,7585.77575,0.8669693277934054
128,7655.9,0.8639476389233836
129,7744.56,0.8435327006025489
130,7834.23,0.847427842727191
131,7924.95,0.8486060684832691
132,8016.72,0.8410353778707834
133,8109.55,0.8050807716862235
134,8203.45,0.8088002507260796
135,8298.44,0.743173816583331
136,8394.53,0.773344470054468
137,8491.74,0.8164852127324702
138,8590.07,0.8142430446173375
139,8689.53,0.8187579665055599
140,8709.6359,0.804793740422608
141,8790.15,0.7488859338981866
142,8891.94,0.8020291530971485
143,8994.9,0.7383316391834548
144,9099.06,0.7128333990003706
145,9204.42,0.6977774325478961
146,9418.82,0.7363933390834834
147,9527.89,0.7264982189148104
148,9638.15,0.7368603701956585
149,9749.74,0.7165418248612657
150,9862.65,0.7149215806305435
151,9976.85,0.7054476306602266
152,10000.0,0.7028758585889046
153,10092.4,0.6926110443842043
154,10209.3,0.6831527808366143
155,10327.5,0.6753748146148426
156,10447.1,0.6700531685901057
157,10568.1,0.6631268427624035
158,10690.5,0.7096658371317364
159,10814.3,0.6319471516981039
160,10939.5,0.6261957864615064
161,11066.1,0.6190737414219437
162,11194.3,0.6078310623218495
163,11323.9,0.59406070341879
164,11455.0,0.5900116875839821
165,11481.5362,0.5881364261434945
166,11587.7,0.5806564023769633
167,11721.9,0.5711433664027707
168,11857.6,0.5624089894899696
169,11994.9,0.5522353155759859
170,12133.8,0.5372973446608196
171,12274.3,0.5251720767444705
172,12416.4,0.520437511826939
173,12560.2,0.5104526938456507
174,12705.6,0.5075985788631799
175,12852.8,0.5018752547543788
176,13001.6,0.49395163364439487
177,13152.1,0.4861567594706545
178,13182.5674,0.482455243777046
179,13304.4,0.46767919626965243
180,13458.5,0.4693861829480761
181,13614.3,0.4652072726592923
182,13772.0,0.4455085951718647
183,13931.5,0.43453908560151155
184,14092.8,0.4371357439482328
185,14256.0,0.41295363509631033
186,14421.0,0.4140056941614622
187,14588.0,0.4227190509122523
188,14756.9,0.4142256404643987
189,14927.8,0.41103852770218335
190,15100.7,0.4097457126256061
191,15135.6125,0.4066544020353107
192,15275.5,0.39433603951630375
193,15452.4,0.39997069690117176
194,15631.4,0.4001737363126549
195,15812.4,0.36553604432091436
196,15995.5,0.38102573435578907
197,16180.7,0.3864728064172789
198,16368.0,0.36699826050538387
199,16557.6,0.36804832347978167
200,16749.3,0.3551417684807946
201,16943.2,0.33352970893826156
202,17139.4,0.32702725828202134
203,17337.9,0.31068841651207385
204,17378.0083,0.3096922539987896
205,17538.7,0.3058622284139515
206,17741.8,0.2998191506852619
207,17947.2,0.2832389868966216
208,18155.0,0.271874950697598
209,18365.2,0.26870104208819107
210,18577.9,0.26499147471796813
211,18793.0,0.25111503493736187
212,19010.6,0.24175893639593962
213,19230.8,0.2416953927432688
214,19453.4,0.23123997668021462
215,19678.7,0.2286943291554792
216,19906.6,0.22082823651949515
217,19952.6231,0.22006939691517988
218,20137.1,0.2173766274750853
219,20370.3,0.21273094424223818
220,20606.1,0.20914173366631472
221,20844.7,0.20176380133630906
222,21086.1,0.19557714725222114
223,21330.3,0.19047177141405106
224,21577.3,0.18869667382179875
225,21827.1,0.18353585447546422
226,22079.9,0.17679911896404163
227,22335.5,0.1697526616985368
228,22594.2,0.15679669106244096
229,22855.8,0.14460340146675996
230,22908.6765,0.14504051593768524
231,23120.5,0.14746006212725868
232,23388.2,0.14253713931399611
233,23659.0,0.1362774859788018
234,23933.0,0.1327108204919361
235,24210.1,0.12989722448313867
236,24490.4,0.12797391632266988
237,24774.0,0.1282922143807899
238,25060.9,0.12868651865749875
239,25351.1,0.12939882915279644
240,25644.6,0.12839264586668298
241,25941.6,0.1301740055396789
242,26242.0,0.13099518980152394
243,26302.679900000003,0.1311834230958598
244,26545.8,0.13260591814616324
245,26853.2,0.13360260859579232
246,27164.2,0.13533705651327654
247,27478.7,0.13666666863561988
248,27796.9,0.13859583148881433
249,28118.8,0.13967654507285984
250,28444.4,0.1421175093877565
251,28773.8,0.1436647176965002
252,29106.9,0.14569057673609503
253,29444.0,0.14795326629552885
254,29784.9,0.1499438998488098
255,30129.8,0.1523990639219297
256,30199.5172,0.1529547223134351
257,30478.7,0.1555739026941575
258,30831.6,0.15894441791445485
259,31188.6,0.16224894373946513
260,31549.8,0.1655218145741815
261,31915.1,0.16873639601361085
262,32284.7,0.16949495686773924
263,32658.5,0.17319276273157358
264,33036.7,0.1767719824150999
265,33419.2,0.18056688151332528
266,33806.2,0.18447022883623565
267,34197.7,0.188441824383831
268,34331.5,0.18952065826446518
269,34673.685,0.19223674305207084
270,39645.4,0.2296525643661427
271,39810.7171,0.23128145238443015
272,45708.818999999996,0.2746333148818121
273,46649.2,0.2787962605735062
274,52480.746,0.3154582893697939
275,56634.8,0.32697681750078816
276,60255.9586,0.33820191000441696
277,60291.7,0.33823943888443
278,62207.8,0.3773017175265127
279,64184.7,0.35083598285584483
280,66640.1,0.340796198182691
281,67000.0,0.34553350149882667
282,68329.0,0.3621355826931744
283,68757.9,0.3813844476778034
284,69242.2916,0.37351147136882945
285,70943.0,0.34293532063188986
286,71559.6261,0.3463065355220383
287,72741.0,0.35091479598166914
288,73954.515,0.35682270221188733
289,76429.5536,0.35541090513559115
290,76954.8,0.3518434026675401
291,78987.42450000001,0.3146904312741813
292,79400.4,0.3064762891675348
293,81630.8998,0.2382908691254377
294,82437.9,0.21471610572729316
295,84362.84430000001,0.1759190311340085
296,86669.4,0.14561940731326364
297,87186.21900000001,0.13763855096502503
298,88866.0,0.1178901239567626
299,90104.0836,0.10631166206901121
300,91690.1,0.09376827834758629
301,93119.6005,0.08634456246157614
302,95197.8,0.08366080472273688
303,96236.03790000001,0.0872313269548068
304,97001.7,0.09139732090665878
305,99456.7731,0.09221451213461432
306,101345.0,0.09476771543505226
307,102785.297,0.10065744795059428
308,105222.0,0.11009026050519402
309,106225.216,0.11524774732422977
310,107889.0,0.12496601598734325
311,109780.26,0.13849956212181166
312,111317.0,0.14944280587492692
313,113426.0,0.1800150933691258
314,113454.28,0.18002102998010514
315,117251.259,0.18053514369197918
316,119249.0,0.18086907820102932
317,120750.0,0.19430082988094294
318,121175.312,0.19718312437789032
319,123810.0,0.21343935770552883
320,125230.691,0.2241269080120114
321,128547.0,0.24756916230504375
322,129421.79100000001,0.24349123957613797
323,132632.0,0.22565964558088303
324,133753.155,0.22698047886438552
325,138229.477,0.22880682790701462
326,141197.0,0.22835873996330258
327,142855.609,0.22862553680969203
328,147636.563,0.22547379100311327
329,152206.0,0.22270914474119982
330,152577.522,0.2227671958081578
331,157683.84,0.22320046445580066
332,162961.05099999998,0.22426718374382407
333,163051.0,0.22427637428837977
334,168414.875,0.22371825949174462
335,174051.222,0.2250707578194458
336,179876.201,0.22674501305589817
337,185896.125,0.22744195752424545
338,189470.0,0.2289945330168347
339,192117.51799999998,0.22904772813110597
340,198547.123,0.22793042866971622
341,205191.907,0.22690713361805037
342,212059.073,0.22405373898977438
343,219156.062,0.22134304537193497
344,226490.56699999998,0.21863623112791347
345,234070.535,0.21357222949197407
346,241904.18300000002,0.2087484902212889
347,244879.0,0.20672843560230153
348,250000.0,0.20536179484869116
349,275422.87,0.19817882561872055
350,279267.0,0.19723958887297627
351,316227.766,0.1785447526185711
352,349819.0,0.16553234439054026
353,363078.055,0.1584742853231434
354,416869.38300000003,0.13816272162200705
355,449304.0,0.13071137799520716
356,478630.092,0.12086796201738838
357,518848.0,0.11203885958266441
358,549540.874,0.10275554572286237
359,602917.0,0.09069334181762177
360,630957.3439999999,0.08407758499213368
361,705004.0,0.0698881286860281
362,724435.96,0.06685138292683282
363,779238.0,0.059558679243001324
364,831763.771,0.05100056535025108
365,888660.0,0.0423723229616231
366,898455.0,0.041400667352593616
367,908859.0,0.04057915609620335
368,919383.0,0.03968175013097352
369,930029.0,0.038799431211756795
370,940798.0,0.03801699021597951
371,951692.0,0.037162608898494355
372,954992.586,0.03676593034765438
373,962712.0,0.035878013123536036
374,973860.0,0.03457404241122581
375,985137.0,0.03324076057388078
376,996544.0,0.031956363649291365
377,1008080.0,0.030787955599667148
378,1019760.0,0.029526976991864545
379,1031560.0,0.028251522918913283
380,1043510.0,0.027028074514526202
381,1055590.0,0.026087411022894743
382,1067820.0,0.025176453199827458
383,1080180.0,0.024294280289515798
384,1092690.0,0.023439713047768318
385,1096478.2,0.02319184140388611
386,1105340.0,0.02263235641037003
387,1118140.0,0.02190915582389291
388,1131090.0,0.021207805621168013
389,1144190.0,0.020528005802195336
390,1157430.0,0.019868673008058065
391,1170840.0,0.019229357315506644
392,1184400.0,0.018609292006707447
393,1198110.0,0.01804877708166047
394,1211980.0,0.01730709589928253
395,1226020.0,0.01596903181849044
396,1240210.0,0.014241818121450568
397,1254570.0,0.01358952152599655
398,1258925.41,0.01346444077717423
399,1269100.0,0.013182059547975442
400,1283800.0,0.012761281263647527
401,1298660.0,0.012381291106837132
402,1313700.0,0.012012175093483944
403,1328910.0,0.011601040215618122
404,1344300.0,0.011177779481209509
405,1359870.0,0.010769392890258104
406,1375610.0,0.010351887434794062
407,1391540.0,0.009972379130757077
408,1407660.0,0.009606057978147146
409,1423960.0,0.009252440968994424
410,1440440.0,0.00885057810329891
411,1445439.77,0.008700728070369016
412,1457120.0,0.008355289317934281
413,1474000.0,0.007961223607085084
414,1491060.0,0.0076026934514519485
415,1508330.0,0.007260019776904221
416,1525800.0,0.006932465608152119
417,1543460.0,0.006529763969905861
418,1561340.0,0.006277105788034791
419,1579420.0,0.006061367111959347
420,1597700.0,0.005852717941679528
421,1616210.0,0.005650889203064679
422,1634920.0,0.005455649970245456
423,1653850.0,0.00525481419380142
424,1659586.91,0.005193289258202143
425,1673000.0,0.00505189481351557
426,1692380.0,0.004857657072880365
427,1711970.0,0.004681404217408555
428,1731800.0,0.004501152659266341
429,1751850.0,0.004308024790342922
430,1772130.0,0.004104259414693698
431,1792650.0,0.003954815336374069
432,1813410.0,0.0038193525553840337
433,1834410.0,0.0036883910717235946
434,1855650.0,0.0035617508853927502
435,1877140.0,0.0034158108004469006
436,1898880.0,0.003253290816886046
437,1905460.7200000002,0.0032047651366287296
438,1920860.0,0.0030923236791839718
439,1943110.0,0.0029329787486256247
440,1965610.0,0.002663651964914937
441,1988370.0,0.0023915828539258143
442,2011390.0,0.0022322314156582573
443,2034680.0,0.002170827175986172
444,2058240.0,0.0020870801349095578
445,2082080.0,0.0019882398183023223
446,2106190.0,0.0018896867002905586
447,2130570.0,0.0017959307808742666
448,2155240.0,0.0017106311118012588
449,2180200.0,0.0016070976930715357
450,2187761.62,0.0015727972359145348
451,2205450.0,0.0014930671125698502
452,2230980.0,0.001412897837289926
453,2256820.0,0.0013431227423728383
454,2282950.0,0.0012797022032790496
455,2309390.0,0.0012164558445480979
456,2336130.0,0.001161593853910214
457,2363180.0,0.001121936043635167
458,2390540.0,0.0010712824137229563
459,2418220.0,0.0010089327764433518
460,2446230.0,0.0009479979440661218
461,2474550.0,0.0008907002920517287
462,2503210.0,0.0008483872572094792
463,2511886.43,0.0008390931653282154
464,2532190.0,0.0008175748450859279
465,2561510.0,0.0007825684685775402
466,2591170.0,0.0007456275713320158
467,2621180.0,0.000708793079210027
468,2651530.0,0.0006753090663509012
469,2682230.0,0.0006419214586153111
470,2713290.0,0.0006115661818639292
471,2744710.0,0.0005773192360967553
472,2776490.0,0.0005462226213137894
473,2808640.0,0.000520344263375704
474,2841170.0,0.0004979500881431716
475,2874070.0,0.00047541016975551976
476,2884031.5,0.00046896149480937256
477,2907340.0,0.00045397747896331724
478,2941010.0,0.0004335444860226011
479,2975070.0,0.0004009563580285175
480,3009520.0,0.0003794060949810665
481,3044360.0,0.0003623136968802482
482,3079620.0,0.00034598507641426504
483,3115280.0,0.000330385291790982
484,3151350.0,0.00031548131390646657
485,3187840.0,0.0003012431136567863
486,3224750.0,0.00028763869104194117
487,3262090.0,0.00026841601695799864
488,3299870.0,0.00024818106230102636
489,3311311.21,0.00024257567602697114
490,3338080.0,0.00022950823267745487
491,3376730.0,0.00020744415033363466
492,3415830.0,0.0001883645547413094
493,3455390.0,0.00017905943449495677
494,3495400.0,0.00017256680100009915
495,3535870.0,0.00016630764285121416
496,3576810.0,0.0001602729486427795
497,3618230.0,0.00015410070696927282
498,3660130.0,0.00014850291783069408
499,3702510.0,0.00014212358122704332
500,3745390.0,0.0001341566743472759
501,3788750.0,0.00012634122000243644
502,3801893.96,0.00012413536893396965
503,3832630.0,0.00011899855577035093
504,3877010.0,0.00011208881342588602
505,3921900.0,0.00010557984420905344
506,3967310.0,9.944724367137541e-05
507,4013250.0,9.366980736437411e-05
508,4059720.0,8.842943528804956e-05
509,4106730.0,8.348072299392393e-05
510,4154290.0,7.844676603351945e-05
511,4202390.0,7.354566885531392e-05
512,4251050.0,6.894912256235173e-05
513,4300280.0,6.463792270615508e-05
514,4350070.0,6.0594373735201786e-05
515,4365158.32,5.9575782734910075e-05
516,4400440.0,5.720355363887585e-05
517,4451400.0,5.6025531261348966e-05
518,4502940.0,5.4745508472146934e-05
519,4555080.0,5.180288180879819e-05
520,4607830.0,4.8681349540066965e-05
521,4661190.0,4.585241166595325e-05
522,4715160.0,4.308846818645706e-05
523,4769760.0,4.0490215639106825e-05
524,4824990.0,3.804795402390256e-05
525,4880860.0,3.5752281609608455e-05
526,4937380.0,3.359419666498877e-05
527,4994550.0,3.163809919004347e-05
528,5011872.34,3.105951582318985e-05
529,5052390.0,2.9710478272769945e-05
530,5110890.0,2.7933748191662778e-05
531,5170070.0,2.6257072427561544e-05
532,5229940.0,2.4686450308657506e-05
533,5290500.0,2.320948183495067e-05
534,5351760.0,2.1815666334632294e-05
535,5413730.0,2.051000313589364e-05
536,5476420.0,1.9282091566925977e-05
537,5539830.0,1.81233316277293e-05
538,5603980.0,1.7037721974686144e-05
539,5668870.0,1.60166626077965e-05
540,5734510.0,1.5053052855251635e-05
541,5754399.37,1.4782641051459993e-05
542,5800910.0,1.4152206951478813e-05
543,5868090.0,1.330575963285087e-05
544,5936040.0,1.250709228690314e-05
545,6004770.0,1.1758904653540554e-05
546,6074300.0,1.1055396212572993e-05
547,6144640.0,1.0391466703905391e-05
548,6215790.0,9.769546127537754e-06
549,6287770.0,9.18468396327995e-06
550,6360580.0,8.632720211131982e-06
551,6434230.0,8.115634610998789e-06
552,6508730.0,7.629346902785308e-06
553,6584100.0,7.170376566301415e-06
554,6606934.4799999995,7.041587294283804e-06
555,6660340.0,6.741225937186779e-06
556,6737460.0,6.338060895498689e-06
557,6815480.0,5.95759680897762e-06
558,6894400.0,5.6012036776235725e-06
559,6974240.0,5.266081300440259e-06
560,7054990.0,4.949829777925823e-06
561,7136690.0,4.653568708087688e-06
562,7219320.0,4.3749982919221405e-06
563,7302920.0,4.112088127436607e-06
564,7387480.0,3.8657883151292305e-06
565,7473030.0,3.6341785535055765e-06
566,7559560.0,3.4155689430637914e-06
567,7585775.75,3.354237216675902e-06
568,7647100.0,3.2111477005682425e-06
569,7735640.0,3.0190943949568785e-06
570,7825220.0,2.837847056842287e-06
571,7915830.0,2.668085724998536e-06
572,8007490.0,2.508450321877488e-06
573,8100210.0,2.3578008087050724e-06
574,8194010.0,2.216687107933151e-06
575,8288890.0,2.0839892195617237e-06
576,8384870.0,1.9587570660426508e-06
577,8481960.0,1.8414406086018637e-06
578,8580180.0,1.7311197696912226e-06
579,8679530.0,1.627004549310728e-06
580,8709635.9,1.5981028499143374e-06
581,8780040.0,1.5306826702736997e-06
582,8881710.0,1.4388008294677602e-06
583,8984550.0,1.352107241305246e-06
584,9088590.0,1.2706418609821423e-06
585,9193830.0,1.1940646884984494e-06
586,9300290.0,1.1220956939848238e-06
587,9407980.0,1.0564948625065938e-06
588,9516920.0,9.93246164194417e-07
589,9627120.0,9.333475841136208e-07
590,9738600.0,8.770470923948629e-07
591,9761050.0,8.662845640571689e-07
592,10000000.0,8.07832401857989e-07
