,lambda (Angstroms),Total Flux (erg/s/cm^2/Angstrom)
0,1017.9,20.117993933037127
1,1038.0,22.346990801787506
2,1058.1,18.625687670537886
3,1078.5,17.69612180598603
4,1096.4782,16.70616418050185
5,1098.6,16.593254823745767
6,1118.7,16.830944451044584
7,1138.8,16.482624078343406
8,1158.9,16.494923705642222
9,1179.3,18.352995715438038
10,1199.4,24.270585342736855
11,1219.5,39.74477497003568
12,1239.6,24.1149645973345
13,1258.92541,17.972262487598016
14,1259.7,17.72791318570805
15,1280.1,15.397433748963891
16,1300.2,15.232581950995378
17,1326.52,14.298636442411738
18,1345.73,14.108837972810985
19,1364.38,13.654846428924778
20,1383.02,13.926964472997764
21,1401.66,15.061212517070745
22,1420.87,13.355374047469995
23,1439.52,12.691622503583789
24,1445.43977,12.606026581425095
25,1458.16,12.444990423610662
26,1476.8,12.289270886946541
27,1495.45,12.421019757183354
28,1514.65,12.679971006971385
29,1533.3,14.348059877208197
30,1551.94,17.43076034054408
31,1570.59,12.761089210780892
32,1589.79,11.610060460568924
33,1608.44,11.355559330805734
34,1627.08,11.190539794141616
35,1645.73,11.008118664378427
36,1659.58691,10.84598424106317
37,1664.37,10.795979786262595
38,1683.58,10.2112188316548
39,1702.22,9.96570835305567
40,1720.86,9.951307874456539
41,1739.51,9.860138264699362
42,1758.72,9.671737310091565
43,1777.36,9.466676831492435
44,1796.0,9.339326352893304
45,1814.65,9.213826743136128
46,1833.86,9.086105788528332
47,1852.5,9.232765309929201
48,1871.14,9.22306483133007
49,1889.79,9.720095221572892
50,1905.46072,10.362367349169835
51,1908.43,10.486375838609824
52,1927.64,9.13475670638616
53,1946.28,8.48135439901244
54,1964.93,8.14102074383434
55,1983.57,7.969148436460621
56,2002.78,7.927209304236956
57,2021.42,7.74217699686324
58,2040.07,7.650863341685136
59,2058.71,7.646681034311419
60,2077.35,7.645888726937702
61,2096.56,7.456679594714037
62,2115.21,7.276405939535935
63,2133.85,7.119403632162218
64,2152.49,6.988721324788501
65,2171.7,6.930192192564835
66,2187.7616199999998,6.815949157654289
67,2190.35,6.799325807944063
68,2208.99,6.718034378566866
69,2227.63,6.720832949189671
70,2246.84,6.575788278678084
71,2265.49,6.57274240647397
72,2284.13,6.596410977096772
73,2302.77,6.636809547719576
74,2321.42,6.69927367551546
75,2340.62,6.584943447830795
76,2359.27,6.491567575626679
77,2377.91,6.408666146249482
78,2396.56,6.374650274045367
79,2415.76,6.4017000463607
80,2434.41,6.384894174156585
81,2453.05,6.262292744779387
82,2471.7,6.253446872575273
83,2490.34,6.170815443198076
84,2509.55,6.0964107726864905
85,2511.88643,6.087360687619981
86,2528.19,6.030211821365578
87,2546.83,5.944713072430096
88,2565.48,5.84735356236321
89,2584.69,5.781551428937748
90,2603.33,5.727842680002267
91,2621.97,5.660543931066784
92,2640.62,5.511954420999899
93,2659.83,5.397862287574437
94,2678.47,5.3839835386389545
95,2697.11,5.401464789703473
96,2715.76,5.450675279636587
97,2734.4,5.548416530701106
98,2753.61,5.675344397275643
99,2772.25,5.847595648340161
100,2790.9,6.672296138273276
101,2809.54,6.397627389337794
102,2828.75,5.7151752559123326
103,2847.39,5.41257650697685
104,2866.04,5.197596996909965
105,2884.0315,5.05201569667001
106,2884.68,5.046973250984564
107,2903.32,4.925986955569401
108,2922.53,4.90200746335238
109,2941.18,4.925053567993325
110,2959.82,4.8655172725781615
111,2978.46,4.787240977162999
112,2997.67,4.644501484945978
113,3016.32,4.488617589586922
114,3034.96,4.446151294171759
115,3053.6,4.390524998756597
116,3072.81,4.386985506539574
117,3091.46,4.3278016111805195
118,3110.1,4.353505315765356
119,3128.74,4.404099020350194
120,3147.39,4.3282851249911385
121,3166.59,4.330413232718009
122,3185.24,4.374379337358954
123,3203.88,4.312253041943791
124,3222.53,4.239569146584735
125,3241.73,4.165817254311606
126,3260.38,4.147253358952551
127,3279.02,4.105737063537388
128,3297.67,4.039223168178333
129,3311.31121,3.976940290062439
130,3316.31,3.9552249908014128
131,3335.52,3.93639391862497
132,3354.16,3.8861796872158667
133,3372.8,3.8371654558067627
134,3391.45,3.810015841226302
135,3410.66,3.81604476904986
136,3429.3,3.8892705376407557
137,3447.94,3.722516306231652
138,3466.59,3.686386691651191
139,3485.8,3.666605619474749
140,3504.44,3.610211388065645
141,3523.08,3.5268271566565415
142,3541.73,3.4606175420760805
143,3560.37,3.4303833106669765
144,3579.58,3.4237222384905346
145,3598.22,3.4026280070814305
146,3616.87,3.35600839250097
147,3635.51,3.340854161091866
148,3654.72,3.306153088915424
149,3673.36,3.25378885750632
150,3692.01,3.2261292429258592
151,3710.65,3.2158950115167553
152,3729.29,3.555190780107652
153,3748.5,3.132059707931209
154,3767.15,3.1003700933507483
155,3785.79,3.037285861941645
156,3801.8939600000003,2.9736784758019996
157,3804.43,2.964057577399253
158,3823.64,2.9618657242057664
159,3842.29,2.9433178969252607
160,3860.93,3.0360138915360575
161,3879.57,2.9802498861468543
162,3898.78,2.882988032953368
163,3917.43,2.839220205672862
164,3936.07,2.7643062002836594
165,3954.71,2.7999221948944566
166,3973.36,2.8154543676139503
167,3992.56,2.709246336311767
168,4011.21,2.670878509031261
169,4029.85,2.6493345036420584
170,4048.5,2.627506676361552
171,4067.7,2.659298645059369
172,4086.35,2.648800817778863
173,4104.99,2.69309681238966
174,4123.64,2.590968985109154
175,4142.28,2.528304979719951
176,4161.49,2.4980731265264646
177,4180.13,2.498159121137262
178,4198.77,2.445995115748059
179,4217.42,2.437217288467553
180,4236.63,2.4691254352740666
181,4255.27,2.4527714298848635
182,4273.91,2.4521574244956605
183,4292.56,2.4866395972151545
184,4311.77,2.531737744021668
185,4330.41,2.6549737386324654
186,4349.05,2.7138797332432625
187,4365.15832,2.629816044946261
188,4367.7,2.616838871867189
189,4386.34,2.4402693975199026
190,4405.55,2.3821464306630693
191,4424.19,2.346686956315783
192,4442.84,2.3029447891174515
193,4461.48,2.3130353147701657
194,4480.69,2.3411123479133322
195,4499.33,2.353822873566046
196,4517.98,2.3800907063677146
197,4536.62,2.360661232020428
198,4555.83,2.360218265163595
199,4574.47,2.3460687908163083
200,4593.12,2.3132066236179774
201,4611.76,2.277077149270691
202,4630.4,2.285627674923405
203,4649.61,2.2160847080665715
204,4668.26,2.2004625408682403
205,4686.9,2.224243066520954
206,4705.54,2.1266835921736673
207,4724.75,2.122410625316834
208,4743.4,2.0903984581185036
209,4762.04,2.095198983771217
210,4780.68,2.13715950942393
211,4799.33,2.1937073422255997
212,4818.53,2.294727068219811
213,4837.18,2.4761049010214795
214,4855.82,2.932095426674193
215,4874.47,2.756493259475862
216,4893.67,2.4361329854700737
217,4912.32,2.2852908182717426
218,4930.96,2.211131343924456
219,4949.6,2.31634186957717
220,4968.81,2.2945289027203364
221,4987.46,2.1947267355220053
222,5006.1,5.320137261174719
223,5011.87234,4.347727293376816
224,5024.74,2.181053530045737
225,5043.39,1.9801835505661807
226,5062.6,1.899266976528525
227,5081.24,1.842598900523221
228,5099.88,1.8411608245179165
229,5118.53,1.8469508450383607
230,5137.74,1.8668342710007049
231,5156.38,1.8786361949954005
232,5175.02,1.8835881189900965
233,5193.67,1.8934481395105403
234,5212.31,1.852050063505236
235,5231.52,1.8507134894675805
236,5250.16,1.8262054134622765
237,5268.81,1.85023543398272
238,5287.45,1.853747357977416
239,5306.66,1.8337307839397603
240,5325.3,1.810222707934456
241,5343.95,1.7589627284548999
242,5362.59,1.7478246524495957
243,5381.8,1.71384807841194
244,5400.44,1.694880002406636
245,5419.09,1.7032000229270796
246,5437.73,1.6880219469217754
247,5456.37,1.669753870916471
248,5475.58,1.6682272968788157
249,5494.23,1.6625473173992595
250,5512.87,1.657743241393955
251,5531.51,1.6677311653886506
252,5550.72,1.6513775913509954
253,5569.37,1.6412976118714393
254,5588.01,1.627471535866135
255,5606.65,1.6114934598608306
256,5625.3,1.6002934803812745
257,5644.5,1.5942128098178712
258,5663.15,1.5862328303383149
259,5681.79,1.5876677543330104
260,5700.44,1.5683437748534543
261,5719.64,1.564032104290051
262,5738.29,1.5428021248104944
263,5754.399369999999,1.5547172889624483
264,5756.93,1.5567290326427026
265,5775.58,1.5813746929404358
266,5794.78,1.6378020858474855
267,5813.43,1.6200237461452187
268,5832.07,1.574513756759146
269,5850.71,1.5884607673730735
270,5869.36,1.616801427670807
271,5888.57,1.5899834702616622
272,5907.21,1.5623324808755896
273,5925.85,1.527285491489517
274,5944.5,1.5288191517872503
275,5963.71,1.528768194378106
276,5982.35,1.5027762049920332
277,6000.99,1.4955042156059606
278,6019.64,1.488276875903694
279,6038.28,1.4810888865176213
280,6057.49,1.473720929108477
281,6076.13,1.4666119397224042
282,6094.78,1.4595336000201375
283,6113.42,1.452495610634065
284,6132.63,1.4452836532249205
285,6151.27,1.438323663838848
286,6169.92,1.4313953241365813
287,6188.56,1.4245003347505085
288,6207.77,1.417438377341364
289,6226.41,1.4106143879552917
290,6245.06,1.4038230482530247
291,6263.7,1.3970710588669522
292,6282.34,1.3903520694808797
293,6301.55,1.3834591120717352
294,6320.2,1.3768037723694684
295,6338.84,1.3701817829833958
296,6357.48,1.3635927935973233
297,6376.69,1.356835836188179
298,6395.33,1.3503118468021063
299,6413.98,1.3438195070998393
300,6432.62,1.337354517713767
301,6451.27,1.3309201780115
302,6470.47,1.3243205709185497
303,6489.12,1.3179512312162829
304,6507.76,1.3116032418302104
305,6526.41,1.3052929021279436
306,6545.61,1.2988182950349934
307,6564.26,1.2925589553327264
308,6582.9,1.2863289659466541
309,6601.54,1.2801299765605814
310,6606.93448,1.2783439972245856
311,6620.75,1.2743353576977319
312,6639.4,1.2689561860766085
313,6658.04,1.2635999555662742
314,6676.68,1.2582727250559398
315,6695.33,1.2529675534348164
316,6714.54,1.24753667960952
317,6733.18,1.2422824490991855
318,6751.82,1.2370612185888512
319,6770.47,1.231865046967728
320,6789.68,1.2265321731424315
321,6808.32,1.221388942632097
322,6826.96,1.2162647121217627
323,6845.61,1.2111665405006393
324,6864.25,1.206095309990305
325,6883.46,1.2008914361650085
326,6902.1,1.1958652056546741
327,6920.75,1.190865034033551
328,6939.39,1.1858838035232162
329,6958.6,1.18077792969792
330,6977.24,1.1758436991875856
331,6995.89,1.1709335275664623
332,7014.53,1.166050297056128
333,7033.74,1.1610354232308313
334,7052.38,1.1561911927204969
335,7071.03,1.1513730210993738
336,7089.67,1.1465677905890392
337,7108.31,1.1417885600787048
338,7127.52,1.1368916862534084
339,7146.17,1.132150514632285
340,7164.81,1.1274362841219507
341,7183.45,1.1227420536116162
342,7202.66,1.1179291797863198
343,7221.3,1.1132739492759853
344,7239.95,1.1086377776548622
345,7258.59,1.1040205471445277
346,7277.24,1.0994293755234044
347,7296.44,1.094715442808897
348,7315.09,1.0901562711877735
349,7333.73,1.0856180406774392
350,7352.38,1.081098869056316
351,7371.58,1.0764689363418083
352,7390.23,1.0719837647206851
353,7408.87,1.0675225342103505
354,7427.51,1.063077303700016
355,7446.72,1.0585164298747198
356,7465.37,1.0541072582535964
357,7484.01,1.0497170277432621
358,7502.65,1.0453437972329276
359,7521.3,1.0409866256118043
360,7540.51,1.036516751786508
361,7559.15,1.0321955212761735
362,7577.79,1.0278912907658388
363,7585.77575,1.0260547088745047
364,7596.44,1.0239097056744437
365,7615.65,1.0200629014964337
366,7634.29,1.0163463002534299
367,7652.93,1.0126446990104259
368,7671.58,1.0089604450843517
369,7690.22,1.0052908438413477
370,7709.43,1.001528039663338
371,7728.07,0.997890438420334
372,7746.72,0.9942691844942597
373,7765.36,0.9906625832512557
374,7784.57,0.9869637790732457
375,7803.21,0.9833881778302418
376,7821.86,0.9798269239041677
377,7840.5,0.9762813226611637
378,7859.71,0.9726435184831537
379,7878.35,0.9691279172401498
380,7897.0,0.9656256633140755
381,7915.64,0.9621390620710717
382,7934.28,0.9586664608280677
383,7953.49,0.9551026566500577
384,7972.13,0.9516580554070537
385,7990.78,0.9482268014809796
386,8000.0,0.9465350276901803
387,8167.98,0.9162872574755988
388,8339.48,0.8835877428202783
389,8514.59,0.8512706095765862
390,8693.37,0.819325941646101
391,8709.6359,0.8165114299615956
392,8875.9,0.791455423016874
393,9062.27,0.7643792664191724
394,9252.55,0.7377262264051645
395,9446.83,0.7114824386506897
396,9645.19,0.6856354682009388
397,9847.71,0.6601738801011023
398,10000.0,0.6416964621461769
399,10054.5,0.6359914774784377
400,10265.6,0.6147746974245544
401,10481.1,0.5963422630256352
402,10701.2,0.5832679172659966
403,10925.9,0.5707476601456385
404,11155.3,0.5587418631567195
405,11389.6,0.5472152692835558
406,11481.5362,0.5429580725101195
407,11628.7,0.5379953024981251
408,11872.9,0.5304173103198923
409,12122.2,0.5233034386981338
410,12376.7,0.5166363174476822
411,12636.6,0.5103932061982035
412,12901.9,0.5045641049496976
413,13172.8,0.49913427333183
414,13182.5674,0.4989563014102802
415,13449.4,0.4964961949048044
416,13731.8,0.49437977336115324
417,14020.1,0.49269361886032237
418,14314.5,0.48822979130206845
419,14615.1,0.4837658206362698
420,14922.0,0.4793372368128047
421,15135.6125,0.47633747979488716
422,15235.3,0.4753701769863447
423,15555.2,0.47239173537246026
424,15881.8,0.46946587594421807
425,16215.3,0.46659852652805534
426,16555.7,0.463784687123972
427,16903.3,0.46102324947162365
428,17258.3,0.4583131413974474
429,17378.0083,0.457434991174853
430,17620.6,0.4559871032184988
431,17990.6,0.4538834962420607
432,18368.4,0.45183873971314636
433,18754.1,0.44985293427851897
434,19147.8,0.4479231805849415
435,19549.9,0.44617788121946655
436,19952.6231,0.4446868295630225
437,19960.4,0.4446472710299285
438,20379.5,0.4426309436064194
439,20807.4,0.4406852917225742
440,21244.3,0.4388072398224762
441,21690.4,0.43699771235020857
442,22145.8,0.4352536715278129
443,22610.8,0.4335740040214142
444,22908.6765,0.43255993796678227
445,23085.6,0.43176516505282103
446,23570.3,0.42968376619454396
447,24065.2,0.4276524177419727
448,24570.5,0.4256688265658072
449,25086.4,0.42373269953674775
450,25613.2,0.42184259696084436
451,26151.0,0.41999737227344724
452,26302.679900000003,0.41949965820487056
453,26700.1,0.4175543315992598
454,27260.7,0.41402313830310383
455,27833.1,0.40889061057795284
456,28417.5,0.4035531325860271
457,29014.2,0.3980197805706574
458,29623.4,0.3925279386940641
459,30199.5172,0.3874750986285206
460,30245.4,0.38704315132311257
461,30880.5,0.38121578447464044
462,31528.9,0.3754119040391982
463,32190.9,0.36963039316895974
464,32866.8,0.36386713501609824
465,33556.9,0.3581190127327876
466,34261.5,0.3523849094712014
467,34673.685,0.34910519050354943
468,34980.9,0.34661036010915525
469,35715.4,0.3407735699923938
470,36465.3,0.3349399245076293
471,37231.0,0.32910586896997884
472,38012.7,0.3232686260370007
473,38810.9,0.3174262523525908
474,39625.8,0.3115749705743077
475,39810.7171,0.3102721619151388
476,40457.8,0.3058980776623782
477,41307.3,0.3002649916149336
478,42174.7,0.29462044689738986
479,43060.2,0.2889627233011425
480,43964.4,0.28328866020037796
481,44887.5,0.27759553738649206
482,45708.818999999996,0.2725308242772865
483,45830.0,0.2718118596644805
484,46792.3,0.2661003489540922
485,47774.8,0.2603568154687377
486,48777.9,0.2545789122227743
487,49802.1,0.24876595548414832
488,50847.8,0.24291559826721687
489,51915.5,0.23702515683992634
490,52480.746,0.23394984078926528
491,53005.6,0.23137523464125626
492,54118.5,0.22599631089100897
493,55254.9,0.22058483110865562
494,56415.1,0.21513894564272257
495,57599.6,0.20965723840742023
496,58809.1,0.20413672688264345
497,60043.9,0.19857656141691843
498,60255.9586,0.19763434660337365
499,61304.6,0.19380920445566857
500,62591.8,0.18918756092369005
501,63906.1,0.18454172275240405
502,65247.9,0.17986987526078752
503,66617.9,0.1751715927570503
504,67000.0,0.1738800959760683
505,68016.7,0.1708344051602692
506,69242.2916,0.16722240823289145
507,69444.9,0.16666537220878366
508,70903.0,0.1627245975164186
509,71559.6261,0.1609795063588735
510,72391.8,0.15926702862702607
511,73911.8,0.15620515455661876
512,73954.515,0.15612120457898043
513,75463.8,0.154353914146171
514,76429.5536,0.1532823710164739
515,77048.3,0.15325825296476664
516,78666.1,0.15325913216176018
517,78987.42450000001,0.1532715685509422
518,80317.8,0.15400928718492007
519,81630.8998,0.15478555084908113
520,82004.3,0.15508831918182495
521,83726.1,0.15654522765136653
522,84362.84430000001,0.15710569451802944
523,85484.1,0.15687697219780816
524,87186.21900000001,0.15658525719639482
525,87279.1,0.1565421584890714
526,89111.7,0.15574981211284722
527,90104.0836,0.1553507352822112
528,90982.8,0.15471497581976573
529,92893.1,0.153388680974187
530,93119.6005,0.1532377676614789
531,94843.6,0.14992979236749465
532,96236.03790000001,0.14729567369324797
533,96835.1,0.1459040289565301
534,98868.3,0.14123376392903178
535,99456.7731,0.13989677682614737
536,100944.0,0.13682953231802109
537,102785.297,0.13307631805767506
538,103064.0,0.1324668078798213
539,105228.0,0.12778455565882274
540,106225.216,0.12564912265063913
541,107437.0,0.12347130663652618
542,109693.0,0.11946533389794631
543,109780.26,0.11931218616917537
544,111996.0,0.11558301350020282
545,113454.28,0.11315773709578367
546,114348.0,0.11178903897593666
547,116749.0,0.108157996896013
548,117251.259,0.10740767948774374
549,119200.0,0.10481819908848755
550,121175.312,0.10222841605125885
551,121703.0,0.10161105589394345
552,124259.0,0.09866438777022893
553,125230.691,0.09756014928055898
554,126868.0,0.09575552472699103
555,129421.79100000001,0.09298106132176671
556,129532.0,0.092876813843699
557,132252.0,0.09032691493886591
558,133753.155,0.08893575023884187
559,135028.0,0.08796049784435579
560,137864.0,0.08583058237253291
561,138229.477,0.0855610297938412
562,140758.0,0.08387943812872475
563,142855.609,0.08251165564924026
564,143714.0,0.08215371094765377
565,146731.0,0.08093366607710811
566,147636.563,0.08057841137907255
567,149812.0,0.07976150988114918
568,152577.522,0.07875527136710966
569,152958.0,0.07862586561786486
570,156170.0,0.07756964934737219
571,157683.84,0.07708827142810373
572,159449.0,0.07649982794989381
573,162797.0,0.07541873236310692
574,162961.05099999998,0.07536741782134901
575,166215.0,0.07426037625431987
576,168414.875,0.07353336205747996
577,169705.0,0.07311172266628621
578,173268.0,0.07198078626705988
579,174051.222,0.07173925593366876
580,176907.0,0.07069270185998541
581,179876.201,0.06963043984772764
582,180621.0,0.06936354686409403
583,184414.0,0.0680363412617003
584,185896.125,0.0675297209581703
585,188286.0,0.0666388615139413
586,192117.51799999998,0.06524055612422561
587,192239.0,0.06519396492451876
588,196276.0,0.06367614237604355
589,198547.123,0.06283868890513548
590,200397.0,0.06214117050884026
591,204605.0,0.06058396764770349
592,205191.907,0.060370732236555265
593,208901.0,0.05912482109917572
594,212059.073,0.058084516621925056
595,213287.0,0.057670248200440144
596,217766.0,0.05618705884420348
597,219156.062,0.055735147533608816
598,222338.0,0.05476396754423901
599,226490.56699999998,0.05352065770372428
600,227006.0,0.05336895957672647
601,231773.0,0.05199267212459405
602,234070.535,0.0513286597690282
603,236639.0,0.05059919152603681
604,241608.0,0.04912818643126793
605,241904.18300000002,0.04904199015807994
606,246681.0,0.04769972627709007
607,250000.0,0.04678341080885206
608,251861.0,0.04629270826658242
609,257149.0,0.044923755568813006
610,262549.0,0.04355121431163546
611,268061.0,0.042175684495049784
612,273690.0,0.040796363951225274
613,275422.87,0.04037931376208288
614,279437.0,0.03951418750154506
615,285304.0,0.038274858651552446
616,291295.0,0.03703441463581941
617,297411.0,0.03579306017075127
618,303656.0,0.034550314121969294
619,310032.0,0.033306185922284126
620,316227.766,0.032120527324045384
621,316541.0,0.03206852174927258
622,323188.0,0.030989293841366887
623,329974.0,0.029911643505418632
624,336902.0,0.028835360904851365
625,343976.0,0.027760066257563134
626,351199.0,0.02668574972697748
627,358573.0,0.02561217142204344
628,363078.055,0.024970059056904775
629,366102.0,0.024604515162990965
630,373789.0,0.02369805523918446
631,381638.0,0.022795071182731063
632,389651.0,0.021895366399400568
633,397832.0,0.020998847700732556
634,406186.0,0.020104973601151502
635,414714.0,0.01921389580354231
636,416869.38300000003,0.018993909296399866
