,lambda (Angstroms),Total Flux (erg/s/cm^2/Angstrom)
0,1017.9,22.811958577382832
1,1038.0,24.972554402383338
2,1058.1,21.182850227383845
3,1078.5,20.183862407981373
4,1096.4782,19.132724302659184
5,1098.6,19.013903098327688
6,1118.7,19.195589268059443
7,1138.8,18.791265437791203
8,1158.9,18.74756160752296
9,1179.3,20.54879428725072
10,1199.4,26.410380456982473
11,1219.5,41.828566626714235
12,1239.6,26.142752796445997
13,1258.92541,19.946205424077622
14,1259.7,19.700317580944066
15,1280.1,17.329318331951853
16,1300.2,17.12454260132717
17,1326.52,16.138318589882317
18,1345.73,15.91036396374798
19,1364.38,15.419328571899705
20,1383.02,15.654422630663683
21,1401.66,16.75164668942766
22,1420.87,15.007652063293326
23,1439.52,14.30685667144505
24,1445.43977,14.209502515514217
25,1458.16,14.030830564814213
26,1476.8,13.849267849262056
27,1495.45,13.95515967624447
28,1514.65,14.187491342628514
29,1533.3,15.82972316961093
30,1551.94,18.88658045405877
31,1570.59,14.191052281041188
32,1589.79,13.01340394742523
33,1608.44,12.733045774407646
34,1627.08,12.542183058855489
35,1645.73,12.333904885837903
36,1659.58691,12.152558734842096
37,1664.37,12.097909715016794
38,1683.58,11.494495108873068
39,1702.22,11.230884470740893
40,1720.86,11.198383832608718
41,1739.51,11.08910435293248
42,1758.72,10.882049746788756
43,1777.36,10.658889108656581
44,1796.0,10.513438470524406
45,1814.65,10.36982899084817
46,1833.86,10.223454384704441
47,1852.5,10.352013746572268
48,1871.14,10.324213108440091
49,1889.79,10.803133628763856
50,1905.46072,11.43018888232659
51,1908.43,11.552084451479764
52,1927.64,10.186795608514878
53,1946.28,9.520129198683254
54,1964.93,9.166524325112452
55,1983.57,8.981387915280829
56,2002.78,8.92577907231594
57,2021.42,8.72748266248432
58,2040.07,8.622897788913516
59,2058.71,8.605451379081892
60,2077.35,8.59139496925027
61,2096.56,8.388516126285383
62,2115.21,8.194971252714579
63,2133.85,8.024704842882956
64,2152.49,7.880758433051334
65,2171.7,7.808559590086446
66,2187.7616199999998,7.6828872111136715
67,2190.35,7.665017743925418
68,2208.99,7.574752504755822
69,2227.63,7.568577265586226
70,2246.84,7.414284371570779
71,2265.49,7.4022598752986255
72,2284.13,7.41695463612903
73,2302.77,7.448379396959434
74,2321.42,7.501864900687281
75,2340.62,7.3782912637743925
76,2359.27,7.2759367675022375
77,2377.91,7.184061528332643
78,2396.56,7.141067032060489
79,2415.76,7.1588733951476
80,2434.41,7.133088898875447
81,2453.05,7.00151365970585
82,2471.7,6.983689163433696
83,2490.34,6.892083924264101
84,2509.55,6.808431030248654
85,2511.88643,6.798256123378858
86,2528.19,6.735259095154103
87,2546.83,6.643074096573461
88,2565.48,6.539024749817614
89,2584.69,6.46633190525033
90,2603.33,6.405936906669688
91,2621.97,6.331951908089046
92,2640.62,6.1766725613331985
93,2659.83,6.055689716765916
94,2678.47,6.035124718185273
95,2697.11,6.04591971960463
96,2715.76,6.088440372848783
97,2734.4,6.17949537426814
98,2753.61,6.2995325297008575
99,2772.25,6.465097531120215
100,2790.9,7.283108184364368
101,2809.54,7.001753185783725
102,2828.75,6.312410341216443
103,2847.39,6.0031253426357996
104,2866.04,5.781455995879952
105,2884.0315,5.629421065785335
106,2884.68,5.624214334646085
107,2903.32,5.498505940759202
108,2922.53,5.4696599511365065
109,2941.18,5.4879814239911
110,2959.82,5.423723030104215
111,2978.46,5.340724636217332
112,2997.67,5.193118646594636
113,3016.32,5.032510119449229
114,3034.96,4.985321725562345
115,3053.6,4.924973331675462
116,3072.81,4.916567342052765
117,3091.46,4.852658814907359
118,3110.1,4.873640421020475
119,3128.74,4.9195120271335915
120,3147.39,4.838973499988184
121,3166.59,4.8362376436240115
122,3185.24,4.875479116478605
123,3203.88,4.808630722591721
124,3222.53,4.731222195446314
125,3241.73,4.6526063390821415
126,3260.38,4.629317811936734
127,3279.02,4.58307941804985
128,3297.67,4.511840890904444
129,3311.31121,4.446102265101134
130,3316.31,4.423489987735216
131,3335.52,4.40121189149996
132,3354.16,4.347652916287823
133,3372.8,4.295293941075683
134,3391.45,4.264797788301736
135,3410.66,4.26737969206648
136,3429.3,4.337260716854341
137,3447.94,4.167161741642203
138,3466.59,4.127685588868255
139,3485.8,4.104457492632998
140,3504.44,4.0447185174208595
141,3523.08,3.957989542208722
142,3541.73,3.8884333894347742
143,3560.37,3.8548544142226353
144,3579.58,3.844746317987379
145,3598.22,3.8203073427752408
146,3616.87,3.770341190001293
147,3635.51,3.7518422147891544
148,3654.72,3.7136941185538985
149,3673.36,3.65798514334176
150,3692.01,3.626978990567812
151,3710.65,3.6134000153556736
152,3729.29,3.9493510401435357
153,3748.5,3.5227729439082784
154,3767.15,3.4877367911343313
155,3785.79,3.4213078159221926
156,3801.8939600000003,3.354810750575771
157,3804.43,3.3448667698656704
158,3823.64,3.340227632274355
159,3842.29,3.319303862567014
160,3860.93,3.4096251887147435
161,3879.57,3.3514865148624726
162,3898.78,3.251777377271157
163,3917.43,3.205633607563816
164,3936.07,3.128344933711545
165,3954.71,3.161586259859275
166,3973.36,3.1747424901519334
167,3992.56,3.066088448415689
168,4011.21,3.025344678708348
169,4029.85,3.0014260048560772
170,4048.5,2.977222235148736
171,4067.7,3.006568193412492
172,4086.35,2.9936944237051506
173,4104.99,3.03561574985288
174,4123.64,2.9311119801455385
175,4142.28,2.866073306293268
176,4161.49,2.833394168701953
177,4180.13,2.831105494849682
178,4198.77,2.7765668209974117
179,4217.42,2.7654130512900705
180,4236.63,2.7948739136987553
181,4255.27,2.7761452398464845
182,4273.91,2.7731565659942143
183,4292.56,2.805262796286873
184,4311.77,2.8479136586955573
185,4330.41,2.9687749848432876
186,4349.05,3.0253063109910165
187,4365.15832,2.9391904810900984
188,4367.7,2.925985162489585
189,4386.34,2.7477425300265366
190,4405.55,2.6878952408840924
191,4424.19,2.6507626084210436
192,4442.84,2.6053463854899355
193,4461.48,2.6137637530268876
194,4480.69,2.6401164638844428
195,4499.33,2.6511538314213943
196,4517.98,2.675747608490286
197,4536.62,2.6546449760272375
198,4555.83,2.6524776868847932
199,4574.47,2.6366550544217446
200,4593.12,2.6021188314906363
201,4611.76,2.564316199027588
202,4630.4,2.5711935665645393
203,4649.61,2.4999262774220954
204,4668.26,2.482630054490987
205,4686.9,2.504737422027939
206,4705.54,2.40550478956489
207,4724.75,2.3995075004224455
208,4743.4,2.365821277491338
209,4762.04,2.368948645028289
210,4780.68,2.4092360125652403
211,4799.33,2.4641097896341324
212,4818.53,2.563406090959748
213,4837.18,2.7431098680286397
214,4855.82,3.1974272355655913
215,4874.47,3.020151012634483
216,4893.67,2.6980673139600984
217,4912.32,2.5455510910289902
218,4930.96,2.4697184585659415
219,4949.6,2.573255826102893
220,4968.81,2.5497185369604485
221,4987.46,2.4482423140293403
222,5006.1,5.571979681566292
223,5011.87234,4.599051578708414
224,5024.74,2.4315613733943158
225,5043.39,2.229508067421574
226,5062.6,2.147372635371367
227,5081.24,2.0895218673642946
228,5099.88,2.086901099357222
229,5118.53,2.091507793384481
230,5137.74,2.110172361334273
231,5156.38,2.120791593327201
232,5175.02,2.1245608253201285
233,5193.67,2.1332375193473867
234,5212.31,2.0906567513403145
235,5231.52,2.0881013192901072
236,5250.16,2.062410551283035
237,5268.81,2.0852572453102933
238,5287.45,2.087586477303221
239,5306.66,2.066351045253014
240,5325.3,2.041660277245941
241,5343.95,1.9892169712732
242,5362.59,1.9768962032661275
243,5381.8,1.94170077121592
244,5400.44,1.9215500032088477
245,5419.09,1.9286866972361063
246,5437.73,1.9123259292290338
247,5456.37,1.8928751612219612
248,5475.58,1.890129729171754
249,5494.23,1.8832664231990126
250,5512.87,1.8772796551919402
251,5531.51,1.8860848871848677
252,5550.72,1.8685124551346606
253,5569.37,1.8572491491619192
254,5588.01,1.8422403811548467
255,5606.65,1.8250796131477742
256,5625.3,1.8126963071750326
257,5644.5,1.8053974130904946
258,5663.15,1.796234107117753
259,5681.79,1.7964863391106807
260,5700.44,1.7759790331379393
261,5719.64,1.770449139053401
262,5738.29,1.7480358330806594
263,5754.399369999999,1.7589288715323703
264,5756.93,1.76082671019027
265,5775.58,1.784632923920581
266,5794.78,1.840196114463314
267,5813.43,1.8215783281936246
268,5832.07,1.775229342345528
269,5850.71,1.7883373564974314
270,5869.36,1.8158385702277422
271,5888.57,1.7881559603488828
272,5907.21,1.7596659745007863
273,5925.85,1.7237799886526894
274,5944.5,1.7244742023830004
275,5963.71,1.723558592504141
276,5982.35,1.6967276066560442
277,6000.99,1.6886166208079476
278,6019.64,1.6805498345382586
279,6038.28,1.6725228486901618
280,6057.49,1.6642902388113026
281,6076.13,1.6563422529632057
282,6094.78,1.6484244666935166
283,6113.42,1.64054748084542
284,6132.63,1.6324708709665607
285,6151.27,1.6246718851184638
286,6169.92,1.6169040988487748
287,6188.56,1.609170113000678
288,6207.77,1.6012435031218186
289,6226.41,1.5935805172737219
290,6245.06,1.5859497310040327
291,6263.7,1.5783587451559362
292,6282.34,1.5708007593078395
293,6301.55,1.5630431494289803
294,6320.2,1.555548363159291
295,6338.84,1.5480873773111943
296,6357.48,1.5406593914630977
297,6376.69,1.5330377815842384
298,6395.33,1.5256747957361414
299,6413.98,1.5183430094664527
300,6432.62,1.511039023618356
301,6451.27,1.5037652373486665
302,6470.47,1.4963014278913995
303,6489.12,1.4890926416217107
304,6507.76,1.4819056557736137
305,6526.41,1.474755869503925
306,6545.61,1.4674170600466576
307,6564.26,1.4603182737769687
308,6582.9,1.453249287928872
309,6601.54,1.4462113020807752
310,6606.93448,1.444182514287995
311,6620.75,1.439740476930309
312,6639.4,1.433776248102145
313,6658.04,1.4278352740883655
314,6676.68,1.4219233000745861
315,6695.33,1.4160330712464217
316,6714.54,1.4099995728126933
317,6733.18,1.404160598798914
318,6751.82,1.398354624785135
319,6770.47,1.3925733959569704
320,6789.68,1.3866378975232418
321,6808.32,1.3809099235094626
322,6826.96,1.3752009494956834
323,6845.61,1.369517720667519
324,6864.25,1.3638617466537397
325,6883.46,1.3580552482200114
326,6902.1,1.3524442742062321
327,6920.75,1.3468590453780678
328,6939.39,1.3412930713642883
329,6958.6,1.3355845729305598
330,6977.24,1.3300655989167804
331,6995.89,1.3245703700886162
332,7014.53,1.319102396074837
333,7033.74,1.3134848976411084
334,7052.38,1.3080559236273293
335,7071.03,1.302652694799165
336,7089.67,1.2972627207853855
337,7108.31,1.291898746771606
338,7127.52,1.2863992483378777
339,7146.17,1.2810730195097135
340,7164.81,1.2757740454959343
341,7183.45,1.2704950714821548
342,7202.66,1.2650795730484266
343,7221.3,1.2598395990346472
344,7239.95,1.2546183702064828
345,7258.59,1.2494163961927036
346,7277.24,1.2442401673645391
347,7296.44,1.2389239237451957
348,7315.09,1.2337796949170312
349,7333.73,1.2286567209032522
350,7352.38,1.2235524920750878
351,7371.58,1.2183202484557443
352,7390.23,1.21325001962758
353,7408.87,1.2082040456138006
354,7427.51,1.2031740716000212
355,7446.72,1.198010573166293
356,7465.37,1.1930163443381283
357,7484.01,1.1880413703243493
358,7502.65,1.18308339631057
359,7521.3,1.1781411674824058
360,7540.51,1.1730686690486771
361,7559.15,1.1681626950348978
362,7577.79,1.1632737210211186
363,7585.77575,1.161186623280394
364,7596.44,1.1588096075659249
365,7615.65,1.1545448686619117
366,7634.29,1.1504227336712396
367,7652.93,1.1463155986805678
368,7671.58,1.142225593445802
369,7690.22,1.1381504584551303
370,7709.43,1.133969719551117
371,7728.07,1.1299265845604451
372,7746.72,1.1258995793256794
373,7765.36,1.1218874443350075
374,7784.57,1.1177707054309942
375,7803.21,1.1137895704403222
376,7821.86,1.1098225652055569
377,7840.5,1.1058714302148849
378,7859.71,1.1018156913108714
379,7878.35,1.0978945563201996
380,7897.0,1.0939865510854339
381,7915.64,1.090094416094762
382,7934.28,1.08621628110409
383,7953.49,1.082234542200077
384,7972.13,1.0783844072094049
385,7990.78,1.0745474019746393
386,8000.0,1.0726550369202403
387,8167.98,1.0387526766341317
388,8339.48,1.0023219904270375
389,8514.59,0.9661951461021149
390,8693.37,0.9303609221948013
391,8709.6359,0.9271925279251998
392,8875.9,0.8997568973558321
393,9062.27,0.8700133552255631
394,9252.55,0.8406369685402194
395,9446.83,0.8116125848675864
396,9645.19,0.7829266242679183
397,9847.71,0.7545665068014697
398,10000.0,0.7339094668969031
399,10054.5,0.7277269699712502
400,10265.6,0.7046605965660725
401,10481.1,0.6843400173675136
402,10701.2,0.6693372230213287
403,10925.9,0.654848213527518
404,11155.3,0.6408324842089592
405,11389.6,0.6272530257114077
406,11481.5362,0.6221903121958432
407,11628.7,0.6165554033308334
408,11872.9,0.607862080426523
409,12122.2,0.5996095849308449
410,12376.7,0.591780089930243
411,12636.6,0.5843499415976047
412,12901.9,0.5773091399329301
413,13172.8,0.5706420311091067
414,13182.5674,0.5704194486988841
415,13449.4,0.5675412598730725
416,13731.8,0.5649823644815376
417,14020.1,0.5628444918137632
418,14314.5,0.557919388402758
419,14615.1,0.5529844275150264
420,14922.0,0.548074982417073
421,15135.6125,0.5447405301270907
422,15235.3,0.5437612359817929
423,15555.2,0.540744313829947
424,15881.8,0.5377791679256241
425,16215.3,0.5348717020374071
426,16555.7,0.5320169161652959
427,16903.3,0.5292136659621649
428,17258.3,0.5264608551965966
429,17378.0083,0.5255683053497994
430,17620.6,0.5242018042913317
431,17990.6,0.5222223283227476
432,18368.4,0.5203043196175285
433,18754.1,0.5184479123713586
434,19147.8,0.5166502407799219
435,19549.9,0.5150398416259553
436,19952.6231,0.5136838992243467
437,19960.4,0.513643361373238
438,20379.5,0.5115742581418925
439,20807.4,0.5095747222967656
440,21244.3,0.5076416530966349
441,21690.4,0.5057759498002781
442,22145.8,0.5039745620370839
443,22610.8,0.5022363386952189
444,22908.6765,0.5011847620872036
445,23085.6,0.5003035534037613
446,23570.3,0.4979853549260586
447,24065.2,0.49571222365596357
448,24570.5,0.4934817687544095
449,25086.4,0.4912935993823303
450,25613.2,0.4891461292811258
451,26151.0,0.48703816303126296
452,26302.679900000003,0.48646634592452964
453,26700.1,0.48411310879901304
454,27260.7,0.4800065177374717
455,27833.1,0.47428648077060376
456,28417.5,0.46834917678136945
457,29014.2,0.4622033740942098
458,29623.4,0.45608625159208543
459,30199.5172,0.4504420869645012
460,30245.4,0.4499532017641501
461,30880.5,0.4433377126328539
462,31528.9,0.4367292053855977
463,32190.9,0.43012619089194626
464,32866.8,0.4235241800214643
465,33556.9,0.4169196836437168
466,34261.5,0.4103112126282685
467,34673.685,0.40651999597025934
468,34980.9,0.40362714681220696
469,35715.4,0.39683875998985835
470,36465.3,0.3900335660101724
471,37231.0,0.38320749195997184
472,38012.7,0.37635750138266755
473,38810.9,0.3694810031367878
474,39625.8,0.36257396076574355
475,39810.7171,0.3610315789232299
476,40457.8,0.3558807702165042
477,41307.3,0.34922798881991146
478,42174.7,0.3425422625298531
479,43060.2,0.3358216310681899
480,43964.4,0.3290622136005039
481,44887.5,0.3222610498486561
482,45708.818999999996,0.3162104683881062
483,45830.0,0.31535547955264076
484,46792.3,0.30856379860545624
485,47774.8,0.30171742062498363
486,48777.9,0.29481354963036577
487,49802.1,0.2878509406455311
488,50847.8,0.2808267976896225
489,51915.5,0.27373787578656844
490,52480.746,0.27002807786365546
491,53005.6,0.266957979521675
492,54118.5,0.2605284145213453
493,55254.9,0.25404410814487416
494,56415.1,0.24750292752363007
495,57599.6,0.24090298454322698
496,58809.1,0.2342406358435246
497,60043.9,0.22751474855589124
498,60255.9586,0.22637233829568032
499,61304.6,0.22183527260755811
500,62591.8,0.21633974789825342
501,63906.1,0.21080163033653873
502,65247.9,0.20521883368105004
503,66617.9,0.19959045700940042
504,67000.0,0.19803955221268163
505,68016.7,0.1944338735470256
506,69242.2916,0.1901468334359292
507,69444.9,0.18949156294504488
508,70903.0,0.18484383002189142
509,71559.6261,0.1827803743996694
510,72391.8,0.18083080483603475
511,73911.8,0.1773358727421583
512,73954.515,0.17723975297934075
513,75463.8,0.1754421188615613
514,76429.5536,0.17435115956924618
515,77048.3,0.1745354039530222
516,78666.1,0.1750810762156802
517,78987.42450000001,0.17520171841486848
518,80317.8,0.17661618291322678
519,81630.8998,0.17806040450292743
520,82004.3,0.1785804589090999
521,83726.1,0.18103930353515535
522,84362.84430000001,0.18197029957862398
523,85484.1,0.18198882959707752
524,87186.21900000001,0.1820724552993528
525,87279.1,0.18204077798542856
526,89111.7,0.18147378281712961
527,90104.0836,0.18119673744070358
528,90982.8,0.180574901093021
529,92893.1,0.17927887463224934
530,93119.6005,0.17913155018217694
531,94843.6,0.17513112315665952
532,96236.03790000001,0.17193772587768738
533,96835.1,0.1702193386087068
534,98868.3,0.16444011857204238
535,99456.7731,0.16278216442607096
536,100944.0,0.15900764309069476
537,102785.297,0.1543787677592743
538,103064.0,0.1536229105064284
539,105228.0,0.1478043408784303
540,106225.216,0.14514526928460048
541,107437.0,0.14247017551536822
542,109693.0,0.1375384118639284
543,109780.26,0.13734945539621413
544,111996.0,0.13276421800027044
545,113454.28,0.12977552618156643
546,114348.0,0.12810075196791554
547,116749.0,0.123647429194684
548,117251.259,0.1227251010080973
549,119200.0,0.11957546545131673
550,121175.312,0.11641788956500246
551,121703.0,0.11567367452525792
552,124259.0,0.11211255036030524
553,125230.691,0.11077471977158725
554,126868.0,0.1085951663026547
555,129421.79100000001,0.10523590791389464
556,129532.0,0.105111585124932
557,132252.0,0.10206621991848788
558,133753.155,0.10040160973464217
559,135028.0,0.09926286379247438
560,137864.0,0.0967692431633772
561,138229.477,0.09645281968561459
562,140758.0,0.09450805083829968
563,142855.609,0.09292194215574165
564,143714.0,0.0925419145968717
565,146731.0,0.09124425476947748
566,147636.563,0.09086570367330846
567,149812.0,0.09000501317486556
568,152577.522,0.08894310793993515
569,152958.0,0.08880905415715315
570,156170.0,0.08771359912982958
571,157683.84,0.087213727686389
572,159449.0,0.08659467059985841
573,162797.0,0.0854555098174759
574,162961.05099999998,0.08540135009847705
575,166215.0,0.08420813500575983
576,168414.875,0.08342286206398475
577,169705.0,0.08296863022171494
578,173268.0,0.08174768168941317
579,174051.222,0.08148636480455093
580,176907.0,0.08031236914664722
581,179876.201,0.07911760394986014
582,180621.0,0.07881732915212536
583,184414.0,0.07732012168226707
584,185896.125,0.07674707268962135
585,188286.0,0.07572444868525505
586,192117.51799999998,0.07411489447125855
587,192239.0,0.07406085323269168
588,196276.0,0.07229545650139138
589,198547.123,0.07131872351083501
590,200397.0,0.07050262734512033
591,204605.0,0.06867569019693798
592,205191.907,0.06842483383968542
593,208901.0,0.06697506146556761
594,212059.073,0.06576118121993108
595,213287.0,0.06527616426725352
596,217766.0,0.0635349117922713
597,219156.062,0.06300291034214334
598,222338.0,0.061869490058985344
599,226490.56699999998,0.0604144496033376
600,227006.0,0.060237346102301956
601,231773.0,0.0586260961661254
602,234070.535,0.05784883973026202
603,236639.0,0.056997055368049075
604,241608.0,0.055289415241690565
605,241904.18300000002,0.05518911406337855
606,246681.0,0.053635335036120085
607,250000.0,0.05257205585324419
608,251861.0,0.05200664435544322
609,257149.0,0.050425407425084
610,262549.0,0.04883608574884728
611,268061.0,0.04723927932673305
612,273690.0,0.04563398526830037
613,275422.87,0.04514736984123666
614,279437.0,0.044154750002060074
615,285304.0,0.04272907820206993
616,291295.0,0.041298352847759214
617,297411.0,0.03986274689433503
618,303656.0,0.038421652162625726
619,310032.0,0.0369750145630455
620,316227.766,0.03559257101271294
621,316541.0,0.03553326233236344
622,323188.0,0.03429905845515585
623,329974.0,0.03306319134055818
624,336902.0,0.03182538120646848
625,343976.0,0.03058515501008418
626,351199.0,0.029342432969303306
627,358573.0,0.02809692856272459
628,363078.055,0.027349780051146425
629,366102.0,0.02693555355065462
630,373789.0,0.02590534031891261
631,381638.0,0.024875994910308084
632,389651.0,0.02384728853253409
633,397832.0,0.022819063600976738
634,406186.0,0.02179069813486867
635,414714.0,0.02076232773805641
636,416869.38300000003,0.02050764163729904
