,lambda (Angstroms),Total Flux (erg/s/cm^2/Angstrom)
0,1017.9,12.036694088826339
1,1038.0,14.470886406406965
2,1058.1,10.954778723987591
3,1078.5,10.233470926905243
4,1096.4782,9.427047869488721
5,1098.6,9.33187151726018
6,1118.7,9.73754747267833
7,1138.8,9.557213428096482
8,1158.9,9.737499383514633
9,1179.3,11.76606498005843
10,1199.4,17.85164093547658
11,1219.5,33.493816890894735
12,1239.6,18.031992846312885
13,1258.92541,12.050803406491859
14,1259.7,11.811069794241229
15,1280.1,9.602151530043125
16,1300.2,9.557073240318523
17,1326.52,8.779965479843327
18,1345.73,8.704637114390112
19,1364.38,8.361778701287435
20,1383.02,8.744970287333874
21,1401.66,9.990291873380313
22,1420.87,8.3989235079271
23,1439.52,7.846305094824421
24,1445.43977,7.795984377685481
25,1458.16,7.687856506927216
26,1476.8,7.609667838079712
27,1495.45,7.818989169946347
28,1514.65,8.15780054109055
29,1533.3,9.903461872957186
30,1551.94,13.063693204109683
31,1570.59,8.471594535976317
32,1589.79,7.400425907120521
33,1608.44,7.2234972389871555
34,1627.08,7.136008570139652
35,1645.73,7.031159902006287
36,1659.58691,6.926661651306735
37,1664.37,6.890593386063765
38,1683.58,6.361803404488381
39,1702.22,6.170603125645842
40,1720.86,6.210512846803303
41,1739.51,6.173682573175977
42,1758.72,6.041252591600592
43,1777.36,5.890502312758053
44,1796.0,5.817462033915514
45,1814.65,5.746301760288189
46,1833.86,5.674551778712804
47,1852.5,5.875521499870264
48,1871.14,5.9201312210277255
49,1889.79,6.4715009474004
50,1905.46072,7.159431869714597
51,1908.43,7.2897771239260845
52,1927.64,5.979154210065291
53,1946.28,5.365531679385165
54,1964.93,5.064999141982573
55,1983.57,4.932906611302448
56,2002.78,4.931963697441653
57,2021.42,4.7867111667615285
58,2040.07,4.735198629358935
59,2058.71,4.77079609867881
60,2077.35,4.809783567998686
61,2096.56,4.661570654137892
62,2115.21,4.521098116735298
63,2133.85,4.4038755860551735
64,2152.49,4.312973055375048
65,2171.7,4.295440141514254
66,2187.7616199999998,4.215474341417942
67,2190.35,4.2025907314548165
68,2208.99,4.148230722072339
69,2227.63,4.177960712689862
70,2246.84,4.060671008814466
71,2265.49,4.084571004791763
72,2284.13,4.135170995409285
73,2302.77,4.202500986026807
74,2321.42,4.291910982004104
75,2340.62,4.205321272768935
76,2359.27,4.138891268746232
77,2377.91,4.082921259363754
78,2396.56,4.075851255341051
79,2415.76,4.130641546105881
80,2434.41,4.140781542083178
81,2453.05,4.0451115327007
82,2471.7,4.063211528677996
83,2490.34,4.0075115192955195
84,2509.55,3.9608618154201234
85,2511.88643,3.9551874480369964
86,2528.19,3.9155796857244565
87,2546.83,3.8501358190924404
88,2565.48,3.7728419503860513
89,2584.69,3.727707965514752
90,2603.33,3.694054098882736
91,2621.97,3.64681023225072
92,2640.62,3.518286363544331
93,2659.83,3.4248623786730317
94,2678.47,3.4310385120410154
95,2697.11,3.4685746454090003
96,2715.76,3.537850776702611
97,2734.4,3.655646910070595
98,2753.61,3.8032429251992954
99,2772.25,3.9955490585672795
100,2790.9,4.84031518986089
101,2809.54,4.585701323228875
102,2828.75,3.923917338357575
103,2847.39,3.6413734717255593
104,2866.04,3.44645960301917
105,2884.0315,3.320235460234302
106,2884.68,3.315685868157223
107,2903.32,3.2088657890257277
108,2922.53,3.1994857074744387
109,2941.18,3.236705628300491
110,2959.82,3.191335549168995
111,2978.46,3.1272254700374997
112,2997.67,2.9990853884862103
113,3016.32,2.8573753093122622
114,3034.96,2.829075230180767
115,3053.6,2.7876151510492715
116,3072.81,2.798675069497982
117,3091.46,2.7536649903240336
118,3110.1,2.7935349111925385
119,3128.74,2.858294832061043
120,3147.39,2.7966547528870946
121,3166.59,2.8133746713782584
122,3185.24,2.87151459220431
123,3203.88,2.8235545130728146
124,3222.53,2.7650444338988662
125,3241.73,2.70588435239003
126,3260.38,2.7014942732160816
127,3279.02,2.674144194084586
128,3297.67,2.6218041149106384
129,3311.31121,2.569888421946618
130,3316.31,2.5508636513341454
131,3335.52,2.5423720923876467
132,3354.16,2.5021905796982806
133,3372.8,2.4632090670089144
134,3391.45,2.446097553508019
135,3410.66,2.462465994561521
136,3429.3,2.5457244818721545
137,3447.94,2.3890029691827883
138,3466.59,2.3629114556818935
139,3485.8,2.353469896735395
140,3504.44,2.3071083840460287
141,3523.08,2.233756871356662
142,3541.73,2.177585357855767
143,3560.37,2.1573838451664002
144,3579.58,2.1610622862199023
145,3598.22,2.150000773530536
146,3616.87,2.113419260029641
147,3635.51,2.1082977473402744
148,3654.72,2.083936188393776
149,3673.36,2.0416046757044097
150,3692.01,2.023983162203515
151,3710.65,2.0237816495141483
152,3729.29,2.3731101368247822
153,3748.5,1.960318577878284
154,3767.15,1.9386670643773887
155,3785.79,1.8856155516880222
156,3801.8939600000003,1.830675896286248
157,3804.43,1.8220240818809759
158,3823.64,1.8271728477595448
159,3842.29,1.8157516496145842
160,3860.93,1.9155704521120607
161,3879.57,1.8669292546095373
162,3898.78,1.7770080204881062
163,3917.43,1.7403668223431457
164,3936.07,1.672575624840622
165,3954.71,1.7153144273380987
166,3973.36,1.737973229193138
167,3992.56,1.639101995714144
168,4011.21,1.6078607975691834
169,4029.85,1.59343960006666
170,4048.5,1.5787384019216995
171,4067.7,1.6178671684427055
172,4086.35,1.6144959702977448
173,4104.99,1.6659147727952215
174,4123.64,1.570913574650261
175,4142.28,1.5153723771477372
176,4161.49,1.4924811430263063
177,4180.13,1.4996899455237827
178,4198.77,1.4546487480212593
179,4217.42,1.4529975498762988
180,4236.63,1.4922463157548678
181,4255.27,1.4830151182523441
182,4273.91,1.4895239207498208
183,4292.56,1.53113272260486
184,4311.77,1.583571488483429
185,4330.41,1.7139302909809055
186,4349.05,1.7799590934783822
187,4365.15832,1.7020507951350898
188,4367.7,1.6897581520172802
189,4386.34,1.5182088369653883
190,4405.55,1.4652595428587984
191,4424.19,1.4348202278069069
192,4442.84,1.3961009131224766
193,4461.48,1.411211598070585
194,4480.69,1.444462303963995
195,4499.33,1.4621929889121035
196,4517.98,1.4934836742276734
197,4536.62,1.4790743591757816
198,4555.83,1.4838050650691919
199,4574.47,1.4746757500173
200,4593.12,1.4468364353328698
201,4611.76,1.4157271202809782
202,4630.4,1.4292978052290868
203,4649.61,1.3649285111224967
204,4668.26,1.3543291964380666
205,4686.9,1.3831298813861748
206,4705.54,1.2905905663342832
207,4724.75,1.2914912722276932
208,4743.4,1.264501957543263
209,4762.04,1.2743226424913714
210,4780.68,1.3213033274394799
211,4799.33,1.3828740127550498
212,4818.53,1.4890647182809984
213,4837.18,1.6754654035965681
214,4855.82,2.1364760885446765
215,4874.47,1.9658967738602462
216,4893.67,1.6507074793861949
217,4912.32,1.5048881647017647
218,4930.96,1.4357488496498731
219,4949.6,1.5459795345979817
220,4968.81,1.5293402404913916
221,4987.46,1.4345609258069614
222,5006.1,4.56499161075507
223,5011.87234,3.5941362602483244
224,5024.74,1.4299123907192741
225,5043.39,1.2325932137483204
226,5062.6,1.155334061490303
227,5081.24,1.102214884078047
228,5099.88,1.1043257066657906
229,5118.53,1.113666529694837
230,5137.74,1.1372073774368197
231,5156.38,1.1525582000245633
232,5175.02,1.1610590226123072
233,5193.67,1.1744698456413534
234,5212.31,1.1366206682290974
235,5231.52,1.1389415159710798
236,5250.16,1.117982338558824
237,5268.81,1.14556316158787
238,5287.45,1.1526239841756138
239,5306.66,1.1362648319175963
240,5325.3,1.1163056545053403
241,5343.95,1.0685964775343866
242,5362.59,1.0610073001221303
243,5381.8,1.030688147864113
244,5400.44,1.0152689704518567
245,5419.09,1.027139793480903
246,5437.73,1.0155106160686467
247,5456.37,1.0007914386563905
248,5475.58,1.0029222863983733
249,5494.23,1.0007931094274194
250,5512.87,0.9995379320151633
251,5531.51,1.013074754602907
252,5550.72,1.00037860234489
253,5569.37,0.9938494253739361
254,5588.01,0.9835722479616799
255,5606.65,0.9711430705494237
256,5625.3,0.9634938935784698
257,5644.5,0.9610687408791503
258,5663.15,0.9566395639081964
259,5681.79,0.9616233864959401
260,5700.44,0.9458502095249864
261,5719.64,0.9451940568256667
262,5738.29,0.9275148798547129
263,5754.399369999999,0.9424971320178194
264,5756.93,0.9448508752031424
265,5775.58,0.9720169714277115
266,5794.78,1.0310391294712358
267,5813.43,1.0157812256958048
268,5832.07,0.9727903207963928
269,5850.71,0.989256415896981
270,5869.36,1.02011751212155
271,5888.57,0.9958956712890552
272,5907.21,0.9707637663896433
273,5925.85,0.9382358614902314
274,5944.5,0.9422899577148005
275,5963.71,0.9448351168823058
276,5982.35,0.9213622119828938
277,6000.99,0.9166093070834819
278,6019.64,0.9119024033080511
279,6038.28,0.9072334984086391
280,6057.49,0.9024616575761443
281,6076.13,0.8978717526767325
282,6094.78,0.8933138489013015
283,6113.42,0.8887949440018896
284,6132.63,0.8841791031693949
285,6151.27,0.879738198269983
286,6169.92,0.875330294494552
287,6188.56,0.8709543895951402
288,6207.77,0.8664885487626454
289,6226.41,0.8621836438632334
290,6245.06,0.8579127400878025
291,6263.7,0.8536798351883906
292,6282.34,0.8494799302889787
293,6301.55,0.8451830894564839
294,6320.2,0.8410481856810531
295,6338.84,0.8369452807816411
296,6357.48,0.8328753758822293
297,6376.69,0.8287145350497345
298,6395.33,0.8247096301503226
299,6413.98,0.8207377263748916
300,6432.62,0.8167918214754798
301,6451.27,0.8128779177000488
302,6470.47,0.808873075743573
303,6489.12,0.8050241719681421
304,6507.76,0.8011952670687302
305,6526.41,0.7974053632932993
306,6545.61,0.7935255213368235
307,6564.26,0.7897866175613927
308,6582.9,0.7860757126619807
309,6601.54,0.7823958077625688
310,6606.93448,0.7813388601262296
311,6620.75,0.7786304230279237
312,6639.4,0.7750064350909771
313,6658.04,0.7714044471475624
314,6676.68,0.7678314592041477
315,6695.33,0.7642814712672011
316,6714.54,0.7606584836924697
317,6733.18,0.7571584957490549
318,6751.82,0.7536915078056402
319,6770.47,0.7502505198686936
320,6789.68,0.746725532293962
321,6808.32,0.7433365443505473
322,6826.96,0.7399665564071326
323,6845.61,0.7366235684701861
324,6864.25,0.7333065805267713
325,6883.46,0.7299105929520399
326,6902.1,0.7266386050086251
327,6920.75,0.7233936170716786
328,6939.39,0.7201666291282638
329,6958.6,0.7168686415535322
330,6977.24,0.7136886536101176
331,6995.89,0.7105336656731709
332,7014.53,0.7074046777297562
333,7033.74,0.7041976901550246
334,7052.38,0.70110770221161
335,7071.03,0.6980447142746634
336,7089.67,0.6949937263312487
337,7108.31,0.691968738387834
338,7127.52,0.6888797508131025
339,7146.17,0.6858937628761558
340,7164.81,0.6829337749327411
341,7183.45,0.6799937869893264
342,7202.66,0.6769887994145949
343,7221.3,0.6740878114711801
344,7239.95,0.6712068235342336
345,7258.59,0.6683438355908189
346,7277.24,0.6655078476538723
347,7296.44,0.6626008600726726
348,7315.09,0.659796872135726
349,7333.73,0.6570128841923114
350,7352.38,0.6542488962553648
351,7371.58,0.651425908674165
352,7390.23,0.6486959207372185
353,7408.87,0.6459889327938038
354,7427.51,0.643297944850389
355,7446.72,0.6405449572756575
356,7465.37,0.6378909693387108
357,7484.01,0.6352549813952962
358,7502.65,0.6326359934518816
359,7521.3,0.6300340055149349
360,7540.51,0.6273720179402034
361,7559.15,0.6248050299967887
362,7577.79,0.6222550420533739
363,7585.77575,0.6211700128754934
364,7596.44,0.6197215349216736
365,7615.65,0.617129413443365
366,7634.29,0.6146302658975208
367,7652.93,0.6121461183516763
368,7671.58,0.6096799712631571
369,7690.22,0.6072278237173129
370,7709.43,0.6047197022390044
371,7728.07,0.60229955469316
372,7746.72,0.5998964076046407
373,7765.36,0.5975072600587964
374,7784.57,0.595063138580488
375,7803.21,0.5927049910346436
376,7821.86,0.5903618439461245
377,7840.5,0.58803369640028
378,7859.71,0.5856505749219715
379,7878.35,0.5833524273761271
380,7897.0,0.581068280287608
381,7915.64,0.5787991327417636
382,7934.28,0.5765439851959192
383,7953.49,0.5742348637176107
384,7972.13,0.5720077161717664
385,7990.78,0.5697945690832472
386,8000.0,0.568704990737073
387,8167.98,0.549428672885628
388,8339.48,0.5279305160126501
389,8514.59,0.5070505242340659
390,8693.37,0.4867827002938269
391,8709.6359,0.485030580245192
392,8875.9,0.4671352205437234
393,9062.27,0.44808563027468234
394,9252.55,0.4296275521162173
395,9446.83,0.41175099785603975
396,9645.19,0.39444697797211536
397,9847.71,0.37770750294240996
398,10000.0,0.3657888969539584
399,10054.5,0.3615236060537659
400,10265.6,0.3458833279141785
401,10481.1,0.3331436275869351
402,10701.2,0.32588353133623316
403,10925.9,0.31929903916207264
404,11155.3,0.3133531641965523
405,11389.6,0.3080159327038695
406,11481.5362,0.30618735930936786
407,11628.7,0.3032781320542173
408,11872.9,0.29910773835619003
409,12122.2,0.295472631276263
410,12376.7,0.29235683604224194
411,12636.6,0.2897404031097387
412,12901.9,0.28761333247875337
413,13172.8,0.2859636746048976
414,13182.5674,0.2859219982500782
415,13449.4,0.28481554714581286
416,13731.8,0.28413175521826506
417,14020.1,0.28390816133472385
418,14314.5,0.28093784000515554
419,14615.1,0.2779988284845433
420,14922.0,0.27512716402787035
421,15135.6125,0.27321107412705575
422,15235.3,0.2723446704678538
423,15555.2,0.2696900170708875
424,15881.8,0.2670947272945537
425,16215.3,0.26456493139618464
426,16555.7,0.26209562937578035
427,16903.3,0.2596860166193394
428,17258.3,0.25733522338419385
429,17378.0083,0.25657823645327593
430,17620.6,0.2551837808807002
431,17990.6,0.2531616687863956
432,18368.4,0.25120012513983264
433,18754.1,0.2492992726134184
434,19147.8,0.24745623387955967
435,19549.9,0.24579949962788428
436,19952.6231,0.24439715032702652
437,19960.4,0.24437851576135486
438,20379.5,0.24348978863445755
439,20807.4,0.24269541369387215
440,21244.3,0.24199285348928748
441,21690.4,0.24138357057039253
442,22145.8,0.24086479621203166
443,22610.8,0.24043622423873834
444,22908.6765,0.2402236032562936
445,23085.6,0.24041789543436015
446,23570.3,0.24104614142318295
447,24065.2,0.24178145943405233
448,24570.5,0.2426226744085771
449,25086.4,0.24357061128836596
450,25613.2,0.2446255074858321
451,26151.0,0.24578677547177988
452,26302.679900000003,0.24613700582128373
453,26700.1,0.2476819276318376
454,27260.7,0.2490740717866609
455,27833.1,0.24896851223300562
456,28417.5,0.2487633895859823
457,29014.2,0.24847041476825676
458,29623.4,0.2483287283949395
459,30199.5172,0.24833550193430734
460,30245.4,0.24837322495489994
461,30880.5,0.24904693528661365
462,31528.9,0.24988027488523304
463,32190.9,0.2508751977943725
464,32866.8,0.2520306580576465
465,33556.9,0.2533466097186694
466,34261.5,0.2548250068210556
467,34673.685,0.2557645391484987
468,34980.9,0.2563921748266407
469,35715.4,0.25802068207582085
470,36465.3,0.259808856189041
471,37231.0,0.2617572079939385
472,38012.7,0.2638649929043321
473,38810.9,0.2661353494547686
474,39625.8,0.26856653305906664
475,39810.7171,0.2691431813632028
476,40457.8,0.2702311009778152
477,41307.3,0.27176861437803557
478,42174.7,0.27344576237491736
479,43060.2,0.2752625129527809
480,43964.4,0.277220770064587
481,44887.5,0.2793195016946558
482,45708.818999999996,0.2811875132090602
483,45830.0,0.2812597292666602
484,46792.3,0.28183099522201693
485,47774.8,0.2825021225223786
486,48777.9,0.28327337574883427
487,49802.1,0.2841473356277455
488,50847.8,0.28512426674020164
489,51915.5,0.2862047498125641
490,52480.746,0.2868198778845319
491,53005.6,0.28633207423026924
492,54118.5,0.28537800481149367
493,55254.9,0.28448481459898894
494,56415.1,0.2836518467315585
495,57599.6,0.2828796731072081
496,58809.1,0.2821680943831457
497,60043.9,0.28151745369817494
498,60255.9586,0.28141837700551775
499,61304.6,0.2796942130219182
500,62591.8,0.2776515055235891
501,63906.1,0.2756388988851071
502,65247.9,0.2736553798350311
503,66617.9,0.27170192514833835
504,67000.0,0.2711759748701977
505,68016.7,0.26938500051765646
506,69242.2916,0.2672855146139341
507,69444.9,0.26673774701300085
508,70903.0,0.26286367383859244
509,71559.6261,0.26114862037228936
510,72391.8,0.25822658770603746
511,73911.8,0.25295541158915313
512,73954.515,0.25280937586354424
513,75463.8,0.24293610296045326
514,76429.5536,0.2366777450461322
515,77048.3,0.23045773508755205
516,78666.1,0.21425857832968764
517,78987.42450000001,0.21105339297750686
518,80317.8,0.19655178820480068
519,81630.8998,0.18228661994432677
520,82004.3,0.1785209796142072
521,83726.1,0.16121789268010922
522,84362.84430000001,0.1548406663528508
523,85484.1,0.14812944180673318
524,87186.21900000001,0.13799698289093837
525,87279.1,0.1376406356102654
526,89111.7,0.13066769971066805
527,90104.0836,0.12692173011492922
528,90982.8,0.12433296467212487
529,92893.1,0.11876090028784217
530,93119.6005,0.11810657446222972
531,94843.6,0.11698854586234331
532,96236.03790000001,0.11612320077291585
533,96835.1,0.11643953376884358
534,98868.3,0.11756609736064035
535,99456.7731,0.11790689783780972
536,100944.0,0.11963861099374881
537,102785.297,0.12182686158316494
538,103064.0,0.1221231771737196
539,105228.0,0.1244742434417069
540,106225.216,0.1255799091998415
541,107437.0,0.1274105984924502
542,109693.0,0.13086733195560593
543,109780.26,0.13100283482220887
544,111996.0,0.13439935536836922
545,113454.28,0.13666382410632416
546,114348.0,0.13801338304329536
547,116749.0,0.1416850030873261
548,117251.259,0.1424623107418287
549,119200.0,0.14551375909412934
550,121175.312,0.14864181863018017
551,121703.0,0.14929359711290557
552,124259.0,0.1524943463341833
553,125230.691,0.15372711492877503
554,126868.0,0.1553775312189016
555,129421.79100000001,0.15799206415539382
556,129532.0,0.15804838251760944
557,132252.0,0.1594613095668342
558,133753.155,0.16025720957087766
559,135028.0,0.16036942133973475
560,137864.0,0.16065866142583546
561,138229.477,0.16070086685696156
562,140758.0,0.16018129698827427
563,142855.609,0.15977750312126665
564,143714.0,0.15920806793680806
565,146731.0,0.15724469422564646
566,147636.563,0.15666632680142775
567,149812.0,0.15534461253381904
568,152577.522,0.15369663131684408
569,152958.0,0.1534543048795434
570,156170.0,0.15144481075846392
571,157683.84,0.15051414574662625
572,159449.0,0.14954784869288312
573,162797.0,0.14775007372808796
574,162961.05099999998,0.1476636421108696
575,166215.0,0.1457625096959495
576,168414.875,0.14449863994175322
577,169705.0,0.14401226765698147
578,173268.0,0.14270255532533122
579,174051.222,0.14242172629888789
580,176907.0,0.14147560176697832
581,179876.201,0.140517758058897
582,180621.0,0.14020408404364912
583,184414.0,0.13863863906000917
584,185896.125,0.13803892607445184
585,188286.0,0.13750916474647656
586,192117.51799999998,0.1366897824938255
587,192239.0,0.13665028059300474
588,196276.0,0.13536804438327238
589,198547.123,0.13466312634768876
590,200397.0,0.13410995944695525
591,204605.0,0.13288111954904464
592,205191.907,0.1327136822656669
593,208901.0,0.13109858743304287
594,212059.073,0.129743944906034
595,213287.0,0.1292408940016065
596,217766.0,0.12743386068632345
597,219156.062,0.12688144408852184
598,222338.0,0.12564049235786198
599,226490.56699999998,0.12404511870264888
600,227006.0,0.12375859848259041
601,231773.0,0.12113540422080435
602,234070.535,0.11987042437270284
603,236639.0,0.11853341256560213
604,241608.0,0.11588704242982262
605,241904.18300000002,0.11573078716208005
606,246681.0,0.11303715402521565
607,250000.0,0.1111818880884444
608,251861.0,0.1101248761713812
609,257149.0,0.1071467649707056
610,262549.0,0.10413098318484174
611,268061.0,0.10107813081378958
612,273690.0,0.09798588417071036
613,275422.87,0.0970415150528745
614,279437.0,0.09494198450164927
615,285304.0,0.09189846645662235
616,291295.0,0.08881570141354136
617,297411.0,0.08569358657403486
618,303656.0,0.08253041074461726
619,310032.0,0.07932556832854573
620,316227.766,0.07623462013218854
621,316541.0,0.07609965300034752
622,323188.0,0.07325993462897844
623,329974.0,0.07038497899965535
624,336902.0,0.06747378171112745
625,343976.0,0.06452490356172698
626,351199.0,0.06153754015020314
627,358573.0,0.058510921875722086
628,363078.055,0.05667562365758537
629,366102.0,0.05571234736090153
630,373789.0,0.05328642561484191
631,381638.0,0.05083195777500557
632,389651.0,0.04834835191430885
633,397832.0,0.045834724178584405
634,406186.0,0.0432895447501231
635,414714.0,0.04071276766538309
