,lambda (Angstroms),Total Flux (erg/s/cm^2/Angstrom)
0,1313.73,0.023974210803893066
1,1352.45,0.02620315321629752
2,1365.36,0.06582676738324332
3,1379.84,0.01381939543416317
4,1392.44,0.029651006859687346
5,1405.66,0.07564642376805478
6,1426.44,0.05526920753173672
7,1440.92,0.014234235582656561
8,1445.43977,0.020673853758142905
9,1454.14,0.03306964012618433
10,1470.99,0.030872365188353706
11,1489.4,0.02356720182897912
12,1505.78,0.03788162340276752
13,1518.37,0.0656954168468454
14,1530.33,0.040148905615008355
15,1544.5,0.02458141078598403
16,1557.88,0.01448251009351081
17,1573.78,0.025217128104697346
18,1586.37,0.04571922154877524
19,1598.97,0.012672515067074
20,1611.56,0.06116910851115189
21,1624.78,0.03577900663114472
22,1637.38,0.050017300149443486
23,1651.86,0.02590430762126619
24,1659.58691,0.025740007028413125
25,1664.45,0.025636828560820887
26,1677.04,0.03291731096542655
27,1689.64,0.012304993912053346
28,1702.55,0.025967393661335245
29,1717.34,0.017127595310590032
30,1733.08,0.036231148451852394
31,1745.68,0.011095731398479188
32,1758.27,0.029619413803084853
33,1770.86,0.01737139620769052
34,1783.46,0.03154537915431731
35,1796.05,0.057547061558922974
36,1809.9,0.037546612258191316
37,1822.5,0.06306559520481812
38,1835.09,0.07434737760942378
39,1847.68,0.07599256001402944
40,1857.76,0.026308106371330877
41,1870.35,0.05854888877593654
42,1882.95,0.05271437172256334
43,1895.54,0.09888535412716899
44,1905.46072,0.13190092907371528
45,1908.13,0.14078380535623303
46,1920.73,0.10233092503043262
47,1933.32,0.05533404540330346
48,1945.91,0.09568916577617431
49,1958.51,0.0626860854503739
50,1971.1,0.07913110582324474
51,1983.69,0.06882182619611558
52,1996.29,0.07830314587031519
53,2008.88,0.07560816624318603
54,2021.47,0.10823488661605689
55,2034.07,0.09676330629025647
56,2046.66,0.11570712666312731
57,2059.25,0.11703724703599816
58,2071.84,0.107594367408869
59,2084.44,0.1253004870830686
60,2097.03,0.11253260745593943
61,2109.62,0.12638972782881028
62,2122.22,0.14077984750300987
63,2134.81,0.14984996787588073
64,2147.4,0.14616208824875157
65,2160.0,0.11012020792295116
66,2170.07,0.1457355043609821
67,2182.67,0.13326462403518166
68,2187.7616199999998,0.14233091077488846
69,2195.26,0.15568368599211183
70,2207.85,0.1717823873122415
71,2220.45,0.17015708918941652
72,2233.04,0.15434479050954622
73,2245.63,0.1760824918296759
74,2258.23,0.21270719370685093
75,2270.82,0.2268678950269806
76,2283.41,0.2066725963471103
77,2296.01,0.21349529822428534
78,2308.6,0.222062999544415
79,2321.19,0.26184870086454465
80,2333.79,0.24355840274171972
81,2346.38,0.25576110406184943
82,2358.97,0.260344805381979
83,2371.57,0.2782225072591541
84,2384.16,0.2592032085792838
85,2396.75,0.27062890989941346
86,2409.35,0.28244661177658853
87,2421.94,0.29439631309671815
88,2434.53,0.26963701441684784
89,2447.13,0.2677977162940229
90,2459.72,0.3035274176141526
91,2472.31,0.2565391189342822
92,2482.39,0.33964468043602225
93,2494.98,0.320249381756152
94,2507.57,0.3358750830762816
95,2511.88643,0.3253911946543529
96,2520.17,0.30527114493451735
97,2532.76,0.30930987350516276
98,2545.35,0.33567460207580807
99,2557.95,0.3233273304308622
100,2570.54,0.33118205900150754
101,2583.13,0.32785378757215294
102,2595.73,0.3064005159272071
103,2608.32,0.29993624449785244
104,2620.91,0.34636397306849775
105,2633.51,0.3355377014235519
106,2646.1,0.3558534299941973
107,2658.69,0.3204891585648426
108,2671.29,0.3561068869198968
109,2683.88,0.3339856154905422
110,2696.47,0.3599863440611875
111,2709.07,0.36011407241624166
112,2721.66,0.41489480098688697
113,2734.25,0.48433652955753237
114,2746.85,0.5041862579125864
115,2759.44,0.37929098648323184
116,2772.03,0.5193907150538772
117,2784.63,0.6162754434089314
118,2794.7,0.7622172263085659
119,2807.29,0.6818529548792113
120,2819.89,0.5635396832342654
121,2832.48,0.5391454118049107
122,2845.07,0.5620211403755561
123,2857.67,0.5050698687306102
124,2870.26,0.5523745973012555
125,2882.85,0.535452325871901
126,2884.0315,0.5355836719474165
127,2895.45,0.5368532953618147
128,2908.04,0.5171012898069518
129,2920.63,0.6051232842520889
130,2933.23,0.5869712786928138
131,2945.82,0.693501273137951
132,2958.41,0.610492267583088
133,2971.01,0.6101662620238131
134,2983.6,0.6363582564689502
135,2996.19,0.5066492509140873
136,3008.79,0.47066724535481225
137,3021.38,0.4276792397999493
138,3033.97,0.6144532342450864
139,3046.57,0.5328252286858114
140,3059.16,0.5877222231309485
141,3071.75,0.6365872175760856
142,3084.35,0.5925592120168105
143,3096.94,0.4094132064619476
144,3107.02,0.7197282020145276
145,3119.61,0.7059251964596647
146,3132.2,0.7655581909048018
147,3144.8,0.7235441853455268
148,3157.39,0.7131191797906639
149,3169.98,0.807740174235801
150,3182.58,0.8013721686765259
151,3195.17,0.9473301631216631
152,3207.76,0.6675541575668001
153,3220.36,0.8253221520075251
154,3232.95,0.2501021464526621
155,3245.54,0.7096011408977992
156,3258.14,0.7880121353385242
157,3270.73,0.7018021297836613
158,3283.32,0.7446531242287984
159,3295.92,0.9301691186695233
160,3308.51,0.7654661131146604
161,3311.31121,0.7627983987810358
162,3321.1,0.75347602931734
163,3333.7,0.9050969230454167
164,3346.29,0.8629948168578362
165,3358.88,0.9413857106702557
166,3371.48,0.9097346043983324
167,3384.07,0.8976914982107519
168,3396.66,0.7476973920231714
169,3409.26,0.8716712857512481
170,3419.33,0.9886532008180522
171,3431.92,0.8727940946304718
172,3444.52,0.8590259883585484
173,3457.11,0.9584088821709679
174,3469.7,0.9104647759833874
175,3482.3,0.8373386697114641
176,3494.89,0.9863645635238836
177,3507.48,0.835167457336303
178,3520.08,0.9520523510643797
179,3532.67,0.9608152448767991
180,3545.26,0.9435791386892187
181,3557.86,0.7838700324172955
182,3570.45,1.0091529262297148
183,3583.04,1.0244728200421342
184,3595.64,0.854165713770211
185,3608.23,0.8730026075826305
186,3620.82,0.93923450139505
187,3633.42,1.0320523951231269
188,3646.01,1.0340522889355463
189,3658.6,1.0699021827479658
190,3671.2,0.8324210764760424
191,3683.79,0.9167449702884619
192,3696.38,0.7754318641008814
193,3708.98,0.8155877578289581
194,3721.57,1.2069416516413776
195,3731.64,0.8846255667081817
196,3744.24,0.9155124604362584
197,3756.83,0.9292313542486779
198,3769.42,1.0264512480610974
199,3782.02,0.942726141789174
200,3794.61,0.9935250356015936
201,3801.8939600000003,0.9651661284700519
202,3807.2,0.9445079387387554
203,3819.8,0.9927818546098528
204,3832.39,1.0000347705477193
205,3844.98,1.0273906864855855
206,3857.58,1.071280602356683
207,3870.17,1.1141605182945493
208,3882.76,1.059740434232416
209,3895.36,0.9896103501035132
210,3907.95,0.7875592660413796
211,3920.54,1.0598201819792459
212,3933.14,0.9408400978503434
213,3945.73,0.8539640137882099
214,3958.32,1.0006099297260762
215,3970.92,1.0930498455971736
216,3983.51,0.98016376153504
217,3996.1,0.9976556774729063
218,4008.7,0.9898525933440039
219,4021.29,1.0410195092818701
220,4033.88,0.9560204252197365
221,4043.96,0.9736523579166144
222,4056.55,0.9865022738544809
223,4069.15,0.9817541897255784
224,4081.74,1.0040191056634449
225,4094.33,1.088969021601311
226,4120.0,1.0427288502053642
227,4170.0,1.0345985163605127
228,4220.0,1.0095081825156613
229,4270.0,1.02356784867081
230,4320.0,1.0673075148259583
231,4365.15832,1.1022145946685054
232,4370.0,1.1059572317991477
233,4420.0,1.1014874227518974
234,4470.0,1.069667613704647
235,4520.0,1.1459978046573966
236,4570.0,1.164477995610146
237,4607.51,1.144568138862899
238,4620.1,1.1304481869448013
239,4632.7,1.1409382350648942
240,4645.29,1.1822982831467967
241,4657.88,1.136088331228699
242,4670.48,1.1365483793487918
243,4683.07,1.144588427430694
244,4695.66,1.1584384755125967
245,4708.26,1.1707085236326895
246,4720.85,1.137148571714592
247,4730.92,1.1257786101724756
248,4743.52,1.1321786582925684
249,4756.11,1.2157287063744708
250,4768.7,1.1830887544563733
251,4781.3,1.2728988025764663
252,4793.89,1.2727688506583685
253,4806.48,1.412398898740271
254,4819.08,1.411418946860364
255,4831.67,1.483388994942266
256,4844.26,1.5864390430241686
257,4856.86,1.7466790911442613
258,4869.45,1.9336691392261638
259,4882.04,1.698859187308066
260,4894.64,1.547999235428159
261,4907.23,1.3774192835100614
262,4919.82,1.3493793315919638
263,4932.42,1.2886693797120565
264,4945.01,1.327579427793959
265,4957.6,1.2951194758758613
266,4970.2,1.2044395239959542
267,4982.79,1.2019695720778565
268,4995.38,1.486279620159759
269,5007.98,1.6059496682798517
270,5011.87234,1.491377619554753
271,5020.57,1.2353597230366453
272,5033.16,1.1983397807805576
273,5043.24,1.1732098270123796
274,5055.83,1.1361098847562918
275,5068.42,1.1154399425002042
276,5081.02,1.1118900002899816
277,5093.61,1.093840058033894
278,5106.2,1.0788101157778065
279,5118.8,1.0973001735675836
280,5131.39,1.0801702313114963
281,5143.98,1.1147302890554085
282,5156.58,1.1357703468451859
283,5169.17,1.1635404045890982
284,5181.76,1.1352404623330106
285,5194.36,1.249410520122788
286,5206.95,1.1480305778667004
287,5219.54,1.1632606356106128
288,5232.14,1.19190069340039
289,5244.73,1.2110607511443026
290,5257.32,1.063460808888215
291,5269.92,1.1342108666779922
292,5282.51,1.1469409244219047
293,5295.1,1.1535409821658171
294,5307.7,1.0524310399555943
295,5320.29,1.1426310976995067
296,5332.88,1.1723511554434192
297,5345.48,0.9650512132331965
298,5355.55,1.1060412594191535
299,5368.15,1.0695813172089306
300,5380.74,0.7300183749528432
301,5393.33,1.0431314326967556
302,5420.0,1.009921555018451
303,5470.0,1.0137417843429641
304,5520.0,0.9909100136674771
305,5570.0,0.9178102429919903
306,5620.0,0.8570074723165034
307,5670.0,0.8297917016410165
308,5720.0,0.8278939309655297
309,5754.399369999999,0.8484683519349048
310,5770.0,0.8577992709785557
311,5820.0,0.926607855059617
312,5870.0,0.9681374391406782
313,5907.14,1.0207448729960904
314,5919.73,0.8249050200677017
315,5932.33,0.952207167256129
316,5944.92,0.9726383143277403
317,5957.51,0.9001884613993515
318,5970.11,0.7842646085877789
319,5982.7,0.8902897556593902
320,5995.29,0.8940129027310013
321,6007.89,0.9471570499194288
322,6020.48,0.91327919699104
323,6033.07,0.9386213440626513
324,6043.15,1.007496461813393
325,6055.74,0.9898646088850043
326,6068.33,0.9256377559566156
327,6080.93,0.9177549031450429
328,6093.52,0.9477800502166542
329,6106.11,0.8850991972882654
330,6118.71,0.9255403444766929
331,6131.3,0.9189954915483041
332,6143.89,0.9301916386199153
333,6156.49,0.9144807858083427
334,6169.08,0.9357769328799539
335,6181.67,0.936798079951565
336,6194.27,0.9492242271399925
337,6206.86,0.9360683742116037
338,6219.45,0.9069145212832149
339,6232.05,0.9987246684716424
340,6244.64,0.9157838155432536
341,6257.23,0.9427549626148649
342,6269.83,0.9699791098032922
343,6282.42,0.9718132568749034
344,6295.01,1.0059194039465147
345,6307.61,1.0075495511349422
346,6320.2,1.0007696982065533
347,6332.79,1.0289298452781646
348,6345.39,1.008429992466592
349,6355.46,1.0533701101005177
350,6368.05,1.0750202571721288
351,6380.65,1.0861604043605562
352,6393.24,1.1459905514321675
353,6405.83,1.1400706985037787
354,6418.43,1.1634508456922061
355,6431.02,1.2133609927638176
356,6443.61,1.3041711398354285
357,6456.21,1.3890312870238561
358,6468.8,1.484651434095467
359,6481.39,1.6410015811670784
360,6493.99,1.844521728355506
361,6506.58,2.088981875427117
362,6519.17,2.4363420224987284
363,6531.77,2.9625621696871556
364,6544.36,3.586142316758767
365,6556.95,4.012222463830378
366,6569.55,4.142942611018806
367,6582.14,4.018122758090416
368,6594.73,3.5848729051620283
369,6606.93448,2.9186343589682373
370,6607.33,2.8970430477567293
371,6619.92,2.2984930486030755
372,6632.51,1.896223049449422
373,6645.11,1.6116430502964412
374,6657.7,1.4213730511427878
375,6667.78,1.301473051820403
376,6680.37,1.2187830526667498
377,6692.96,1.1566230535130966
378,6705.56,1.1051930543601154
379,6718.15,1.058593055206462
380,6730.74,1.0256430560528087
381,6743.34,0.9988580568998277
382,6755.93,0.9731210577461743
383,6768.52,0.946411058592521
384,6781.12,0.9309750594395398
385,6793.71,0.9216630602858865
386,6806.3,0.9006800611322332
387,6818.9,0.8849390619792521
388,6831.49,0.8732640628255988
389,6844.08,0.8649280636719454
390,6856.68,0.8587470645189643
391,6869.27,0.862678065365311
392,6881.86,0.8612090662116578
393,6894.46,0.8669280670586766
394,6907.05,0.8698540679050234
395,6919.64,0.86597306875137
396,6932.24,0.8284010695983889
397,6944.83,0.8308410704447355
398,6957.42,0.8060960712910823
399,6970.02,0.8078420721381012
400,6980.09,0.806313072815044
401,6992.68,0.8444740736613907
402,7005.28,0.8433330745084098
403,7017.87,0.8641710753547565
404,7030.46,0.8639490762011031
405,7043.06,0.8656970770481219
406,7055.65,0.8589010778944686
407,7068.24,0.8560770787408153
408,7080.84,0.8565610795878343
409,7093.43,0.840812080434181
410,7106.02,0.8302740812805276
411,7118.62,0.8261780821275465
412,7143.52,0.8223090838014172
413,7332.76,0.7807130965228347
414,7527.01,0.753044109581043
415,7585.77575,0.7443487631014338
416,7726.4,0.7235417819208018
417,7931.08,0.6946607547681107
418,8141.18,0.6665807533767665
419,8356.84,0.6394537784121908
420,8578.22,0.6134048306348665
421,8709.6359,0.5990210701101971
422,8805.46,0.5885337596420084
423,9038.72,0.5649199348443649
424,9278.16,0.5426241941706625
425,9523.95,0.5216915399349907
426,9776.24,0.5021549741791924
427,10000.0,0.48650104138084393
428,10035.2,0.4840385004846701
429,10301.1,0.46735912956537107
430,10573.9,0.4521278528192831
431,10854.0,0.4383546757057229
432,11141.6,0.4260506009543486
433,11436.7,0.41522862856516035
434,11481.5362,0.4138490846036763
435,11739.7,0.40590900941635427
436,12050.7,0.39811516366629474
437,12369.9,0.3918505329157512
438,12697.6,0.3868591250305598
439,13034.0,0.3827759452546111
440,13182.5674,0.3812623184425816
441,13379.2,0.3792614541051757
442,13733.7,0.37599018012938046
443,14097.5,0.372648266243924
444,14470.9,0.3689337240646236
445,14854.3,0.364556569079236
446,15135.6125,0.36075705313231243
447,15247.8,0.35924505515682065
448,15651.7,0.35275239463282115
449,16066.3,0.3448904583781784
450,16491.9,0.3358202666995099
451,16928.8,0.3258388399034331
452,17377.2,0.31522619152769316
453,17378.0083,0.31520690076329577
454,17837.6,0.30426584159861964
455,18310.1,0.29316108269243496
456,18795.2,0.2821139302154188
457,19293.0,0.27130239691700886
458,19804.1,0.26087655929383224
459,19952.6231,0.25807052748119547
460,20328.8,0.2510059151890147
461,20867.3,0.2417723521341695
462,21420.1,0.23324822630925138
463,21987.5,0.22545560982397908
464,22570.0,0.21832362286121712
465,22908.6765,0.21461658854393945
466,23167.8,0.2118291112062346
467,23781.6,0.20592523749913486
468,24411.6,0.20049130847425242
469,25058.2,0.19547749560522226
470,25722.0,0.19084005610249694
471,26302.679900000003,0.1871740394271273
472,26403.4,0.1865546836608263
473,27102.9,0.18266529482612465
474,27820.8,0.1790478121321542
475,28557.8,0.17566965048644284
476,29314.3,0.17250504697900637
477,30090.9,0.16953135724486867
478,30199.5172,0.1691487866627084
479,30888.0,0.16678180640623258
480,31706.3,0.16419075529927576
481,32546.2,0.16172932633100862
482,33408.4,0.1593819933670368
483,34293.4,0.1571300948827929
484,34673.685,0.15622205860097713
485,35201.8,0.15494806113954906
486,36134.3,0.15282440607799147
487,37091.5,0.1507648648180205
488,38074.1,0.1487668940260779
489,39082.7,0.1468308851305423
490,39810.7171,0.14550987104178467
491,40118.0,0.14490639784178264
492,41180.8,0.14293000407981818
493,42271.7,0.14100374508948416
494,43391.5,0.13913202328420773
495,44541.0,0.13731024107741613
496,45708.818999999996,0.13555688887790782
497,45720.9,0.1355366431160714
498,46932.1,0.13360260978802627
499,48175.3,0.13171109077099713
500,49451.5,0.12986141463720324
501,50761.5,0.12805384424441996
502,52106.2,0.12628467530764464
503,52480.746,0.12581538114551893
504,53486.5,0.12434430032972708
505,54903.4,0.12235773516940851
506,56357.8,0.12039962784414396
507,57850.8,0.11847110911709503
508,59383.3,0.11657118597630302
509,60255.9586,0.11553227412960256
510,60956.4,0.1146127084756744
511,62571.1,0.11256924054145019
512,64228.7,0.11054662467610676
513,65930.1,0.10854385777619405
514,67000.0,0.10732882800226771
515,67676.7,0.10653325210934833
516,69242.2916,0.10475455425551586
517,69469.5,0.10447302801203726
518,71309.7,0.10226258996666236
519,71559.6261,0.10197146622931608
520,73198.8,0.09990886862362491
521,73954.515,0.09898425549736713
522,75137.9,0.09715231087283374
523,76429.5536,0.09519582347837506
524,77128.3,0.09387799563094681
525,78987.42450000001,0.09043128288896368
526,79171.5,0.09007231200172532
527,81268.8,0.08604678291531132
528,81630.8998,0.08536242973339855
529,83421.6,0.0821230623735894
530,84362.84430000001,0.08044710181523207
531,85631.5,0.07871951237151312
532,87186.21900000001,0.07664481121226376
533,87900.0,0.075849294674207
534,90104.0836,0.07345069333102719
535,90228.5,0.07332601169830669
536,92618.7,0.07099110031020293
537,93119.6005,0.07051402080261471
538,95072.2,0.06910892370645874
539,96236.03790000001,0.06829874022770636
540,97590.7,0.06751755853846263
541,99456.7731,0.06648387513867755
542,100176.0,0.06612921848063968
543,102785.297,0.06489989952592265
544,102830.0,0.06487825674714102
545,105554.0,0.06361711801554976
546,106225.216,0.06332035079970702
547,108350.0,0.062469683020672004
548,109780.26,0.06192826743580461
549,111220.0,0.06138027691647421
550,113454.28,0.060580815683007605
551,114166.0,0.06032298578746435
552,117191.0,0.05929879540039771
553,117251.259,0.059279819762223136
554,120295.0,0.0583271095693266
555,121175.312,0.05807292111132754
556,123482.0,0.05732334078524211
557,125230.691,0.056796945036466887
558,126753.0,0.05629745225279559
559,129421.79100000001,0.05548569137824667
560,130111.0,0.05523932625554621
561,133557.0,0.05408830017030014
562,133753.155,0.05402732353746135
563,137095.0,0.05283490413138214
564,138229.477,0.05245572407867503
565,140727.0,0.051537656141290536
566,142855.609,0.050801823136566504
567,144455.0,0.050170662727766234
568,147636.563,0.04898292395042274
569,148282.0,0.04874405743757476
570,152210.0,0.04737067265484194
571,152577.522,0.04724942816034404
572,156242.0,0.04602491295624596
573,157683.84,0.04557047255178213
574,160381.0,0.04473925689740839
575,162961.05099999998,0.04399116562691499
576,164630.0,0.04349729473911107
577,168414.875,0.04244279081478507
578,168991.0,0.04229410373000234
579,173467.0,0.041213105677021244
580,174051.222,0.04108126560421843
581,178063.0,0.04018730021412737
582,179876.201,0.03981047884975347
583,182780.0,0.03917726357743172
584,185896.125,0.03854209661959805
585,187621.0,0.03822331042156653
586,192117.51799999998,0.03745354530026377
587,192592.0,0.03736682883651168
588,197694.0,0.03649991714306156
589,198547.123,0.03636533989053356
590,202930.0,0.03567912787775959
591,205191.907,0.03535114076484383
592,208306.0,0.034850985204792795
593,212059.073,0.034289286872541194
594,213824.0,0.0340286764659124
595,219156.062,0.03329674174515046
596,219489.0,0.0332512954367453
597,225303.0,0.03251463666108835
598,226490.56699999998,0.032375250498177584
599,231272.0,0.031728727281280435
600,234070.535,0.03137496733659068
601,237398.0,0.030964731859273353
602,241904.18300000002,0.03044705618866142
603,243687.0,0.030235511771101835
604,250000.0,0.029533982550149496
605,250142.0,0.029518070083249227
606,256769.0,0.02881973255251516
607,263571.0,0.028142469947406795
608,270553.0,0.027483061551513442
609,275422.87,0.027044878637559736
610,277720.0,0.026843424419088623
611,285077.0,0.026226837258884715
612,292629.0,0.025619786785341173
613,300381.0,0.025019663682731327
614,308338.0,0.024423958635328518
615,316227.766,0.02385083188109339
616,316506.0,0.02383258676615299
617,324890.0,0.02329875655307284
618,333497.0,0.022764666817388108
619,342331.0,0.022228578374836817
620,351400.0,0.02168861285689504
621,360709.0,0.02114299628323532
622,363078.055,0.021005941578057623
623,370264.0,0.020656566880764796
624,380072.0,0.020185743205820717
625,390141.0,0.01970694754075017
626,400476.0,0.019218952069650345
627,411085.0,0.018720252287076754
628,416869.38300000003,0.018449048629103626
