,lambda (Angstroms),Total Flux (erg/s/cm^2/Angstrom)
0,1313.73,0.024285497235037597
1,1352.45,0.026517178946677683
2,1365.36,0.0661417064491899
3,1379.84,0.014135358907468537
4,1392.44,0.029967861737186127
5,1405.66,0.075964213912493
6,1426.44,0.05558846778563042
7,1440.92,0.014554520243909045
8,1445.43977,0.020994458176691523
9,1454.14,0.03339076113565895
10,1470.99,0.031194486695183342
11,1489.4,0.023890416460812077
12,1505.78,0.03820581062490761
13,1518.37,0.06602035162160863
14,1530.33,0.040474550535075204
15,1544.5,0.024907897073856256
16,1557.88,0.014809790841597295
17,1573.78,0.025545352942276105
18,1586.37,0.046048193938977126
19,1598.97,0.013002235603665995
20,1611.56,0.06149957660036702
21,1624.78,0.03611025968030248
22,1637.38,0.05034930134499135
23,1651.86,0.026237168591395698
24,1659.58691,0.0260733267969413
25,1664.45,0.025972257047387984
26,1677.04,0.033258198688838954
27,1689.64,0.012651345208480115
28,1702.55,0.026319342952017207
29,1717.34,0.017485957795310283
30,1733.08,0.03659633606667155
31,1745.68,0.011466382586312706
32,1758.27,0.029995524227763675
33,1770.86,0.017752965869214644
34,1783.46,0.0319324123888558
35,1796.05,0.057939554030306775
36,1809.9,0.03794511032372186
37,1822.5,0.06346955684336303
38,1835.09,0.074756798484814
39,1847.68,0.07640744012626496
40,1857.76,0.026727357341977887
41,1870.35,0.05897359898342886
42,1882.95,0.05314454550307002
43,1895.54,0.09932098714452099
44,1905.46072,0.132340863882978
45,1908.13,0.1412222482060973
46,1920.73,0.10276232527389353
47,1933.32,0.05575840862973118
48,1945.91,0.09610649198556884
49,1958.51,0.06309636905336506
50,1971.1,0.07953435240920272
51,1983.69,0.06921803576504036
52,1996.29,0.0786923128328366
53,2008.88,0.07599029618867426
54,2021.47,0.10860997954451192
55,2034.07,0.09713135661230814
56,2046.66,0.11606813996814579
57,2059.25,0.11739122332398344
58,2071.84,0.10794130667982109
59,2084.44,0.12564038374761732
60,2097.03,0.11286546710345496
61,2109.62,0.12671555045929261
62,2122.22,0.14109862752708885
63,2134.81,0.1501617108829265
64,2147.4,0.14646679423876416
65,2160.0,0.11041787130656039
66,2170.07,0.1460275392488388
67,2182.67,0.133549616316635
68,2187.7616199999998,0.1426130571614517
69,2195.26,0.1559691739290064
70,2207.85,0.17207348581017345
71,2220.45,0.17045380270474886
72,2233.04,0.1546471145859159
73,2245.63,0.17639042646708297
74,2258.23,0.21302074336165838
75,2270.82,0.22718705524282545
76,2283.41,0.2069973671239925
77,2296.01,0.21382568401856794
78,2308.6,0.22239899589973497
79,2321.19,0.262190307780902
80,2333.79,0.24390562467547747
81,2346.38,0.25611393655664455
82,2358.97,0.2607032484378115
83,2371.57,0.278586565332387
84,2384.16,0.25957287721355404
85,2396.75,0.27100418909472107
86,2409.35,0.2828275059892965
87,2421.94,0.29478281787046356
88,2434.53,0.27002912975163057
89,2447.13,0.26819544664620604
90,2459.72,0.30393075852737306
91,2472.31,0.2569480704085401
92,2482.39,0.3400581239242005
93,2494.98,0.3206684358053675
94,2507.57,0.3362997476865346
95,2511.88643,0.3258177828225073
96,2520.17,0.3056963044106563
97,2532.76,0.30973286154646457
98,2545.35,0.3360954186822728
99,2557.95,0.32374597387776
100,2570.54,0.33159853101356823
101,2583.13,0.32826808814937647
102,2595.73,0.3068126433448637
103,2608.32,0.30034620048067195
104,2620.91,0.34677175761648016
105,2633.51,0.3359433128119673
106,2646.1,0.3562568699477756
107,2658.69,0.32089042708358384
108,2671.29,0.35650598227907104
109,2683.88,0.3343825394148793
110,2696.47,0.36038109655068756
111,2709.07,0.36050665174617474
112,2721.66,0.41528520888198295
113,2734.25,0.4847247660177912
114,2746.85,0.5045723212132783
115,2759.44,0.37967487834908664
116,2772.03,0.5197724354848949
117,2784.63,0.6166549906803821
118,2794.7,0.762595036777093
119,2807.29,0.6822285939129011
120,2819.89,0.5639131491083883
121,2832.48,0.5395167062441966
122,2845.07,0.5623902633800049
123,2857.67,0.505436818575492
124,2870.26,0.5527393757113002
125,2882.85,0.5358149328471085
126,2884.0315,0.5359460751457965
127,2895.45,0.5372156582563331
128,2908.04,0.5174636082625669
129,2920.63,0.6054855582688008
130,2933.23,0.5873335082353254
131,2945.82,0.6938634582415593
132,2958.41,0.610854408247793
133,2971.01,0.6105283582143178
134,2983.6,0.6367203082205516
135,2996.19,0.5070112582267855
136,3008.79,0.4710292081933101
137,3021.38,0.42804115819954397
138,3033.97,0.6148151082057777
139,3046.57,0.5331870581723025
140,3059.16,0.5880840081785362
141,3071.75,0.6369489581847702
142,3084.35,0.5929209081512948
143,3096.94,0.4097748581575286
144,3107.02,0.7200898181307483
145,3119.61,0.7062867681369821
146,3132.2,0.765919718143216
147,3144.8,0.7239056681097407
148,3157.39,0.7134806181159745
149,3169.98,0.8081015681222083
150,3182.58,0.801733518088733
151,3195.17,0.947691468094967
152,3207.76,0.6679154181012007
153,3220.36,0.8256833680677255
154,3232.95,0.25046331807395916
155,3245.54,0.709962268080193
156,3258.14,0.7883732180467177
157,3270.73,0.7021631680529515
158,3283.32,0.7450141180591854
159,3295.92,0.93053006802571
160,3308.51,0.7658270180319439
161,3311.31121,0.7631592938108928
162,3321.1,0.7538362638560603
163,3333.7,0.9054563074087505
164,3346.29,0.863353351720526
165,3358.88,0.9417433960323013
166,3371.48,0.9100914395849915
167,3384.07,0.8980474838967669
168,3396.66,0.7480525282085423
169,3409.26,0.8720255717612326
170,3419.33,0.9890068073624698
171,3431.92,0.8731468516742453
172,3444.52,0.8593778952269355
173,3457.11,0.9587599395387109
174,3469.7,0.9108149838504863
175,3482.3,0.8376880274031765
176,3494.89,0.9867130717149519
177,3507.48,0.8355151160267272
178,3520.08,0.9523991595794175
179,3532.67,0.9611612038911929
180,3545.26,0.9439242482029683
181,3557.86,0.7842142917556586
182,3570.45,1.0094963360674338
183,3583.04,1.0248153803792093
184,3595.64,0.8545074239318995
185,3608.23,0.8733434682436748
186,3620.82,0.9395745125554503
187,3633.42,1.0323915561081407
188,3646.01,1.034390600419916
189,3658.6,1.0702396447316913
190,3671.2,0.8327576882843815
191,3683.79,0.917080732596157
192,3696.38,0.7757667769079323
193,3708.98,0.8159218204606226
194,3721.57,1.207274864772398
195,3731.64,0.8849581003736353
196,3744.24,0.9158441439263255
197,3756.83,0.9295621882381009
198,3769.42,1.0267812325498764
199,3782.02,0.9430552761025665
200,3794.61,0.9938533204143419
201,3801.8939600000003,0.9654939218031567
202,3807.2,0.9448354486487984
203,3819.8,0.9931086914886752
204,3832.39,1.0003609349294729
205,3844.98,1.0277161783702702
206,3857.58,1.0716054212101471
207,3870.17,1.1144846646509445
208,3882.76,1.0600639080917422
209,3895.36,0.9899331509316188
210,3907.95,0.7878813943724163
211,3920.54,1.0601416378132138
212,3933.14,0.9411608806530907
213,3945.73,0.8542841240938882
214,3958.32,1.0009293675346858
215,3970.92,1.0933686103745626
216,3983.51,0.98048185381536
217,3996.1,0.9979730972561575
218,4008.7,0.9901693400960343
219,4021.29,1.0413355835368319
220,4033.88,0.9563358269776293
221,4043.96,0.9739672212495306
222,4056.55,0.9868164646903282
223,4069.15,0.982067707530205
224,4081.74,1.0043319509710027
225,4094.33,1.0892811944118
226,4120.0,1.043039651848279
227,4170.0,1.0349066472446156
228,4220.0,1.009813642640952
229,4270.0,1.0238706380372884
230,4320.0,1.0676076334336249
231,4365.15832,1.1025123011365503
232,4370.0,1.1062550861923302
233,4420.0,1.1017868047670767
234,4470.0,1.0699685233418235
235,4520.0,1.14630024191657
236,4570.0,1.1647819604913163
237,4607.51,1.1448732497660914
238,4620.1,1.1307536825032125
239,4632.7,1.1412441155840487
240,4645.29,1.18260454832117
241,4657.88,1.136394981058291
242,4670.48,1.1368554141391272
243,4683.07,1.1448958468762482
244,4695.66,1.1587462796133696
245,4708.26,1.1710167126942057
246,4720.85,1.137457145431327
247,4730.92,1.1260874915522807
248,4743.52,1.1324879246331168
249,4756.11,1.216038357370238
250,4768.7,1.1833987901073593
251,4781.3,1.2732092231881955
252,4793.89,1.2730796559253166
253,4806.48,1.412710088662438
254,4819.08,1.411730521743274
255,4831.67,1.4837009544803952
256,4844.26,1.5867513872175163
257,4856.86,1.7469918202983525
258,4869.45,1.9339822530354736
259,4882.04,1.6991726857725948
260,4894.64,1.548313118853431
261,4907.23,1.3777335515905522
262,4919.82,1.3496939843276734
263,4932.42,1.2889844174085094
264,4945.01,1.3278948501456307
265,4957.6,1.2954352828827518
266,4970.2,1.204755715963588
267,4982.79,1.202286148700709
268,4995.38,1.4865965814378304
269,5007.98,1.6062670145186664
270,5011.87234,1.4916950847140518
271,5020.57,1.2356775073298072
272,5033.16,1.1986580270250187
273,5043.24,1.1735284431114155
274,5055.83,1.136428962806627
275,5068.42,1.1157594825018387
276,5081.02,1.1122100026098345
277,5093.61,1.0941605223050463
278,5106.2,1.079131042000258
279,5118.8,1.0976215621082537
280,5131.39,1.0804920818034653
281,5143.98,1.115052601498677
282,5156.58,1.1360931216066728
283,5169.17,1.1638636413018844
284,5181.76,1.1355641609970961
285,5194.36,1.249734681105092
286,5206.95,1.1483552008003037
287,5219.54,1.1635857204955151
288,5232.14,1.192226240603511
289,5244.73,1.2113867602987227
290,5257.32,1.0637872799939343
291,5269.92,1.1345378001019302
292,5282.51,1.1472683197971418
293,5295.1,1.1538688394923535
294,5307.7,1.0527593596003493
295,5320.29,1.1429598792955609
296,5332.88,1.1726803989907726
297,5345.48,0.9653809190987684
298,5355.55,1.106371334772381
299,5368.15,1.0699118548803765
300,5380.74,0.7303493745755884
301,5393.33,1.0434628942708002
302,5420.0,1.0102539951660578
303,5470.0,1.014076059086676
304,5520.0,0.9912461230072942
305,5570.0,0.9181481869279124
306,5620.0,0.8573472508485306
307,5670.0,0.8301333147691488
308,5720.0,0.828237378689767
309,5754.399369999999,0.8488130618381464
310,5770.0,0.8581454388070016
311,5820.0,0.9269586955365525
312,5870.0,0.9684929522661034
313,5907.14,1.0211038569648139
314,5919.73,0.8252651806093148
315,5932.33,0.9525685053051616
316,5944.92,0.9730008289496626
317,5957.51,0.9005521525941634
318,5970.11,0.7846294772900102
319,5982.7,0.8906558009345112
320,5995.29,0.8943801245790121
321,6007.89,0.9475254492748589
322,6020.48,0.9136487729193598
323,6033.07,0.9389920965638608
324,6043.15,1.007868156320538
325,6055.74,0.9902374799650391
326,6068.33,0.92601180360954
327,6080.93,0.9181301283053869
328,6093.52,0.9481564519498878
329,6106.11,0.8854767755943886
330,6118.71,0.9259191002902355
331,6131.3,0.9193754239347365
332,6143.89,0.9305727475792374
333,6156.49,0.9148630722750842
334,6169.08,0.9361603959195851
335,6181.67,0.937182719564086
336,6194.27,0.9496100442599329
337,6206.86,0.9364553679044337
338,6219.45,0.9073026915489346
339,6232.05,0.9991140162447816
340,6244.64,0.9161743398892824
341,6257.23,0.9431466635337834
342,6269.83,0.9703719882296301
343,6282.42,0.9722073118741311
344,6295.01,1.006314635518632
345,6307.61,1.007945960214479
346,6320.2,1.0011672838589798
347,6332.79,1.0293286075034807
348,6345.39,1.0088299321993275
349,6355.46,1.053770990904659
350,6368.05,1.07542231454916
351,6380.65,1.0865636392450067
352,6393.24,1.1463949628895076
353,6405.83,1.1404762865340088
354,6418.43,1.1638576112298555
355,6431.02,1.2137689348743566
356,6443.61,1.3045802585188573
357,6456.21,1.3894415832147042
358,6468.8,1.485062906859205
359,6481.39,1.6414142305037058
360,6493.99,1.8449355551995528
361,6506.58,2.089396878844054
362,6519.17,2.4367582024885546
363,6531.77,2.9629795271844013
364,6544.36,3.5865608508289024
365,6556.95,4.012642174473403
366,6569.55,4.143363499169251
367,6582.14,4.018544822813751
368,6594.73,3.5852961464582522
369,6606.93448,2.919058740809362
370,6607.33,2.8974674298105607
371,6619.92,2.29891743742768
372,6632.51,1.8966474450448005
373,6645.11,1.6120674526679708
374,6657.7,1.421797460285091
375,6667.78,1.3018974663836271
376,6680.37,1.2192074740007472
377,6692.96,1.1570474816178675
378,6705.56,1.1056174892410375
379,6718.15,1.0590174968581578
380,6730.74,1.0260675044752778
381,6743.34,0.9992825120984481
382,6755.93,0.9735455197155682
383,6768.52,0.9468355273326883
384,6781.12,0.9313995349558586
385,6793.71,0.9220875425729786
386,6806.3,0.9011045501900987
387,6818.9,0.8853635578132689
388,6831.49,0.8736885654303891
389,6844.08,0.8653525730475091
390,6856.68,0.8591715806706794
391,6869.27,0.8631025882877995
392,6881.86,0.8616335959049197
393,6894.46,0.8673526035280898
394,6907.05,0.8702786111452101
395,6919.64,0.8663976187623302
396,6932.24,0.8288256263855004
397,6944.83,0.8312656340026204
398,6957.42,0.8065206416197406
399,6970.02,0.8082666492429108
400,6980.09,0.8067376553353969
401,6992.68,0.844898662952517
402,7005.28,0.8437576705756873
403,7017.87,0.8645956781928075
404,7030.46,0.8643736858099276
405,7043.06,0.8661216934330978
406,7055.65,0.8593257010502179
407,7068.24,0.856501708667338
408,7080.84,0.8569857162905082
409,7093.43,0.8412367239076284
410,7106.02,0.8306987315247485
411,7118.62,0.8266027391479187
412,7143.52,0.8227337542127552
413,7332.76,0.7811378687055122
414,7527.01,0.7534689862293867
415,7585.77575,0.7447736713533979
416,7726.4,0.7239720372872156
417,7931.08,0.695098792912997
418,8141.18,0.6670267803908976
419,8356.84,0.6399080057097173
420,8578.22,0.6138674757137992
421,8709.6359,0.5994887121641026
422,8805.46,0.5890118367780753
423,9038.72,0.565423413599283
424,9278.16,0.5431537475359629
425,9523.95,0.5222478594149161
426,9776.24,0.5027387676127318
427,10000.0,0.4871092018993278
428,10035.2,0.48465050436203094
429,10301.1,0.4680001660883394
430,10573.9,0.4527986753735479
431,10854.0,0.43905608135150576
432,11141.6,0.4267834085891376
433,11436.7,0.4159936570864434
434,11481.5362,0.41461900862516615
435,11739.7,0.4067330847471886
436,12050.7,0.3990044729966523
437,12369.9,0.392806796241761
438,12697.6,0.38788412527503835
439,13034.0,0.3838715072915001
440,13182.5674,0.3823890433273831
441,13379.2,0.3804490869465816
442,13733.7,0.377287621164424
443,14097.5,0.37405839619531556
444,14470.9,0.3704595165816127
445,14854.3,0.36620112171312397
446,15135.6125,0.36248874375625034
447,15247.8,0.361037496411386
448,15651.7,0.3547635516953902
449,16066.3,0.3471261254036054
450,16491.9,0.33828640029558893
451,16928.8,0.3285415591308982
452,17377.2,0.31817172374923813
453,17378.0083,0.3181528706872117
454,17837.6,0.3076805743875764
455,18310.1,0.29705774423191494
456,18795.2,0.28650537193876924
457,19293.0,0.27620157225307973
458,19804.1,0.26629703364449026
459,19952.6231,0.2636424887144076
460,20328.8,0.25730123670113214
461,20867.3,0.24910316920752565
462,21420.1,0.24164203678326257
463,21987.5,0.2349404884158117
464,22570.0,0.22892860575095417
465,22908.6765,0.2258728212246623
466,23167.8,0.2239740008561114
467,23781.6,0.22017513749221365
468,24411.6,0.21690177626827167
469,25058.2,0.21410546044700043
470,25722.0,0.21174450492247238
471,26302.679900000003,0.21006991411153664
472,26403.4,0.2099281529474368
473,27102.9,0.20935565343512186
474,27820.8,0.20914230918938795
475,28557.8,0.2092588543779854
476,29314.3,0.20968142281105723
477,30090.9,0.21039021520381812
478,30199.5172,0.2105226856951497
479,30888.0,0.2118842576560932
480,31706.3,0.21372479769348196
481,32546.2,0.21581193697907752
482,33408.4,0.218133940303331
483,34293.4,0.22067485394513603
484,34673.685,0.22182629174168692
485,35201.8,0.2233085502559416
486,36134.3,0.22605165470192332
487,37091.5,0.22898778336218467
488,38074.1,0.23211804623470117
489,39082.7,0.23544596617488045
490,39810.7171,0.23792450612695523
491,40118.0,0.2385575805760436
492,41180.8,0.24085803671836364
493,42271.7,0.2433217058053574
494,43391.5,0.24595620955786965
495,44541.0,0.2487601696967452
496,45708.818999999996,0.2517062779586328
497,45720.9,0.2517177880446424
498,46932.1,0.25296748809223635
499,48175.3,0.2543438169389742
500,49451.5,0.255848731734829
501,50761.5,0.2574845981997796
502,52106.2,0.2592500777688017
503,52480.746,0.2597653068901239
504,53486.5,0.25925070296754377
505,54903.4,0.2586116165246766
506,56357.8,0.2580366505972957
507,57850.8,0.25752798205385535
508,59383.3,0.2570854737867272
509,60255.9586,0.2568764644674464
510,60956.4,0.25593757628106956
511,62571.1,0.25384956487305177
512,64228.7,0.25178122208496084
513,65930.1,0.24973151998574644
514,67000.0,0.24848697571215342
515,67676.7,0.24745606898413497
516,69242.2916,0.24513291719406488
517,69469.5,0.24458525210833537
518,71309.7,0.2402193096999613
519,71559.6261,0.2396354369141543
520,73198.8,0.2344270176126242
521,73954.515,0.23205207353437232
522,75137.9,0.2248763978555036
523,76429.5536,0.2170872782629318
524,77128.3,0.21053876067852123
525,78987.42450000001,0.19317497667588857
526,79171.5,0.19129640801552789
527,81268.8,0.16995704623780183
528,81630.8998,0.1662834519579262
529,83421.6,0.14942116136230466
530,84362.84430000001,0.1405845946650492
531,85631.5,0.13345641134361816
532,87186.21900000001,0.12476336139756806
533,87900.0,0.12218525206786293
534,90104.0836,0.11428218431614823
535,90228.5,0.11393250528476026
536,92618.7,0.10727510279182637
537,93119.6005,0.10589218362410299
538,95072.2,0.10459311335812867
539,96236.03790000001,0.10384612668106666
540,97590.7,0.10443322684616356
541,99456.7731,0.10528437801996199
542,100176.0,0.10600616632575716
543,102785.297,0.10868210260383893
544,102830.0,0.10872271072426927
545,105554.0,0.11125486213994774
546,106225.216,0.11189279280938026
547,108350.0,0.11471114718604797
548,109780.26,0.11663946764419265
549,111220.0,0.11855369224826792
550,113454.28,0.12157525287008265
551,114166.0,0.12250927208717921
552,117191.0,0.12655075860357934
553,117251.259,0.1266326929239258
554,120295.0,0.13082318612393945
555,121175.312,0.13205651702623405
556,123482.0,0.134536467067179
557,125230.691,0.1364583654470648
558,126753.0,0.13776027027516033
559,129421.79100000001,0.1401065763460902
560,130111.0,0.1403819362999159
561,133557.0,0.14183950153270122
562,133753.155,0.14192701248836748
563,137095.0,0.14203573718243928
564,138229.477,0.14209826464618103
565,140727.0,0.1414861052716148
566,142855.609,0.1410109944784548
567,144455.0,0.13994956454989613
568,147636.563,0.13790591900298152
569,148282.0,0.1375101169381728
570,152210.0,0.13518165389357747
571,152577.522,0.1349710478224614
572,156242.0,0.13273061660621366
573,157683.84,0.13187644987157185
574,160381.0,0.13044851207667546
575,162961.05099999998,0.12912960796772321
576,164630.0,0.12818685265199967
577,168414.875,0.12611435989211164
578,168991.0,0.1259053335700211
579,173467.0,0.12435555109319117
580,174051.222,0.12416252376085533
581,178063.0,0.12293930192714633
582,179876.201,0.12241366671693536
583,182780.0,0.12130417219688543
584,185896.125,0.1201579004171178
585,187621.0,0.1198185937940987
586,192117.51799999998,0.11899533467449216
587,192592.0,0.11885905952860508
588,197694.0,0.11745925428755405
589,198547.123,0.11723557006873636
590,202930.0,0.1161329508998363
591,205191.907,0.11559006515725523
592,208306.0,0.11440526684313518
593,212059.073,0.1130184440733854
594,213824.0,0.11239808819321159
595,219156.062,0.11057931805706904
596,219489.0,0.11046805893070769
597,225303.0,0.10858212994979517
598,226490.56699999998,0.10820799398126955
599,231272.0,0.1059337455315239
600,234070.535,0.10462729085399783
601,237398.0,0.10316738673346017
602,241904.18300000002,0.1012282088094173
603,243687.0,0.10040040593991655
604,250000.0,0.097516689984653
605,250142.0,0.09745063074924304
606,256769.0,0.09441199297263642
607,263571.0,0.09133262952666114
608,270553.0,0.08820755396362095
609,275422.87,0.08604959468655163
610,277720.0,0.08507881977179758
611,285077.0,0.08199833532996245
612,292629.0,0.07886208106807056
613,300381.0,0.07566577314458194
614,308338.0,0.07240522771795668
615,316227.766,0.06918977759820484
616,316506.0,0.0690940808953769
617,324890.0,0.06622640897765558
618,333497.0,0.06329640135649296
619,342331.0,0.060301205373531355
620,351400.0,0.05723671571205537
621,360709.0,0.05409976654911789
622,363078.055,0.0533032415004778
623,370264.0,0.05148430192688315
624,380072.0,0.04900768885238644
625,390141.0,0.046469727866751506
626,400476.0,0.043868168626853096
627,411085.0,0.041199870583690804
628,416869.38300000003,0.03974572910920539
629,421975.0,0.038867680404934685
630,433153.0,0.036945762304665924
