,lambda (Angstroms),Total Flux (erg/s/cm^2/Angstrom)
0,1005.0,3.037609971102104
1,1015.0,2.997539133235662
2,1025.0,2.9261078953692192
3,1035.0,2.9031090575027765
4,1045.0,2.905726919636334
5,1055.0,2.8712403817698915
6,1065.0,2.816809543903449
7,1075.0,2.792215306037007
8,1085.0,2.736268668170564
9,1095.0,2.720450230304122
10,1096.4782,2.7154230882367045
11,1105.0,2.6921010558783087
12,1115.0,2.6589905603276085
13,1125.0,2.6248426647769083
14,1135.0,2.613111569226208
15,1145.0,2.572981073675508
16,1155.0,2.5508785781248076
17,1165.0,2.525826082574107
18,1175.0,2.471574387023407
19,1185.0,2.458168091472707
20,1195.0,2.383182795922006
21,1205.0,2.3432431003713066
22,1215.0,2.297040904820606
23,1225.0,2.294636209269906
24,1235.0,2.309686613719206
25,1245.0,2.297478118168505
26,1255.0,2.2602176226178057
27,1258.92541,2.2375439459010376
28,1265.0,2.2076885868083753
29,1275.0,2.232014245807151
30,1285.0,2.2217971048059266
31,1295.0,2.1681019638047023
32,1305.0,2.136662822803478
33,1315.0,2.1489426818022532
34,1325.0,2.1245245408010294
35,1335.0,2.080004399799805
36,1345.0,2.091406258798581
37,1355.0,2.063957117797356
38,1365.0,2.024460976796132
39,1375.0,2.0146428357949078
40,1385.0,1.9950916947936834
41,1395.0,1.9657285537924594
42,1405.0,1.9450594127912348
43,1415.0,1.9187272717900106
44,1425.0,1.9034041307887863
45,1435.0,1.8763539897875618
46,1442.0,1.8706376910867049
47,1445.43977,1.8668490799075266
48,1447.0,1.8661382736122936
49,1455.0,1.848452050472203
50,1465.0,1.8218772715470897
51,1475.0,1.8039174926219768
52,1485.0,1.7936967136968633
53,1495.0,1.7827569347717498
54,1505.0,1.7620061558466364
55,1512.0,1.736877710599057
56,1517.0,1.7393058211365005
57,1525.0,1.71771059799641
58,1535.0,1.6883434190712965
59,1545.0,1.689929040146183
60,1555.0,1.66598726122107
61,1565.0,1.6486654822959566
62,1575.0,1.6391627033708434
63,1585.0,1.6313359244457302
64,1595.0,1.6195191455206166
65,1605.0,1.5994063665955032
66,1615.0,1.5848755876703897
67,1625.0,1.5613328087452767
68,1635.0,1.5523080298201632
69,1645.0,1.5392962508950498
70,1655.0,1.5121619719699368
71,1659.58691,1.5103275387204977
72,1665.0,1.5105837491489962
73,1672.0,1.4848374206307173
74,1677.0,1.4967615288319467
75,1685.0,1.4966943819539138
76,1695.0,1.4779421983563723
77,1705.0,1.4611850147588312
78,1715.0,1.44474663116129
79,1725.0,1.4332543475637487
80,1735.0,1.4294204639662074
81,1745.0,1.416651880368666
82,1755.0,1.415051096771125
83,1765.0,1.3909548131735836
84,1775.0,1.3860845295760424
85,1785.0,1.376267545978501
86,1795.0,1.3744273623809597
87,1805.0,1.3614991787834188
88,1815.0,1.3440245951858776
89,1825.0,1.3334096115883363
90,1835.0,1.318247327990795
91,1845.0,1.2992560443932537
92,1855.0,1.2890401607957125
93,1865.0,1.281536577198171
94,1875.0,1.27858039360063
95,1885.0,1.2613444100030886
96,1895.0,1.2486554264055474
97,1905.0,1.240354142808006
98,1905.46072,1.2397915860149002
99,1915.0,1.2308085080097473
100,1925.0,1.2220301729736094
101,1935.0,1.2139695379374718
102,1945.0,1.211253802901334
103,1955.0,1.1989650678651964
104,1967.0,1.197987985821831
105,1976.0,1.192448524289307
106,1984.0,1.1813730362603967
107,1995.0,1.1695146277206452
108,2005.0,1.1629697926845073
109,2015.0,1.1510799576483695
110,2025.0,1.1466892226122316
111,2035.0,1.1362350875760943
112,2045.0,1.1328015525399562
113,2055.0,1.1201938175038184
114,2065.0,1.1121331824676806
115,2074.0,1.1117792209351567
116,2078.0,1.1098314269207015
117,2085.0,1.107978412395405
118,2095.0,1.0945727773592675
119,2105.0,1.0852355423231295
120,2115.0,1.0794886072869918
121,2125.0,1.071587572250854
122,2135.0,1.0550704372147162
123,2145.0,1.0542696021785785
124,2155.0,1.0487619671424406
125,2165.0,1.035515832106303
126,2175.0,1.026816897070165
127,2185.0,1.0211495620340274
128,2187.7616199999998,1.0201131992209775
129,2195.0,1.0191906416156664
130,2205.0,1.0103375055933645
131,2215.0,0.9972560695710626
132,2225.0,0.9914421335487605
133,2235.0,0.9969408975264588
134,2245.0,0.9857740615041567
135,2255.0,0.9733626254818547
136,2265.0,0.9686178894595527
137,2275.0,0.9670084534372507
138,2285.0,0.9687893174149489
139,2295.0,0.9567610813926469
140,2305.0,0.953476145370345
141,2315.0,0.9423014093480431
142,2325.0,0.919758473325741
143,2335.0,0.922847737303439
144,2345.0,0.9113300012811372
145,2355.0,0.9191578652588352
146,2365.0,0.9012899292365333
147,2375.0,0.9012439932142313
148,2385.0,0.8860484571919294
149,2395.0,0.8874545211696274
150,2405.0,0.8796940851473255
151,2415.0,0.8774225491250235
152,2425.0,0.8841337131027214
153,2435.0,0.8765568770804196
154,2445.0,0.8790717410581175
155,2455.0,0.8737686050358155
156,2465.0,0.8648514690135137
157,2475.0,0.8543787329912117
158,2485.0,0.8440814969689098
159,2495.0,0.8394245609466077
160,2505.0,0.8475797249243058
161,2511.88643,0.8280849915111747
162,2513.0,0.8250797390044172
163,2518.0,0.8219998519471033
164,2525.0,0.8170307300668642
165,2535.0,0.8201011559522365
166,2545.0,0.816071381837609
167,2555.0,0.8304621077229815
168,2565.0,0.8169391336083538
169,2575.0,0.8237749594937264
170,2585.0,0.8156048853790988
171,2595.0,0.8082325112644713
172,2605.0,0.7988177371498436
173,2615.0,0.7920277630352162
174,2625.0,0.7980978889205887
175,2635.0,0.8158392148059612
176,2645.0,0.8329591406913335
177,2655.0,0.858214966576706
178,2665.0,0.8135867924620785
179,2675.0,0.8198556183474508
180,2685.0,0.8272424442328233
181,2695.0,0.7979312701181958
182,2705.0,0.8100250960035683
183,2715.0,0.7832665218889405
184,2725.0,0.7676772477743131
185,2735.0,0.7779355736596855
186,2745.0,0.7465821995450579
187,2755.0,0.7539366254304304
188,2765.0,0.7645142513158028
189,2775.0,0.7663158772011753
190,2785.0,0.7384970030865478
191,2795.0,0.7057555289719202
192,2805.0,0.7084908548572927
193,2815.0,0.7440065807426651
194,2825.0,0.7628010066280375
195,2835.0,0.7507218325134101
196,2845.0,0.7253997583987825
197,2855.0,0.7020800842841549
198,2865.0,0.7374603101695274
199,2875.0,0.7600041360548998
200,2884.0315,0.7507512070532738
201,2885.0,0.7498688432422557
202,2895.0,0.7687612205162029
203,2910.0,0.8101427864271236
204,2930.0,0.782509540975018
205,2950.0,0.7643692955229121
206,2970.0,0.7629830500708064
207,2990.0,0.7596018046187007
208,3010.0,0.752551559166595
209,3030.0,0.7583453137144894
210,3050.0,0.7585530682623837
211,3070.0,0.7702498228102779
212,3090.0,0.7591315773581722
213,3110.0,0.7840703319060665
214,3130.0,0.7617030864539608
215,3150.0,0.7589598410018551
216,3170.0,0.7726515955497493
217,3190.0,0.7382373500976436
218,3210.0,0.750572104645538
219,3230.0,0.7159178591934322
220,3250.0,0.7794696137413266
221,3270.0,0.8147803682892207
222,3290.0,0.805496122837115
223,3310.0,0.7789008773850093
224,3311.31121,0.7791027876330465
225,3330.0,0.7834675129961786
226,3350.0,0.7693124685402584
227,3370.0,0.699791424084338
228,3390.0,0.7216163796284176
229,3410.0,0.7238153351724973
230,3430.0,0.733433290716577
231,3450.0,0.7391432462606566
232,3470.0,0.7445332018047364
233,3490.0,0.7748131573488161
234,3510.0,0.7926481128928957
235,3530.0,0.7547990684369753
236,3550.0,0.7949720239810549
237,3570.0,0.6850049795251347
238,3590.0,0.6861669350692143
239,3610.0,0.743093890613294
240,3630.0,0.7574978461573737
241,3640.0,0.7700048239294135
242,3650.0,0.8107538017014534
243,3670.0,0.8329767572455331
244,3690.0,0.7845977127896127
245,3710.0,0.7995606683336924
246,3730.0,0.6739576238777721
247,3750.0,0.7103005794218518
248,3770.0,0.7906805349659314
249,3790.0,0.804766490510011
250,3801.8939600000003,0.7911770200741639
251,3810.0,0.7823696631413928
252,3830.0,0.6309233066843034
253,3850.0,0.7093919502272138
254,3870.0,0.7100785937701243
255,3890.0,0.7495372373130347
256,3910.0,0.8427658808559451
257,3930.0,0.6347575243988557
258,3950.0,0.780478167941766
259,3970.0,0.6505698114846765
260,3990.0,0.9499424550275869
261,4010.0,1.0091840985704974
262,4030.0,0.995831742113408
263,4050.0,0.9681973856563182
264,4070.0,0.9278790291992287
265,4090.0,1.0449616727421394
266,4110.0,0.9911593162850498
267,4130.0,0.9858639598279602
268,4150.0,0.9701976033708706
269,4170.0,0.978542246913781
270,4190.0,0.9623158904566915
271,4210.0,0.966114533999602
272,4230.0,0.9277921775425124
273,4250.0,0.9680478210854229
274,4270.0,0.9278094646283332
275,4290.0,0.8904421081712437
276,4310.0,0.8187727517141542
277,4330.0,1.0149123952570647
278,4350.0,1.0084980387999751
279,4365.15832,1.0615018661794422
280,4370.0,1.0786278734981454
281,4390.0,0.9889419429893205
282,4410.0,1.0260990124804954
283,4430.0,1.0811260819716704
284,4450.0,1.0873321514628456
285,4470.0,1.1406842209540207
286,4490.0,1.1602902904451957
287,4510.0,1.2804153599363708
288,4530.0,1.1484474294275457
289,4550.0,1.1895924989187208
290,4570.0,1.2610555684098959
291,4590.0,1.207267637901071
292,4610.0,1.227671707392246
293,4630.0,1.204198776883421
294,4650.0,1.213434846374596
295,4670.0,1.2561769158657712
296,4690.0,1.2382879853569464
297,4710.0,1.2052430548481214
298,4730.0,1.2336241243392965
299,4750.0,1.2628061938304713
300,4770.0,1.2433222633216465
301,4790.0,1.2461743328128216
302,4810.0,1.2458374023039966
303,4830.0,1.2782094717951717
304,4850.0,1.2188375412863466
305,4870.0,1.1355326107775217
306,4890.0,1.2357126802686969
307,4910.0,1.2353757497598719
308,4930.0,1.2111058192510469
309,4950.0,1.250655888742222
310,4970.0,1.226383958233397
311,4990.0,1.1550470277245721
312,5010.0,1.0996640972157472
313,5011.87234,1.1048604089233023
314,5030.0,1.1556837371431474
315,5050.0,1.1487324218910353
316,5070.0,1.1872561066389236
317,5090.0,1.1308427913868113
318,5110.0,1.1550034761346994
319,5130.0,1.1193331608825874
320,5150.0,1.0804728456304753
321,5170.0,1.0064295303783632
322,5190.0,1.0372142151262511
323,5210.0,1.1114768998741393
324,5230.0,1.1906835846220272
325,5250.0,1.2371832693699152
326,5270.0,1.109768954117803
327,5290.0,1.250404638865691
328,5310.0,1.320044323613579
329,5330.0,1.175078008361467
330,5350.0,1.271841693109355
331,5370.0,1.262495377857243
332,5390.0,1.237192062605131
333,5410.0,1.2198707473530188
334,5430.0,1.2336624321009069
335,5450.0,1.2594201168487948
336,5470.0,1.2381078015966829
337,5490.0,1.2455174863445708
338,5510.0,1.2289941710924588
339,5530.0,1.2715048558403468
340,5550.0,1.2868885405882347
341,5570.0,1.2608022253361226
342,5590.0,1.2291159100840106
343,5610.0,1.2676395948318986
344,5630.0,1.2606832795797867
345,5650.0,1.2792669643276746
346,5670.0,1.2499806490755625
347,5690.0,1.2853043338234504
348,5710.0,1.2432580185713384
349,5730.0,1.3384117033192264
350,5750.0,1.2923753880671145
351,5754.399369999999,1.29435591509558
352,5770.0,1.3016887899932772
353,5790.0,1.2544495320116404
354,5810.0,1.3013502740300038
355,5830.0,1.335471016048367
356,5850.0,1.2946217580667303
357,5870.0,1.2904625000850933
358,5890.0,1.1403102421034568
359,5910.0,1.26698398412182
360,5930.0,1.2787747261401832
361,5950.0,1.2786054681585466
362,5970.0,1.2983862101769097
363,5990.0,1.278266952195273
364,6010.0,1.2629376942136363
365,6030.0,1.2946684362319996
366,6050.0,1.3160391782503629
367,6070.0,1.3118899202687262
368,6090.0,1.2686306622870893
369,6110.0,1.2732514043054526
370,6130.0,1.2068621463238158
371,6150.0,1.237802888342179
372,6170.0,1.1698186303605425
373,6190.0,1.2390543723789056
374,6210.0,1.226915114397269
375,6230.0,1.1900428564156322
376,6250.0,1.1571665984339954
377,6270.0,1.2056573404523587
378,6290.0,1.227028082470722
379,6310.0,1.1981388244890854
380,6330.0,1.2131195665074486
381,6350.0,1.2145503085258116
382,6370.0,1.2079910505441749
383,6390.0,1.2301617925625383
384,6410.0,1.2084525345809016
385,6430.0,1.217853276599265
386,6450.0,1.208904018617628
387,6470.0,1.2047447606359913
388,6490.0,1.1838335026543547
389,6510.0,1.2235462446727179
390,6530.0,1.2225769866910812
391,6550.0,1.1960777287094446
392,6570.0,1.1424574707278077
393,6590.0,1.2021192127461708
394,6606.93448,1.2100790466309275
395,6610.0,1.2115649762095444
396,6630.0,1.1981294461762513
397,6650.0,1.197453916142958
398,6670.0,1.1704493861096648
399,6690.0,1.1825328560763715
400,6710.0,1.1387803260430782
401,6730.0,1.166027796009785
402,6750.0,1.1470042659764919
403,6770.0,1.1519117359431985
404,6790.0,1.1384732059099052
405,6810.0,1.144177675876612
406,6830.0,1.1578641458433188
407,6850.0,1.1292666158100255
408,6870.0,1.146939085776732
409,6890.0,1.162214555743439
410,6910.0,1.1599480257101458
411,6930.0,1.1520924956768526
412,6950.0,1.1530119656435591
413,6970.0,1.167495435610266
414,6990.0,1.1628359055769728
415,7010.0,1.1493903755436796
416,7030.0,1.1718488455103862
417,7050.0,1.175163315477093
418,7070.0,1.1377907854437996
419,7090.0,1.1012162554105065
420,7110.0,1.0742137253772133
421,7130.0,1.05120219534392
422,7150.0,1.0465366653106267
423,7170.0,1.0602211352773334
424,7190.0,1.0372076052440402
425,7210.0,1.0596670752107469
426,7230.0,1.0837235451774536
427,7250.0,1.0918220151441604
428,7270.0,1.0999214851108672
429,7290.0,1.088078955077574
430,7310.0,1.1185144250442807
431,7330.0,1.1218278950109875
432,7350.0,1.1339173649776941
433,7370.0,1.162764834944401
434,7390.0,1.1437353049111076
435,7410.0,1.1438567748778146
436,7430.0,1.1711082448445214
437,7450.0,1.168832714811228
438,7470.0,1.1880971847779347
439,7490.0,1.1866316547446414
440,7510.0,1.1979161247113481
441,7530.0,1.2171905946780548
442,7550.0,1.2252950646447616
443,7570.0,1.2206295346114684
444,7585.77575,1.1980658500903323
445,7590.0,1.192067732669528
446,7610.0,1.1700592362699105
447,7630.0,1.1424707398702927
448,7650.0,1.116470243470675
449,7670.0,1.0625537470710573
450,7690.0,1.0868142506714398
451,7710.0,1.067996754271822
452,7730.0,1.0707212578722045
453,7750.0,1.063869761472587
454,7770.0,1.0769622650729693
455,7790.0,1.0844717686733518
456,7810.0,1.084003272273734
457,7830.0,1.0755567758741165
458,7850.0,1.0623252794744988
459,7870.0,1.0802057830748812
460,7890.0,1.0677702866752636
461,7910.0,1.044964790275646
462,7930.0,1.0492822938760284
463,7950.0,1.0416337974764107
464,7970.0,1.0746713010767932
465,7990.0,1.0750018046771757
466,8010.0,1.087295308277558
467,8030.0,1.0924138118779405
468,8050.0,1.0935403154783228
469,8070.0,1.1090268190787052
470,8090.0,1.1013773226790875
471,8110.0,1.1136738262794699
472,8130.0,1.1467183298798522
473,8150.0,1.1613998334802347
474,8170.0,1.1729013370806172
475,8190.0,1.1341328406809996
476,8210.0,1.122500344281382
477,8230.0,1.128415847881764
478,8250.0,1.1263493514821465
479,8270.0,1.1354588550825289
480,8290.0,1.1230213586829114
481,8310.0,1.0874498622832938
482,8330.0,1.078205365883676
483,8350.0,1.0785338694840585
484,8370.0,1.083650373084441
485,8390.0,1.0472838766848234
486,8410.0,1.0811183802852058
487,8430.0,1.029591883885588
488,8450.0,1.0051913874859704
489,8470.0,1.0055198910863528
490,8490.0,1.0106363946867352
491,8510.0,0.9726718982871176
492,8530.0,1.0081034018875
493,8550.0,0.9342409054878824
494,8570.0,1.0398734090882649
495,8590.0,1.0298329126886472
496,8610.0,1.0413314162890295
497,8630.0,1.060009919889412
498,8650.0,1.0611374234897943
499,8670.0,0.9641379270901766
500,8690.0,1.0386604306905591
501,8709.6359,1.0750118849978954
502,8710.0,1.0756888524569714
503,8730.0,1.0849546508131915
504,8750.0,1.0774664491694117
505,8770.0,1.0955062475256316
506,8790.0,1.1087610458818518
507,8810.0,1.088507844238072
508,8830.0,1.098569642594292
509,8850.0,1.097464440950512
510,8870.0,1.0564702393067322
511,8890.0,1.0689260376629524
512,8910.0,1.0805838360191724
513,8930.0,1.0627246343753924
514,8950.0,1.0656084327316127
515,8970.0,1.0692882310878327
516,8990.0,1.0713740294440528
517,9010.0,1.0431448278002728
518,9030.0,1.080331626156493
519,9050.0,1.111935424512713
520,9070.0,1.1132252228689332
521,9090.0,1.0945630212251531
522,9110.0,1.1078158195813734
523,9130.0,1.1258526179375936
524,9150.0,1.1183744162938134
525,9170.0,1.1180662146500335
526,9190.0,1.1297180130062536
527,9210.0,1.0871298113624739
528,9230.0,1.058101609718694
529,9250.0,1.053805408074914
530,9270.0,1.0598802064311341
531,9290.0,1.0436160047873542
532,9310.0,1.0496898031435742
533,9330.0,1.0517766014997942
534,9350.0,1.0474773998560145
535,9370.0,1.0304161982122344
536,9390.0,1.0492559965684547
537,9410.0,1.0321927949246748
538,9430.0,1.0558185932808948
539,9450.0,1.041947391637115
540,9470.0,1.065573189993335
541,9490.0,1.0676579883495552
542,9510.0,1.0482037867057752
543,9530.0,1.0550755850619953
544,9550.0,1.0388123834182155
545,9570.0,1.0480781817744353
546,9590.0,1.0661169801306556
547,9610.0,1.0514477784868757
548,9630.0,1.0583205768430957
549,9650.0,1.0380683751993158
550,9670.0,1.039355173555536
551,9690.0,1.055001971911756
552,9710.0,1.0379407702679762
553,9730.0,1.0272615686241964
554,9750.0,1.0245603669804162
555,9770.0,1.0298371653366365
556,9790.0,1.0151689636928565
557,9810.0,1.0403887620490766
558,9830.0,1.0297095604052966
559,9850.0,1.0373783587615168
560,9870.0,1.0306891571177368
561,9890.0,1.029583955473957
562,9910.0,1.0173077538301771
563,9930.0,1.0241795521863972
564,9950.0,1.0270633505426172
565,9970.0,1.0275521488988373
566,9990.0,1.0248499472550574
567,10000.0,1.0246958464331675
568,10030.0,1.024412834696778
569,10070.0,1.0128694857149252
570,10130.0,1.0226724622421464
571,10170.0,1.0111271132602935
572,10220.0,1.0146424270329777
573,10280.0,1.0164714035601987
574,10320.0,1.005722054578346
575,10380.0,0.9987740311055671
576,10430.0,1.002292344878251
577,10480.0,0.9874596586509353
578,10520.0,0.9759153096690826
579,10580.0,0.9554032861963037
580,10630.0,0.9461565999689878
581,10680.0,0.938505913741672
582,10720.0,0.9445095647598193
583,10780.0,0.9383605412870403
584,10820.0,0.9252181923051875
585,10870.0,0.9223535060778717
586,10920.0,0.9210828198505558
587,10980.0,0.9085517963777768
588,11020.0,0.9009944473959243
589,11080.0,0.8855084239231451
590,11130.0,0.8825647376958292
591,11170.0,0.8765233887139766
592,11220.0,0.8758917024866608
593,11280.0,0.8650336790138818
594,11330.0,0.8637649927865659
595,11380.0,0.85627330655925
596,11430.0,0.8471866203319343
597,11470.0,0.8570992713500816
598,11481.5362,0.8564382425769702
599,11530.0,0.8538801164473273
600,11570.0,0.8444294124582525
601,11620.0,0.831739532471909
602,11670.0,0.8306946524855655
603,11730.0,0.8325535965019534
604,11770.0,0.8137678925128786
605,11830.0,0.8053368365292665
606,11870.0,0.7914991325401917
607,11920.0,0.8020212525538482
608,11980.0,0.7771551965702361
609,12030.0,0.7907913165838926
610,12070.0,0.7849296125948177
611,12120.0,0.7853227326084744
612,12180.0,0.7862236766248621
613,12230.0,0.7813517966385187
614,12270.0,0.775729092649444
615,12320.0,0.7699802126631005
616,12370.0,0.7678993326767569
617,12430.0,0.7555562766931448
618,12480.0,0.7529183967068014
619,12530.0,0.7460515167204579
620,12580.0,0.7434916367341143
621,12620.0,0.7388279327450396
622,12670.0,0.7325180527586962
623,12720.0,0.7322721727723527
624,12780.0,0.7315781167887405
625,12830.0,0.7103512368023971
626,12880.0,0.7192793568160536
627,12920.0,0.7113446528269789
628,12980.0,0.7172725968433666
629,13020.0,0.7087778928542918
630,13080.0,0.7096008368706798
631,13130.0,0.6939579568843364
632,13180.0,0.6920370768979928
633,13182.5674,0.6920039636004539
634,13230.0,0.6915454321033057
635,13280.0,0.6798930815204276
636,13320.0,0.6786276010541251
637,13380.0,0.6714283803546715
638,13430.0,0.6724600297717935
639,13470.0,0.6668085493054909
640,13520.0,0.661459198722613
641,13570.0,0.652837848139735
642,13630.0,0.6492266274402813
643,13670.0,0.6519511469739788
644,13730.0,0.6532869262745251
645,13770.0,0.6515424458082227
646,13820.0,0.6516180952253446
647,13880.0,0.6454538745258911
648,13930.0,0.6184055239430131
649,13970.0,0.6141890434767105
650,14020.0,0.6085206928938326
651,14080.0,0.612248472194379
652,14120.0,0.6052399917280765
653,14180.0,0.6100857710286227
654,14230.0,0.6045764204457447
655,14280.0,0.5957160698628666
656,14330.0,0.6044077192799886
657,14380.0,0.6085513686971106
658,14420.0,0.5959588882308081
659,14480.0,0.6043146675313545
660,14520.0,0.6000981870650521
661,14570.0,0.6024878364821741
662,14620.0,0.590595485899296
663,14670.0,0.587001135316418
664,14720.0,0.5826887847335399
665,14770.0,0.5857954341506619
