,lambda (Angstroms),Total Flux (erg/s/cm^2/Angstrom)
0,1005.0,0.08998667153170757
1,1015.0,0.08655485440809074
2,1025.0,0.05176263728447392
3,1035.0,0.06540282016085708
4,1045.0,0.10465970303724027
5,1055.0,0.10681218591362343
6,1065.0,0.0890203687900066
7,1075.0,0.10106515166638978
8,1085.0,0.08175753454277296
9,1095.0,0.10257811741915612
10,1096.4782,0.1029669553979431
11,1105.0,0.10520584673267351
12,1115.0,0.10209009841040641
13,1125.0,0.09793695008813931
14,1135.0,0.11620060176587223
15,1145.0,0.10606485344360513
16,1155.0,0.11395710512133803
17,1165.0,0.11889935679907093
18,1175.0,0.09464240847680384
19,1185.0,0.11123086015453673
20,1195.0,0.06624031183226964
21,1205.0,0.05629536351000254
22,1215.0,0.04008791518773545
23,1225.0,0.06767796686546834
24,1235.0,0.11272311854320125
25,1245.0,0.13050937022093415
26,1255.0,0.12324362189866706
27,1258.92541,0.11234411325369585
28,1265.0,0.0954801631537729
29,1275.0,0.1411923008988337
30,1285.0,0.1523616386438945
31,1295.0,0.1200529763889553
32,1305.0,0.1100003141340161
33,1315.0,0.1436666518790769
34,1325.0,0.1406349896241377
35,1335.0,0.1175013273691985
36,1345.0,0.15028966511425929
37,1355.0,0.1442270028593201
38,1365.0,0.1261173406043809
39,1375.0,0.1376856783494417
40,1385.0,0.1395210160945025
41,1395.0,0.1315443538395633
42,1405.0,0.1322616915846241
43,1415.0,0.12731602932968492
44,1425.0,0.1333793670747457
45,1435.0,0.1277157048198065
46,1442.0,0.13696994124134906
47,1445.43977,0.14053778686188179
48,1447.0,0.14215610164509176
49,1455.0,0.13641232841786208
50,1465.0,0.12476561188382498
51,1475.0,0.12173389534978787
52,1485.0,0.1264411788157508
53,1495.0,0.13042946228171368
54,1505.0,0.12460674574767655
55,1512.0,0.10992794417385059
56,1517.0,0.11982008590683203
57,1525.0,0.11016731267960235
58,1535.0,0.09572819614556524
59,1545.0,0.11224187961152815
60,1555.0,0.10322816307749103
61,1565.0,0.10083444654345393
62,1575.0,0.10625973000941683
63,1585.0,0.11336101347537972
64,1595.0,0.11647229694134262
65,1605.0,0.1112875804073055
66,1615.0,0.1116848638732684
67,1625.0,0.1030701473392313
68,1635.0,0.10897343080519419
69,1645.0,0.11088971427115708
70,1655.0,0.09868349773711997
71,1659.58691,0.10369643235390595
72,1665.0,0.10961324832354694
73,1672.0,0.09118699739274529
74,1677.0,0.10833973244217267
75,1685.0,0.11663838852125648
76,1695.0,0.10834345862011126
77,1705.0,0.10204352871896603
78,1715.0,0.0960623988178208
79,1725.0,0.09502736891667558
80,1735.0,0.10165073901553034
81,1745.0,0.09933940911438513
82,1755.0,0.1081958792132399
83,1765.0,0.09455684931209467
84,1775.0,0.10014381941094945
85,1785.0,0.10078408950980422
86,1795.0,0.109401159608659
87,1805.0,0.10693022970751377
88,1815.0,0.09991289980636854
89,1825.0,0.09975516990522332
90,1835.0,0.09505014000407809
91,1845.0,0.08651611010293285
92,1855.0,0.08675748020178763
93,1865.0,0.08971115030064242
94,1875.0,0.09721222039949717
95,1885.0,0.09043349049835195
96,1895.0,0.08820176059720673
97,1905.0,0.0903577306960615
98,1905.46072,0.09027696049525592
99,1915.0,0.08860008062682452
100,1925.0,0.08748081224636876
101,1935.0,0.08707924386591298
102,1945.0,0.09202257548545721
103,1955.0,0.08739290710500144
104,1967.0,0.09560670504845452
105,1976.0,0.09696040350604432
106,1984.0,0.09201216880167971
107,1995.0,0.08857873358317836
108,2005.0,0.0896929652027226
109,2015.0,0.08546219682226681
110,2025.0,0.08873052844181105
111,2035.0,0.08593546006135529
112,2045.0,0.09016099168089951
113,2055.0,0.08521232330044373
114,2065.0,0.08481075491998798
115,2074.0,0.09134995337757777
116,2078.0,0.09246578602539547
117,2085.0,0.09597411815907642
118,2095.0,0.09022754977862066
119,2105.0,0.08854938139816489
120,2115.0,0.0904615130177091
121,2125.0,0.09021954463725335
122,2135.0,0.08136147625679757
123,2145.0,0.0882197078763418
124,2155.0,0.09037113949588603
125,2165.0,0.08478407111543027
126,2175.0,0.08374420273497449
127,2185.0,0.08573593435451872
128,2187.7616199999998,0.0868147147072352
129,2195.0,0.08964573739994104
130,2205.0,0.08597826487971655
131,2215.0,0.07808249235949205
132,2225.0,0.07745421983926756
133,2235.0,0.08813864731904307
134,2245.0,0.08215747479881859
135,2255.0,0.07493170227859408
136,2265.0,0.0753726297583696
137,2275.0,0.0789488572381451
138,2285.0,0.08591538471792062
139,2295.0,0.07907281219769612
140,2305.0,0.08097353967747163
141,2315.0,0.07498446715724714
142,2325.0,0.057627194637022656
143,2335.0,0.06590212211679816
144,2345.0,0.05957004959657367
145,2355.0,0.07258357707634919
146,2365.0,0.05990130455612469
147,2375.0,0.0650410320359002
148,2385.0,0.05503115951567571
149,2395.0,0.061622886995451216
150,2405.0,0.059048114475226725
151,2415.0,0.06196224195500223
152,2425.0,0.07385906943477774
153,2435.0,0.07146789691455326
154,2445.0,0.07916842439432875
155,2455.0,0.07905095187410427
156,2465.0,0.07531947935387978
157,2475.0,0.07003240683365529
158,2485.0,0.06492083431343079
159,2495.0,0.06544956179320631
160,2505.0,0.0787903892729818
161,2511.88643,0.06286672673091181
162,2513.0,0.06029146265672027
163,2518.0,0.059142250961377416
164,2525.0,0.05687607458789742
165,2535.0,0.0638078511972117
166,2545.0,0.06363942780652598
167,2555.0,0.08189150441584027
168,2565.0,0.07222988102515455
169,2575.0,0.08292705763446884
170,2585.0,0.07861833424378312
171,2595.0,0.07510731085309742
172,2605.0,0.0695538874624117
173,2615.0,0.06662526407172599
174,2625.0,0.07655674068104026
175,2635.0,0.09815941729035454
176,2645.0,0.11914069389966883
177,2655.0,0.14825787050898312
178,2665.0,0.10749104711829742
179,2675.0,0.11762122372761169
180,2685.0,0.12886940033692595
181,2695.0,0.10341957694624027
182,2705.0,0.11937475355555455
183,2715.0,0.09647753016486883
184,2725.0,0.08474960677418313
185,2735.0,0.0988692833834974
186,2745.0,0.07137725999281169
187,2755.0,0.08259303660212597
188,2765.0,0.09703201321144025
189,2775.0,0.10269498982075455
190,2785.0,0.07873746643006882
191,2795.0,0.04985734303938311
192,2805.0,0.0564540196486974
193,2815.0,0.09583109625801169
194,2825.0,0.11848687286732597
195,2835.0,0.11026904947664025
196,2845.0,0.08880832608595454
197,2855.0,0.06935000269526884
198,2865.0,0.10859157930458312
199,2875.0,0.1349967559138974
200,2884.0315,0.12923120581859956
201,2885.0,0.12861301063659225
202,2895.0,0.15023299378571633
203,2910.0,0.19570596850940244
204,2930.0,0.17352793480765055
205,2950.0,0.1608429011058987
206,2970.0,0.16491186740414682
207,2990.0,0.16698583370239492
208,3010.0,0.16539080000064307
209,3030.0,0.17663976629889122
210,3050.0,0.1823027325971393
211,3070.0,0.19945469889538744
212,3090.0,0.1937916651936356
213,3110.0,0.22418563149188372
214,3130.0,0.20727359779013185
215,3150.0,0.20998556408837998
216,3170.0,0.22913253038662812
217,3190.0,0.20017349668487625
218,3210.0,0.21796346298312438
219,3230.0,0.18876442928137252
220,3250.0,0.25777139557962064
221,3270.0,0.2985373618778688
222,3290.0,0.2947083281761169
223,3310.0,0.273568294474365
224,3311.31121,0.2741278511323612
225,3330.0,0.2821026902543901
226,3350.0,0.27181104600671946
227,3370.0,0.20615340175904887
228,3390.0,0.23184175751137823
229,3410.0,0.23790411326370764
230,3430.0,0.25138546901603703
231,3450.0,0.2609588247683664
232,3470.0,0.27021218052069573
233,3490.0,0.30435553627302514
234,3510.0,0.32605389202535456
235,3530.0,0.2920682477776839
236,3550.0,0.3361046035300133
237,3570.0,0.23000095928234268
238,3590.0,0.23502631503467203
239,3610.0,0.2958166707870014
240,3630.0,0.31408402653933076
241,3640.0,0.3285227044154955
242,3650.0,0.37120338229166017
243,3670.0,0.3972897380439896
244,3690.0,0.3527740937963189
245,3710.0,0.37160044954864835
246,3730.0,0.2498608053009777
247,3750.0,0.29006716105330704
248,3770.0,0.3743105168056365
249,3790.0,0.39225987255796585
250,3801.8939600000003,0.38096795849916426
251,3810.0,0.37327228271668766
252,3830.0,0.22456877270569106
253,3850.0,0.30578026269469444
254,3870.0,0.3092097526836978
255,3890.0,0.3514112426727012
256,3910.0,0.4473827326617046
257,3930.0,0.24211722265070798
258,3950.0,0.39058071263971134
259,3970.0,0.26341520262871476
260,3990.0,0.565530692617718
261,4010.0,0.6275151826067216
262,4030.0,0.6169056725957249
263,4050.0,0.5920141625847282
264,4070.0,0.5544386525737317
265,4090.0,0.674264142562735
266,4110.0,0.6232046325517384
267,4130.0,0.6206521225407418
268,4150.0,0.6077286125297452
269,4170.0,0.6188161025187485
270,4190.0,0.605332592507752
271,4210.0,0.6118740824967553
272,4230.0,0.5762945724857587
273,4250.0,0.6192930624747621
274,4270.0,0.5817975524637654
275,4290.0,0.5471730424527689
276,4310.0,0.47824653244177223
277,4330.0,0.6771290224307756
278,4350.0,0.673457512419779
279,4365.15832,0.7285401870062828
280,4370.0,0.7461341964941458
281,4390.0,0.6583814882104976
282,4410.0,0.6974717799268493
283,4430.0,0.754432071643201
284,4450.0,0.7625713633595529
285,4470.0,0.8178566550759047
286,4490.0,0.8393959467922564
287,4510.0,0.9614542385086082
288,4530.0,0.83141953022496
289,4550.0,0.8744978219413118
290,4570.0,0.9478941136576634
291,4590.0,0.8960394053740153
292,4610.0,0.9183766970903671
293,4630.0,0.8968369888067188
294,4650.0,0.9080062805230706
295,4670.0,0.9526815722394224
296,4690.0,0.9367258639557742
297,4710.0,0.9056141556721259
298,4730.0,0.9359284473884777
299,4750.0,0.9670437391048294
300,4770.0,0.9494930308211812
301,4790.0,0.9542783225375331
302,4810.0,0.9558746142538848
303,4830.0,0.9901799059702365
304,4850.0,0.9327411976865883
305,4870.0,0.8513694894029401
306,4890.0,0.9534827811192919
307,4910.0,0.9550790728356436
308,4930.0,0.9327423645519953
309,4950.0,0.9742256562683472
310,4970.0,0.951886947984699
311,4990.0,0.8824832397010507
312,5010.0,0.8290335314174025
313,5011.87234,0.8344108255900119
314,5030.0,0.8864728762660239
315,5050.0,0.8808882266024839
316,5070.0,0.920778576938944
317,5090.0,0.8657319272754042
318,5110.0,0.8912592776118642
319,5130.0,0.8569556279483243
320,5150.0,0.8194619782847844
321,5170.0,0.7467853286212445
322,5190.0,0.7789366789577045
323,5210.0,0.8545660292941646
324,5230.0,0.9351393796306247
325,5250.0,0.9830057299670848
326,5270.0,0.8569580803035448
327,5290.0,0.998960430640005
328,5310.0,1.0699667809764648
329,5330.0,0.926367131312925
330,5350.0,1.0244974816493853
331,5370.0,1.0165178319858452
332,5390.0,0.9925811823223053
333,5410.0,0.9766265326587653
334,5430.0,0.9917848829952255
335,5450.0,1.0189092333316856
336,5470.0,0.9989635836681456
337,5490.0,1.0077399340046056
338,5510.0,0.9925832843410658
339,5530.0,1.0364606346775258
340,5550.0,1.053210985013986
341,5570.0,1.028491335350446
342,5590.0,0.998171685686906
343,5610.0,1.038062036023366
344,5630.0,1.0324723863598262
345,5650.0,1.0524227366962862
346,5670.0,1.0245030870327463
347,5690.0,1.0611934373692065
348,5710.0,1.0205137877056667
349,5730.0,1.1170341380421267
350,5750.0,1.0723644883785868
351,5754.399369999999,1.074645638786572
352,5770.0,1.082735261459014
353,5790.0,1.0364661537530326
354,5810.0,1.0843370460470512
355,5830.0,1.1194279383410697
356,5850.0,1.0795488306350884
357,5870.0,1.0763597229291069
358,5890.0,0.9271776152231256
359,5910.0,1.054821507517144
360,5930.0,1.0675823998111627
361,5950.0,1.0683832921051815
362,5970.0,1.0891341843991997
363,5990.0,1.0699850766932184
364,6010.0,1.055625968987237
365,6030.0,1.0883268612812556
366,6050.0,1.110667753575274
367,6070.0,1.1074886458692927
368,6090.0,1.0651995381633115
369,6110.0,1.07079043045733
370,6130.0,1.0053713227513486
371,6150.0,1.0372822150453669
372,6170.0,0.9702681073393856
373,6190.0,1.040473999633404
374,6210.0,1.0293048919274228
375,6230.0,0.9934027842214413
376,6250.0,0.9614966765154599
377,6270.0,1.0109575688094785
378,6290.0,1.033298461103497
379,6310.0,1.0053793533975157
380,6330.0,1.021330245691534
381,6350.0,1.0237311379855527
382,6370.0,1.0181420302795714
383,6390.0,1.04128292257359
384,6410.0,1.0205438148676087
385,6430.0,1.0309147071616271
386,6450.0,1.0229355994556457
387,6470.0,1.0197464917496641
388,6490.0,0.9998053840436829
389,6510.0,1.0404882763377015
390,6530.0,1.04048916863172
391,6550.0,1.0149600609257388
392,6570.0,0.9623099532197572
393,6590.0,1.0229418455137758
394,6606.93448,1.0317231289205362
395,6610.0,1.0333126018275849
396,6630.0,1.020552606962431
397,6650.0,1.0205526120972772
398,6670.0,0.9942236172321232
399,6690.0,1.0069826223669691
400,6710.0,0.9639056275018152
401,6730.0,0.9918286326366612
402,6750.0,0.9734806377715072
403,6770.0,0.9790636429063533
404,6790.0,0.9663006480411993
405,6810.0,0.9726806531760454
406,6830.0,0.9870426583108914
407,6850.0,0.9591206634457374
408,6870.0,0.9774686685805835
409,6890.0,0.9934196737154295
410,6910.0,0.9918286788502755
411,6930.0,0.9846486839851216
412,6950.0,0.9862436891199675
413,6970.0,1.0014026942548138
414,6990.0,0.9974186993896597
415,7010.0,0.9846487045245057
416,7030.0,1.0077827096593517
417,7050.0,1.0117727147941977
418,7070.0,0.9750757199290437
419,7090.0,0.9391767250638898
420,7110.0,0.9128497301987358
421,7130.0,0.8905137353335818
422,7150.0,0.886523740468428
423,7170.0,0.9008837456032739
424,7190.0,0.8785457507381199
425,7210.0,0.901680755872966
426,7230.0,0.926412761007812
427,7250.0,0.9351867661426582
428,7270.0,0.9439617712775041
429,7290.0,0.9327947764123501
430,7310.0,0.9639057815471962
431,7330.0,0.9678947866820422
432,7350.0,0.9806597918168882
433,7370.0,1.0101827969517343
434,7390.0,0.9918288020865803
435,7410.0,0.9926258072214263
436,7430.0,1.0205528123562724
437,7450.0,1.0189528174911184
438,7470.0,1.0388928226259644
439,7490.0,1.0381028277608104
440,7510.0,1.0500628328956565
441,7530.0,1.0700128380305025
442,7550.0,1.0787928431653486
443,7570.0,1.0748028483001946
444,7585.77575,1.052772017475497
445,7590.0,1.0468729290325536
446,7610.0,1.0253332920889857
447,7630.0,0.9982136551454176
448,7650.0,0.9726820182018495
449,7670.0,0.9192343812582816
450,7690.0,0.9439637443147136
451,7710.0,0.9256151073711455
452,7730.0,0.9288084704275775
453,7750.0,0.9224258334840096
454,7770.0,0.9359871965404415
455,7790.0,0.9439655595968736
456,7810.0,0.9439659226533056
457,7830.0,0.9359882857097376
458,7850.0,0.9232256487661695
459,7870.0,0.9415750118226015
460,7890.0,0.9296083748790336
461,7910.0,0.9072717379354654
462,7930.0,0.9120581009918975
463,7950.0,0.9048784640483295
464,7970.0,0.9383848271047615
465,7990.0,0.9391841901611935
466,8010.0,0.9519465532176256
467,8030.0,0.9575339162740575
468,8050.0,0.9591292793304895
469,8070.0,0.9750846423869215
470,8090.0,0.9679040054433535
471,8110.0,0.9806693684997855
472,8130.0,1.0141827315562175
473,8150.0,1.0293330946126495
474,8170.0,1.0413034576690816
475,8190.0,1.0030038207255134
476,8210.0,0.9918401837819455
477,8230.0,0.9982245468383774
478,8250.0,0.9966269098948094
479,8270.0,1.0062052729512414
480,8290.0,0.9942366360076734
481,8310.0,0.9591339990641055
482,8330.0,0.9503583621205375
483,8350.0,0.9511557251769693
484,8370.0,0.9567410882334014
485,8390.0,0.9208434512898335
486,8410.0,0.9551468143462655
487,8430.0,0.9040891774026973
488,8450.0,0.8801575404591294
489,8470.0,0.8809549035155614
490,8490.0,0.8865402665719934
491,8510.0,0.8490446296284254
492,8530.0,0.8849449926848574
493,8550.0,0.8115513557412893
494,8570.0,0.9176527187977214
495,8590.0,0.9080810818541534
496,8610.0,0.9200484449105852
497,8630.0,0.9391958079670173
498,8650.0,0.9407921710234494
499,8670.0,0.8442615340798814
500,8690.0,0.9192528971363133
501,8709.6359,0.9560646753133017
502,8710.0,0.9567472725122599
503,8730.0,0.9663223122791851
504,8750.0,0.9591433520461102
505,8770.0,0.9774923918130354
506,8790.0,0.9910564315799606
507,8810.0,0.9711124713468858
508,8830.0,0.9814835111138109
509,8850.0,0.9806875508807362
510,8870.0,0.9400025906476615
511,8890.0,0.9527676304145867
512,8910.0,0.9647346701815118
513,8930.0,0.947184709948437
514,8950.0,0.9503777497153623
515,8970.0,0.9543667894822875
516,8990.0,0.9567618292492126
517,9010.0,0.9288418690161377
518,9030.0,0.966337908783063
519,9050.0,0.9982509485499881
520,9070.0,0.9998499883169134
521,9090.0,0.9814970280838385
522,9110.0,0.9950590678507638
523,9130.0,1.013405107617689
524,9150.0,1.0062361473846142
525,9170.0,1.0062371871515392
526,9190.0,1.0181982269184644
527,9210.0,0.9759192666853898
528,9230.0,0.9472003064523149
529,9250.0,0.9432133462192401
530,9270.0,0.9495973859861654
531,9290.0,0.9336424257530905
532,9310.0,0.9400254655200158
533,9330.0,0.9424215052869409
534,9350.0,0.9384315450538661
535,9370.0,0.9216795848207913
536,9390.0,0.9408286245877165
537,9410.0,0.9240746643546418
538,9430.0,0.9480097041215668
539,9450.0,0.934447743888492
540,9470.0,0.9583827836554173
541,9490.0,0.9607768234223425
542,9510.0,0.9416318631892676
543,9530.0,0.9488129029561929
544,9550.0,0.9328589427231181
545,9570.0,0.9424339824900433
546,9590.0,0.9607820222569684
547,9610.0,0.9464220620238937
548,9630.0,0.9536041017908189
549,9650.0,0.933661141557744
550,9670.0,0.9352571813246693
551,9690.0,0.9512132210915945
552,9710.0,0.9344612608585197
553,9730.0,0.9240913006254449
554,9750.0,0.92169934039237
555,9770.0,0.9272853801592953
556,9790.0,0.9129264199262205
557,9810.0,0.9384554596931456
558,9830.0,0.9280854994600708
559,9850.0,0.936063539226996
560,9870.0,0.9296835789939213
561,9890.0,0.9288876187608464
562,9910.0,0.9169206585277716
563,9930.0,0.9241016982946969
564,9950.0,0.927294738061622
565,9970.0,0.9280927778285472
566,9990.0,0.9256998175954724
567,10000.0,0.925700337478935
568,10030.0,0.9257019012544511
569,10070.0,0.9145379862884726
570,10130.0,0.9249101138395048
571,10170.0,0.9137441988735263
572,10220.0,0.9177338051660533
573,10280.0,0.9201319327170854
574,10320.0,0.909762017751107
575,10380.0,0.9033831453021393
576,10430.0,0.907375751594666
577,10480.0,0.8930173578871929
578,10520.0,0.8818524429212143
579,10580.0,0.8619095704722467
580,10630.0,0.8531371767647735
581,10680.0,0.8459607830573004
582,10720.0,0.8523438680913219
583,10780.0,0.8467639956423542
584,10820.0,0.8340010806763756
585,10870.0,0.8316106869689025
586,10920.0,0.8308142932614293
587,10980.0,0.8188524208124616
588,11020.0,0.8116745058464832
589,11080.0,0.7967576333975153
590,11130.0,0.7942882396900421
591,11170.0,0.7886263247240636
592,11220.0,0.7884689310165905
593,11280.0,0.7781800585676228
594,11330.0,0.7773856648601496
595,11380.0,0.7703682711526765
596,11430.0,0.7617558774452035
597,11470.0,0.7720479624792248
598,11481.5362,0.7714963643734617
599,11530.0,0.7691814168768039
600,11570.0,0.7599314223929557
601,11620.0,0.7474924292881456
602,11670.0,0.7466984361833355
603,11730.0,0.7488584444575633
604,11770.0,0.7302734499737152
605,11830.0,0.7221434582479431
606,11870.0,0.708506463764095
607,11920.0,0.7192794706592849
608,11980.0,0.6947144789335128
609,12030.0,0.7086014858287026
610,12070.0,0.7029404913448545
611,12120.0,0.7035844982400444
612,12180.0,0.7047865065142723
613,12230.0,0.7001655134094621
614,12270.0,0.6947435189256141
615,12320.0,0.6892455258208039
616,12370.0,0.6874155327159938
617,12430.0,0.6753735409902217
618,12480.0,0.6729865478854115
619,12530.0,0.6663705547806014
620,12580.0,0.6640615616757912
621,12620.0,0.6595985671919431
622,12670.0,0.653539574087133
623,12720.0,0.6535445809823229
624,12780.0,0.6531515892565507
625,12830.0,0.6321755961517407
626,12880.0,0.6413546030469306
627,12920.0,0.6336206085630824
628,12980.0,0.6398496168373102
629,13020.0,0.6315556223534622
630,13080.0,0.6326796306276901
631,13130.0,0.61728763752288
632,13180.0,0.6156176444180698
633,13182.5674,0.6155974136601239
634,13230.0,0.615225915747216
635,13280.0,0.6036653096441265
636,13320.0,0.6024732247616549
637,13380.0,0.5953840974379476
638,13430.0,0.5965074913348581
639,13470.0,0.5909294064523866
640,13520.0,0.5856718003492971
641,13570.0,0.5771421942462076
642,13630.0,0.5736410669225003
643,13670.0,0.5764389820400286
644,13730.0,0.5778848547163212
645,13770.0,0.5762137698338498
646,13820.0,0.5763811637307602
647,13880.0,0.5703270364070528
648,13930.0,0.5433704303039635
649,13970.0,0.5392273454214918
650,14020.0,0.5336507393184023
651,14080.0,0.537488611994695
652,14120.0,0.5305535271122235
653,14180.0,0.535509399788516
654,14230.0,0.5300917936854266
655,14280.0,0.5213231875823371
656,14330.0,0.5301065814792476
