,lambda (Angstroms),Total Flux (erg/s/cm^2/Angstrom)
0,1005.0,0.08990741435447172
1,1015.0,0.08647610293872715
2,1025.0,0.05168439152298261
3,1035.0,0.06532508010723806
4,1045.0,0.10458246869149351
5,1055.0,0.10673545727574896
6,1065.0,0.0889441458600044
7,1075.0,0.10098943444425985
8,1085.0,0.0816823230285153
9,1095.0,0.10250341161277075
10,1096.4782,0.1028923243452954
11,1105.0,0.105132564488449
12,1115.0,0.10201839894027094
13,1125.0,0.09786683339209287
14,1135.0,0.11613206784391482
15,1145.0,0.10599790229573675
16,1155.0,0.11389173674755869
17,1165.0,0.11883557119938061
18,1175.0,0.09458020565120256
19,1185.0,0.11117024010302448
20,1195.0,0.06618127455484643
21,1205.0,0.05623790900666836
22,1215.0,0.0400320434584903
23,1225.0,0.06762367791031222
24,1235.0,0.11267041236213417
25,1245.0,0.1304582468139561
26,1255.0,0.12319408126577804
27,1258.92541,0.11229519392453051
28,1265.0,0.0954311754358486
29,1275.0,0.14114320059922247
30,1285.0,0.15231242576259632
31,1295.0,0.12000365092597019
32,1305.0,0.10995087608934408
33,1315.0,0.14361710125271795
34,1325.0,0.1405853264160918
35,1335.0,0.11745155157946567
36,1345.0,0.15023977674283953
37,1355.0,0.1441770019062134
38,1365.0,0.12606722706958726
39,1375.0,0.13763545223296111
40,1385.0,0.139470677396335
41,1395.0,0.1314939025597089
42,1405.0,0.13221112772308274
43,1415.0,0.1272653528864566
44,1425.0,0.13332857804983048
45,1435.0,0.12766480321320434
46,1442.0,0.13691896082756605
47,1445.43977,0.14048676772258784
48,1447.0,0.14210506776339452
49,1455.0,0.1363612189452414
50,1465.0,0.12471440792255
51,1475.0,0.12168259689985858
52,1485.0,0.1263897858771672
53,1495.0,0.13037797485447578
54,1505.0,0.12455516383178437
55,1512.0,0.10987629611590038
56,1517.0,0.11976839060455469
57,1525.0,0.11011554178640157
58,1535.0,0.09567633076371015
59,1545.0,0.11218991974101876
60,1555.0,0.10317610871832736
61,1565.0,0.10078229769563596
62,1575.0,0.10620748667294455
63,1585.0,0.11330867565025314
64,1595.0,0.11641986462756174
65,1605.0,0.11123505360487035
66,1615.0,0.11163224258217894
67,1625.0,0.10301743155948753
68,1635.0,0.10892062053679612
69,1645.0,0.11083680951410471
70,1655.0,0.09863049849141332
71,1659.58691,0.10364338976710395
72,1665.0,0.10955983221569796
73,1672.0,0.09113309826183019
74,1677.0,0.10828548829478178
75,1685.0,0.11658359234750432
76,1695.0,0.1082879724134075
77,1705.0,0.10198735247931068
78,1715.0,0.09600553254521386
79,1725.0,0.09496981261111706
80,1735.0,0.10159249267702024
81,1745.0,0.09928047274292343
82,1755.0,0.1081362528088266
83,1765.0,0.09449653287472978
84,1775.0,0.10008281294063297
85,1785.0,0.10072239300653614
86,1795.0,0.10933877307243933
87,1805.0,0.10686715313834251
88,1815.0,0.09984913320424568
89,1825.0,0.09969071327014888
90,1835.0,0.09498499333605206
91,1845.0,0.08645027340195524
92,1855.0,0.08669095346785842
93,1865.0,0.08964393353376161
94,1875.0,0.09714431359966479
95,1885.0,0.09036489366556796
96,1895.0,0.08813247373147115
97,1905.0,0.09028775379737433
98,1905.46072,0.09020695180537061
99,1915.0,0.08853092041788302
100,1925.0,0.08741254149757918
101,1935.0,0.08701186257727532
102,1945.0,0.09195608365697149
103,1955.0,0.08732730473666762
104,1967.0,0.09554217003230302
105,1976.0,0.09689666900402955
106,1984.0,0.09194914586778648
107,1995.0,0.08851668905545224
108,2005.0,0.0896318101351484
109,2015.0,0.08540193121484455
110,2025.0,0.0886711522945407
111,2035.0,0.08587697337423686
112,2045.0,0.090103394453933
113,2055.0,0.08515561553362916
114,2065.0,0.08475493661332531
115,2074.0,0.09129493558505185
116,2078.0,0.09241112401693032
117,2085.0,0.0959200787727176
118,2095.0,0.09017439985241377
119,2105.0,0.08849712093210993
120,2115.0,0.09041014201180607
121,2125.0,0.09016906309150223
122,2135.0,0.08131188417119838
123,2145.0,0.08817100525089454
124,2155.0,0.09032332633059068
125,2165.0,0.08473714741028684
126,2175.0,0.083698168489983
127,2185.0,0.08569078956967914
128,2187.7616199999998,0.08676981555749011
129,2195.0,0.08960032493329403
130,2205.0,0.08593214325314436
131,2215.0,0.0780356615729947
132,2225.0,0.07740667989284504
133,2235.0,0.08809039821269538
134,2245.0,0.08210851653254572
135,2255.0,0.07488203485239606
136,2265.0,0.0753222531722464
137,2275.0,0.07889777149209673
138,2285.0,0.08586358981194708
139,2295.0,0.07902030813179742
140,2305.0,0.08092032645164775
141,2315.0,0.0749305447714981
142,2325.0,0.057572563091348436
143,2335.0,0.06584678141119878
144,2345.0,0.059513999731049115
145,2355.0,0.07252681805089946
146,2365.0,0.059843836370749796
147,2375.0,0.06498285469060013
148,2385.0,0.054972273010450476
149,2395.0,0.061563291330300814
150,2405.0,0.05898780965015115
151,2415.0,0.06190122797000149
152,2425.0,0.07379734628985182
153,2435.0,0.07140546460970217
154,2445.0,0.0791052829295525
155,2455.0,0.07898710124940285
156,2465.0,0.07525491956925319
157,2475.0,0.06996713788910353
158,2485.0,0.06485485620895387
159,2495.0,0.0653828745288042
160,2505.0,0.07872299284865454
161,2511.88643,0.0627988419485662
162,2513.0,0.06022360843781351
163,2518.0,0.05907453397425161
164,2525.0,0.056808549725264945
165,2535.0,0.06374060079814113
166,2545.0,0.06357245187101732
167,2555.0,0.08182480294389351
168,2565.0,0.0721634540167697
169,2575.0,0.08286090508964589
170,2585.0,0.07855245616252209
171,2595.0,0.07504170723539828
172,2605.0,0.06948855830827447
173,2615.0,0.06656020938115066
174,2625.0,0.07649196045402684
175,2635.0,0.09809491152690303
176,2645.0,0.11907646259977922
177,2655.0,0.14819391367265541
178,2665.0,0.1074273647455316
179,2675.0,0.1175578158184078
180,2685.0,0.12880626689128397
181,2695.0,0.10335671796416018
182,2705.0,0.11931216903703637
183,2715.0,0.09641522010991256
184,2725.0,0.08468757118278875
185,2735.0,0.09880752225566493
186,2745.0,0.07131577332854112
187,2755.0,0.0825318244014173
188,2765.0,0.0969710754742935
189,2775.0,0.10263432654716971
190,2785.0,0.07867707762004589
191,2795.0,0.04979722869292207
192,2805.0,0.05639417976579827
193,2815.0,0.09577153083867446
194,2825.0,0.11842758191155064
195,2835.0,0.11021003298442683
196,2845.0,0.08874958405730303
197,2855.0,0.06929153513017922
198,2865.0,0.1085333862030554
199,2875.0,0.1349388372759316
200,2884.0315,0.1291735350623997
201,2885.0,0.12855534042439484
202,2895.0,0.15017532919047755
203,2910.0,0.19564831233960162
204,2930.0,0.17347028987176705
205,2950.0,0.16078526740393245
206,2970.0,0.16485424493609788
207,2990.0,0.16692822246826328
208,3010.0,0.16533320000042873
209,3030.0,0.17658217753259414
210,3050.0,0.18224515506475955
211,3070.0,0.19939713259692496
212,3090.0,0.19373411012909042
213,3110.0,0.2241280876612558
214,3130.0,0.20721606519342126
215,3150.0,0.20992804272558666
216,3170.0,0.22907502025775206
217,3190.0,0.2001159977899175
218,3210.0,0.21790597532208292
219,3230.0,0.18870695285424835
220,3250.0,0.25771393038641377
221,3270.0,0.29847990791857915
222,3290.0,0.29465088545074464
223,3310.0,0.27351086298291
224,3311.31121,0.2740704203774074
225,3330.0,0.2820454601695934
226,3350.0,0.27175403067114634
227,3370.0,0.20609660117269923
228,3390.0,0.23178517167425217
229,3410.0,0.2378477421758051
230,3430.0,0.25132931267735803
231,3450.0,0.2609028831789109
232,3470.0,0.2701564536804638
233,3490.0,0.30430002418201674
234,3510.0,0.3259985946835697
235,3530.0,0.2920131651851226
236,3550.0,0.33604973568667557
237,3570.0,0.22994630618822845
238,3590.0,0.23497187668978134
239,3610.0,0.29576244719133427
240,3630.0,0.3140300176928872
241,3640.0,0.32846880294366365
242,3650.0,0.3711495881944401
243,3670.0,0.39723615869599305
244,3690.0,0.35272072919754593
245,3710.0,0.3715472996990989
246,3730.0,0.24980787020065182
247,3750.0,0.2900144407022047
248,3770.0,0.3742580112037577
249,3790.0,0.39220758170531056
250,3801.8939600000003,0.38091579535744274
251,3810.0,0.37322018847779176
252,3830.0,0.22451684847046072
253,3850.0,0.3057285084631296
254,3870.0,0.3091581684557986
255,3890.0,0.35135982844846747
256,3910.0,0.44733148844113635
257,3930.0,0.24206614843380533
258,3950.0,0.3905298084264742
259,3970.0,0.2633644684191432
260,3990.0,0.565480128411812
261,4010.0,0.627464788404481
262,4030.0,0.61685544839715
263,4050.0,0.5919641083898188
264,4070.0,0.5543887683824877
265,4090.0,0.6742144283751567
266,4110.0,0.6231550883678256
267,4130.0,0.6206027483604944
268,4150.0,0.6076794083531635
269,4170.0,0.6187670683458324
270,4190.0,0.6052837283385013
271,4210.0,0.6118253883311703
272,4230.0,0.5762460483238392
273,4250.0,0.6192447083165081
274,4270.0,0.5817493683091769
275,4290.0,0.5471250283018458
276,4310.0,0.4781986882945148
277,4330.0,0.6770813482871837
278,4350.0,0.6734100082798526
279,4365.15832,0.7284928117148547
280,4370.0,0.7460867976627639
281,4390.0,0.6583339921403317
282,4410.0,0.6974241866178995
283,4430.0,0.7543843810954673
284,4450.0,0.7625235755730352
285,4470.0,0.8178087700506032
286,4490.0,0.839347964528171
287,4510.0,0.9614061590057388
288,4530.0,0.8313713534833066
289,4550.0,0.8744495479608745
290,4570.0,0.9478457424384423
291,4590.0,0.8959909369160102
292,4610.0,0.918328131393578
293,4630.0,0.8967883258711459
294,4650.0,0.9079575203487137
295,4670.0,0.9526327148262816
296,4690.0,0.9366769093038495
297,4710.0,0.9055651037814173
298,4730.0,0.9358792982589851
299,4750.0,0.9669944927365529
300,4770.0,0.9494436872141208
301,4790.0,0.9542288816916887
302,4810.0,0.9558250761692565
303,4830.0,0.9901302706468244
304,4850.0,0.9326914651243922
305,4870.0,0.85131965960196
306,4890.0,0.9534328540795279
307,4910.0,0.9550290485570958
308,4930.0,0.9326922430346636
309,4950.0,0.9741754375122315
310,4970.0,0.9518366319897993
311,4990.0,0.8824328264673672
312,5010.0,0.828983020944935
313,5011.87234,0.8343603060143412
314,5030.0,0.8864222508440159
315,5050.0,0.880837484401656
316,5070.0,0.9207277179592961
317,5090.0,0.865680951516936
318,5110.0,0.8912081850745761
319,5130.0,0.8569044186322161
320,5150.0,0.8194106521898563
321,5170.0,0.7467338857474963
322,5190.0,0.7788851193051363
323,5210.0,0.8545143528627764
324,5230.0,0.9350875864204165
325,5250.0,0.9829538199780565
326,5270.0,0.8569060535356965
327,5290.0,0.9989082870933366
328,5310.0,1.0699145206509766
329,5330.0,0.9263147542086166
330,5350.0,1.0244449877662567
331,5370.0,1.0164652213238967
332,5390.0,0.992528454881537
333,5410.0,0.9765736884391769
334,5430.0,0.9917319219968169
335,5450.0,1.018856155554457
336,5470.0,0.9989103891120971
337,5490.0,1.007686622669737
338,5510.0,0.9925298562273772
339,5530.0,1.0364070897850173
340,5550.0,1.0531573233426572
341,5570.0,1.0284375569002973
342,5590.0,0.9981177904579374
343,5610.0,1.0380080240155776
344,5630.0,1.0324182575732175
345,5650.0,1.0523684911308575
346,5670.0,1.0244487246884977
347,5690.0,1.0611389582461375
348,5710.0,1.0204591918037778
349,5730.0,1.1169794253614178
350,5750.0,1.0723096589190577
351,5754.399369999999,1.074590783639381
352,5770.0,1.0826801743060095
353,5790.0,1.0364107691686884
354,5810.0,1.0842813640313675
355,5830.0,1.1193719588940465
356,5850.0,1.0794925537567255
357,5870.0,1.0763031486194046
358,5890.0,0.9271207434820837
359,5910.0,1.054764338344763
360,5930.0,1.0675249332074417
361,5950.0,1.068325528070121
362,5970.0,1.0890761229327999
363,5990.0,1.0699267177954788
364,6010.0,1.055567312658158
365,6030.0,1.088267907520837
366,6050.0,1.1106085023835162
367,6070.0,1.107429097246195
368,6090.0,1.0651396921088743
369,6110.0,1.0707302869715534
370,6130.0,1.0053108818342322
371,6150.0,1.0372214766969112
372,6170.0,0.9702070715595904
373,6190.0,1.0404126664222695
374,6210.0,1.0292432612849485
375,6230.0,0.9933408561476276
376,6250.0,0.9614344510103067
377,6270.0,1.0108950458729855
378,6290.0,1.0332356407356647
379,6310.0,1.0053162355983438
380,6330.0,1.0212668304610228
381,6350.0,1.0236674253237017
382,6370.0,1.0180780201863808
383,6390.0,1.04121861504906
384,6410.0,1.0204792099117392
385,6430.0,1.0308498047744181
386,6450.0,1.0228703996370971
387,6470.0,1.0196809944997762
388,6490.0,0.9997395893624553
389,6510.0,1.0404221842251342
390,6530.0,1.0404227790878133
391,6550.0,1.0148933739504926
392,6570.0,0.9622429688131714
393,6590.0,1.0228745636758505
394,6606.93448,1.0316555952403574
395,6610.0,1.0332450678850567
396,6630.0,1.0204850713082874
397,6650.0,1.0204850747315182
398,6670.0,0.9941560781547488
399,6690.0,1.0069150815779795
400,6710.0,0.96383808500121
401,6730.0,0.9917610884244408
402,6750.0,0.9734130918476714
403,6770.0,0.9789960952709021
404,6790.0,0.9662330986941329
405,6810.0,0.9726131021173635
406,6830.0,0.9869751055405943
407,6850.0,0.959053108963825
408,6870.0,0.9774011123870556
409,6890.0,0.9933521158102864
410,6910.0,0.9917611192335171
411,6930.0,0.9845811226567477
412,6950.0,0.9861761260799783
413,6970.0,1.0013351295032091
414,6990.0,0.9973511329264397
415,7010.0,0.9845811363496705
416,7030.0,1.0077151397729012
417,7050.0,1.011705143196132
418,7070.0,0.9750081466193625
419,7090.0,0.9391091500425932
420,7110.0,0.9127821534658239
421,7130.0,0.8904461568890546
422,7150.0,0.8864561603122852
423,7170.0,0.9008161637355159
424,7190.0,0.8784781671587466
425,7210.0,0.9016131705819773
426,7230.0,0.926345174005208
427,7250.0,0.9351191774284388
428,7270.0,0.9438941808516694
429,7290.0,0.9327271842749001
430,7310.0,0.9638381876981308
431,7330.0,0.9678271911213615
432,7350.0,0.9805921945445922
433,7370.0,1.010115197967823
434,7390.0,0.9917612013910535
435,7410.0,0.9925582048142843
436,7430.0,1.020485208237515
437,7450.0,1.0188852116607456
438,7470.0,1.0388252150839763
439,7490.0,1.038035218507207
440,7510.0,1.0499952219304376
441,7530.0,1.0699452253536683
442,7550.0,1.078725228776899
443,7570.0,1.0747352322001298
444,7585.77575,1.0527044000253316
445,7590.0,1.0468052860217023
446,7610.0,1.025265528059324
447,7630.0,0.998145770096945
448,7650.0,0.9726140121345663
449,7670.0,0.9191662541721878
450,7690.0,0.9438954962098091
451,7710.0,0.9255467382474304
452,7730.0,0.9287399802850517
453,7750.0,0.9223572223226731
454,7770.0,0.9359184643602944
455,7790.0,0.9438967063979157
456,7810.0,0.9438969484355371
457,7830.0,0.9359191904731583
458,7850.0,0.9231564325107797
459,7870.0,0.941505674548401
460,7890.0,0.9295389165860224
461,7910.0,0.9072021586236436
462,7930.0,0.9119884006612651
463,7950.0,0.9048086426988863
464,7970.0,0.9383148847365077
465,7990.0,0.939114126774129
466,8010.0,0.9518763688117504
467,8030.0,0.9574636108493717
468,8050.0,0.959058852886993
469,8070.0,0.9750140949246143
470,8090.0,0.9678333369622356
471,8110.0,0.980598578999857
472,8130.0,1.0141118210374784
473,8150.0,1.0292620630750997
474,8170.0,1.041232305112721
475,8190.0,1.0029325471503423
476,8210.0,0.9917687891879636
477,8230.0,0.998153031225585
478,8250.0,0.9965552732632063
479,8270.0,1.0061335153008275
480,8290.0,0.994164757338449
481,8310.0,0.9590619993760703
482,8330.0,0.9502862414136917
483,8350.0,0.9510834834513129
484,8370.0,0.9566687254889343
485,8390.0,0.9207709675265556
486,8410.0,0.955074209564177
487,8430.0,0.9040164516017982
488,8450.0,0.8800846936394197
489,8470.0,0.8808819356770409
490,8490.0,0.8864671777146623
491,8510.0,0.8489714197522836
492,8530.0,0.8848716617899048
493,8550.0,0.8114779038275263
494,8570.0,0.9175791458651475
495,8590.0,0.9080073879027689
496,8610.0,0.9199746299403901
497,8630.0,0.9391218719780116
498,8650.0,0.9407181140156329
499,8670.0,0.8441873560532542
500,8690.0,0.9191785980908755
501,8709.6359,0.9559902574522008
502,8710.0,0.9566728483415066
503,8730.0,0.9662475415194567
504,8750.0,0.9590682346974069
505,8770.0,0.977416927875357
506,8790.0,0.9909806210533071
507,8810.0,0.9710363142312571
508,8830.0,0.9814070074092073
509,8850.0,0.9806107005871575
510,8870.0,0.9399253937651076
511,8890.0,0.9526900869430578
512,8910.0,0.964656780121008
513,8930.0,0.9471064732989579
514,8950.0,0.9502991664769082
515,8970.0,0.9542878596548583
516,8990.0,0.9566825528328085
517,9010.0,0.9287622460107585
518,9030.0,0.9662579391887086
519,9050.0,0.9981706323666587
520,9070.0,0.999769325544609
521,9090.0,0.981416018722559
522,9110.0,0.9949777119005092
523,9130.0,1.0133234050784594
524,9150.0,1.0061540982564094
525,9170.0,1.0061547914343596
526,9190.0,1.0181154846123097
527,9210.0,0.9758361777902599
528,9230.0,0.94711687096821
529,9250.0,0.9431295641461601
530,9270.0,0.9495132573241102
531,9290.0,0.9335579505020604
532,9310.0,0.9399406436800105
533,9330.0,0.9423363368579606
534,9350.0,0.9383460300359108
535,9370.0,0.9215937232138608
536,9390.0,0.940742416391811
537,9410.0,0.9239881095697612
538,9430.0,0.9479228027477112
539,9450.0,0.9343604959256614
540,9470.0,0.9582951891036116
541,9490.0,0.9606888822815616
542,9510.0,0.9415435754595117
543,9530.0,0.948724268637462
544,9550.0,0.932769961815412
545,9570.0,0.9423446549933622
546,9590.0,0.9606923481713123
547,9610.0,0.9463320413492624
548,9630.0,0.9535137345272126
549,9650.0,0.9335704277051627
550,9670.0,0.9351661208831129
551,9690.0,0.951121814061063
552,9710.0,0.934369507239013
553,9730.0,0.9239992004169633
554,9750.0,0.9216068935949133
555,9770.0,0.9271925867728635
556,9790.0,0.9128332799508136
557,9810.0,0.9383619731287638
558,9830.0,0.9279916663067138
559,9850.0,0.935969359484664
560,9870.0,0.9295890526626142
561,9890.0,0.9287927458405643
562,9910.0,0.9168254390185144
563,9930.0,0.9240061321964645
564,9950.0,0.9271988253744147
565,9970.0,0.9279965185523648
566,9990.0,0.9256032117303149
567,10000.0,0.92560355831929
568,10030.0,0.9256046008363007
569,10070.0,0.9144399908589816
570,10130.0,0.9248110758930033
571,10170.0,0.9136444659156842
572,10220.0,0.9176332034440355
573,10280.0,0.9200302884780569
574,10320.0,0.909659678500738
575,10380.0,0.9032797635347595
576,10430.0,0.9072715010631106
577,10480.0,0.892912238591462
578,10520.0,0.8817466286141429
579,10580.0,0.8618027136481645
580,10630.0,0.8530294511765156
581,10680.0,0.845852188704867
582,10720.0,0.8522345787275479
583,10780.0,0.8466536637615694
584,10820.0,0.8338900537842504
585,10870.0,0.8314987913126016
586,10920.0,0.8307015288409529
587,10980.0,0.8187386138749744
588,11020.0,0.8115600038976554
589,11080.0,0.7966420889316769
590,11130.0,0.794171826460028
591,11170.0,0.7885092164827091
592,11220.0,0.7883509540110604
593,11280.0,0.778061039045082
594,11330.0,0.7772657765734331
595,11380.0,0.7702475141017843
596,11430.0,0.7616342516301357
597,11470.0,0.7719256416528165
598,11481.5362,0.7713738431023077
599,11530.0,0.7690572779178693
600,11570.0,0.7598059482619706
601,11620.0,0.7473652861920971
602,11670.0,0.7465696241222237
603,11730.0,0.7487276296383756
604,11770.0,0.7301412999824769
605,11830.0,0.7220093054986287
606,11870.0,0.70837097584273
607,11920.0,0.7191423137728565
608,11980.0,0.6945753192890086
609,12030.0,0.7084606572191351
610,12070.0,0.7027983275632363
611,12120.0,0.7034406654933629
612,12180.0,0.7046406710095149
613,12230.0,0.7000180089396414
614,12270.0,0.6945946792837427
615,12320.0,0.6890950172138693
616,12370.0,0.6872633551439958
617,12430.0,0.6752193606601478
618,12480.0,0.6728306985902743
619,12530.0,0.6662130365204009
620,12580.0,0.6639023744505275
621,12620.0,0.6594380447946288
622,12670.0,0.6533773827247553
623,12720.0,0.653380720654882
624,12780.0,0.6529857261710338
625,12830.0,0.6320080641011605
626,12880.0,0.641185402031287
627,12920.0,0.6334500723753883
628,12980.0,0.6396770778915402
629,13020.0,0.6313817482356414
630,13080.0,0.6325037537517934
631,13130.0,0.61711009168192
632,13180.0,0.6154384296120464
633,13182.5674,0.6154181131560825
634,13230.0,0.6150442771648107
635,13280.0,0.6034812064294177
636,13320.0,0.6022871498411032
637,13380.0,0.5951950649586317
638,13430.0,0.5963159942232388
639,13470.0,0.5907359376349244
640,13520.0,0.5854758668995313
641,13570.0,0.5769437961641384
642,13630.0,0.5734397112816668
643,13670.0,0.5762356546933525
644,13730.0,0.5776785698108808
645,13770.0,0.5760055132225664
646,13820.0,0.5761704424871734
647,13880.0,0.5701133576047019
648,13930.0,0.543154286869309
649,13970.0,0.5390092302809946
650,14020.0,0.5334301595456016
651,14080.0,0.53726507466313
652,14120.0,0.5303280180748157
653,14180.0,0.535280933192344
654,14230.0,0.529860862456951
655,14280.0,0.521089791721558
656,14330.0,0.5298707209861651
657,14380.0,0.5341036502507721
