,lambda (Angstroms),Total Flux (erg/s/cm^2/Angstrom)
0,1005.0,0.08982815717723586
1,1015.0,0.08639735146936357
2,1025.0,0.05160614576149131
3,1035.0,0.06524734005361903
4,1045.0,0.10450523434574677
5,1055.0,0.10665872863787447
6,1065.0,0.0888679229300022
7,1075.0,0.10091371722212993
8,1085.0,0.08160711151425766
9,1095.0,0.10242870580638537
10,1096.4782,0.1028176932926477
11,1105.0,0.1050592822442245
12,1115.0,0.10194669947013546
13,1125.0,0.09779671669604643
14,1135.0,0.11606353392195741
15,1145.0,0.10593095114786838
16,1155.0,0.11382636837377934
17,1165.0,0.1187717855996903
18,1175.0,0.09451800282560129
19,1185.0,0.11110962005151225
20,1195.0,0.06612223727742321
21,1205.0,0.05618045450333418
22,1215.0,0.03997617172924515
23,1225.0,0.06756938895515611
24,1235.0,0.11261770618106708
25,1245.0,0.13040712340697805
26,1255.0,0.12314454063288902
27,1258.92541,0.11224627459536518
28,1265.0,0.09538218771792431
29,1275.0,0.14109410029961122
30,1285.0,0.15226321288129815
31,1295.0,0.1199543254629851
32,1305.0,0.10990143804467203
33,1315.0,0.14356755062635898
34,1325.0,0.1405356632080459
35,1335.0,0.11740177578973283
36,1345.0,0.15018988837141975
37,1355.0,0.1441270009531067
38,1365.0,0.12601711353479364
39,1375.0,0.13758522611648055
40,1385.0,0.1394203386981675
41,1395.0,0.13144345127985443
42,1405.0,0.13216056386154137
43,1415.0,0.12721467644322831
44,1425.0,0.13327778902491524
45,1435.0,0.1276139016066022
46,1442.0,0.136867980413783
47,1445.43977,0.14043574858329388
48,1447.0,0.14205403388169724
49,1455.0,0.13631010947262068
50,1465.0,0.12466320396127499
51,1475.0,0.12163129844992929
52,1485.0,0.1263383929385836
53,1495.0,0.1303264874272379
54,1505.0,0.12450358191589218
55,1512.0,0.1098246480579502
56,1517.0,0.11971669530227734
57,1525.0,0.11006377089320078
58,1535.0,0.09562446538185508
59,1545.0,0.11213795987050938
60,1555.0,0.10312405435916368
61,1565.0,0.10073014884781797
62,1575.0,0.10615524333647228
63,1585.0,0.11325633782512658
64,1595.0,0.11636743231378087
65,1605.0,0.11118252680243518
66,1615.0,0.11157962129108946
67,1625.0,0.10296471577974377
68,1635.0,0.10886781026839806
69,1645.0,0.11078390475705235
70,1655.0,0.09857749924570666
71,1659.58691,0.10359034718030197
72,1665.0,0.10950641610784898
73,1672.0,0.0910791991309151
74,1677.0,0.10823124414739088
75,1685.0,0.11652879617375216
76,1695.0,0.10823248620670375
77,1705.0,0.10193117623965534
78,1715.0,0.09594866627260694
79,1725.0,0.09491225630555852
80,1735.0,0.10153424633851012
81,1745.0,0.09922153637146171
82,1755.0,0.1080766264044133
83,1765.0,0.09443621643736488
84,1775.0,0.10002180647031648
85,1785.0,0.10066069650326807
86,1795.0,0.10927638653621967
87,1805.0,0.10680407656917126
88,1815.0,0.09978536660212284
89,1825.0,0.09962625663507445
90,1835.0,0.09491984666802603
91,1845.0,0.08638443670097762
92,1855.0,0.0866244267339292
93,1865.0,0.08957671676688081
94,1875.0,0.09707640679983238
95,1885.0,0.09029629683278398
96,1895.0,0.08806318686573558
97,1905.0,0.09021777689868717
98,1905.46072,0.0901369431154853
99,1915.0,0.0884617602089415
100,1925.0,0.08734427074878959
101,1935.0,0.08694448128863766
102,1945.0,0.09188959182848574
103,1955.0,0.08726170236833382
104,1967.0,0.0954776350161515
105,1976.0,0.09683293450201477
106,1984.0,0.09188612293389324
107,1995.0,0.08845464452772613
108,2005.0,0.08957065506757421
109,2015.0,0.08534166560742226
110,2025.0,0.08861177614727035
111,2035.0,0.08581848668711843
112,2045.0,0.09004579722696651
113,2055.0,0.08509890776681457
114,2065.0,0.08469911830666266
115,2074.0,0.09123991779252592
116,2078.0,0.09235646200846516
117,2085.0,0.0958660393863588
118,2095.0,0.09012124992620689
119,2105.0,0.08844486046605496
120,2115.0,0.09035877100590303
121,2125.0,0.09011858154575111
122,2135.0,0.0812622920855992
123,2145.0,0.08812230262544726
124,2155.0,0.09027551316529533
125,2165.0,0.08469022370514342
126,2175.0,0.0836521342449915
127,2185.0,0.08564564478483958
128,2187.7616199999998,0.086724916407745
129,2195.0,0.08955491246664701
130,2205.0,0.08588602162657218
131,2215.0,0.07798883078649735
132,2225.0,0.07735913994642252
133,2235.0,0.0880421491063477
134,2245.0,0.08205955826627287
135,2255.0,0.07483236742619802
136,2265.0,0.0752718765861232
137,2275.0,0.07884668574604836
138,2285.0,0.08581179490597354
139,2295.0,0.0789678040658987
140,2305.0,0.08086711322582388
141,2315.0,0.07487662238574905
142,2325.0,0.05751793154567422
143,2335.0,0.06579144070559939
144,2345.0,0.05945794986552456
145,2355.0,0.07247005902544973
146,2365.0,0.059786368185374895
147,2375.0,0.06492467734530007
148,2385.0,0.05491338650522524
149,2395.0,0.061503695665150404
150,2405.0,0.058927504825075576
151,2415.0,0.061840213985000746
152,2425.0,0.07373562314492592
153,2435.0,0.07134303230485109
154,2445.0,0.07904214146477624
155,2455.0,0.07892325062470142
156,2465.0,0.0751903597846266
157,2475.0,0.06990186894455176
158,2485.0,0.06478887810447694
159,2495.0,0.06531618726440211
160,2505.0,0.07865559642432726
161,2511.88643,0.06273095716622058
162,2513.0,0.06015575421890676
163,2518.0,0.05900681698712581
164,2525.0,0.05674102486263247
165,2535.0,0.06367335039907057
166,2545.0,0.06350547593550866
167,2555.0,0.08175810147194676
168,2565.0,0.07209702700838486
169,2575.0,0.08279475254482295
170,2585.0,0.07848657808126104
171,2595.0,0.07497610361769914
172,2605.0,0.06942322915413723
173,2615.0,0.06649515469057533
174,2625.0,0.07642718022701342
175,2635.0,0.09803040576345151
176,2645.0,0.11901223129988961
177,2655.0,0.1481299568363277
178,2665.0,0.1073636823727658
179,2675.0,0.11749440790920389
180,2685.0,0.12874313344564198
181,2695.0,0.10329385898208009
182,2705.0,0.11924958451851818
183,2715.0,0.09635291005495628
184,2725.0,0.08462553559139438
185,2735.0,0.09874576112783247
186,2745.0,0.07125428666427057
187,2755.0,0.08247061220070866
188,2765.0,0.09691013773714675
189,2775.0,0.10257366327358486
190,2785.0,0.07861668881002294
191,2795.0,0.04973711434646104
192,2805.0,0.05633433988289913
193,2815.0,0.09571196541933723
194,2825.0,0.11836829095577532
195,2835.0,0.11015101649221341
196,2845.0,0.08869084202865152
197,2855.0,0.06923306756508961
198,2865.0,0.1084751931015277
199,2875.0,0.1348809186379658
200,2884.0315,0.12911586430619984
201,2885.0,0.1284976702121974
202,2895.0,0.1501176645952388
203,2910.0,0.19559065616980081
204,2930.0,0.17341264493588351
205,2950.0,0.16072763370196624
206,2970.0,0.16479662246804894
207,2990.0,0.16687061123413163
208,3010.0,0.16527560000021435
209,3030.0,0.1765245887662971
210,3050.0,0.18218757753237977
211,3070.0,0.19933956629846247
212,3090.0,0.1936765550645452
213,3110.0,0.2240705438306279
214,3130.0,0.20715853259671063
215,3150.0,0.20987052136279333
216,3170.0,0.22901751012887603
217,3190.0,0.20005849889495875
218,3210.0,0.21784848766104148
219,3230.0,0.18864947642712418
220,3250.0,0.2576564651932069
221,3270.0,0.29842245395928957
222,3290.0,0.2945934427253723
223,3310.0,0.27345343149145496
224,3311.31121,0.2740129896224537
225,3330.0,0.2819882300847967
226,3350.0,0.27169701533557317
227,3370.0,0.20603980058634963
228,3390.0,0.23172858583712608
229,3410.0,0.23779137108790255
230,3430.0,0.251273156338679
231,3450.0,0.2608469415894555
232,3470.0,0.2701007268402319
233,3490.0,0.3042445120910084
234,3510.0,0.32594329734178484
235,3530.0,0.29195808259256134
236,3550.0,0.33599486784333776
237,3570.0,0.22989165309411425
238,3590.0,0.23491743834489068
239,3610.0,0.2957082235956671
240,3630.0,0.31397600884644356
241,3640.0,0.32841490147183183
242,3650.0,0.37109579409722004
243,3670.0,0.39718257934799656
244,3690.0,0.35266736459877296
245,3710.0,0.3714941498495495
246,3730.0,0.2497549351003259
247,3750.0,0.28996172035110235
248,3770.0,0.3742055056018788
249,3790.0,0.39215529085265527
250,3801.8939600000003,0.38086363221572117
251,3810.0,0.3731680942388959
252,3830.0,0.22446492423523035
253,3850.0,0.3056767542315648
254,3870.0,0.3091065842278993
255,3890.0,0.3513084142242337
256,3910.0,0.44728024422056817
257,3930.0,0.24201507421690266
258,3950.0,0.3904789042132371
259,3970.0,0.2633137342095716
260,3990.0,0.565429564205906
261,4010.0,0.6274143942022405
262,4030.0,0.616805224198575
263,4050.0,0.5919140541949094
264,4070.0,0.5543388841912439
265,4090.0,0.6741647141875784
266,4110.0,0.6231055441839128
267,4130.0,0.6205533741802473
268,4150.0,0.6076302041765818
269,4170.0,0.6187180341729162
270,4190.0,0.6052348641692507
271,4210.0,0.6117766941655851
272,4230.0,0.5761975241619196
273,4250.0,0.619196354158254
274,4270.0,0.5817011841545885
275,4290.0,0.5470770141509229
276,4310.0,0.4781508441472574
277,4330.0,0.6770336741435918
278,4350.0,0.6733625041399264
279,4365.15832,0.7284454364234265
280,4370.0,0.7460393988313819
281,4390.0,0.6582864960701659
282,4410.0,0.6973765933089497
283,4430.0,0.7543366905477337
284,4450.0,0.7624757877865176
285,4470.0,0.8177608850253015
286,4490.0,0.8392999822640854
287,4510.0,0.9613580795028694
288,4530.0,0.8313231767416533
289,4550.0,0.8744012739804373
290,4570.0,0.9477973712192211
291,4590.0,0.8959424684580051
292,4610.0,0.918279565696789
293,4630.0,0.896739662935573
294,4650.0,0.9079087601743568
295,4670.0,0.9525838574131408
296,4690.0,0.9366279546519247
297,4710.0,0.9055160518907086
298,4730.0,0.9358301491294926
299,4750.0,0.9669452463682765
300,4770.0,0.9493943436070604
301,4790.0,0.9541794408458444
302,4810.0,0.9557755380846282
303,4830.0,0.9900806353234122
304,4850.0,0.9326417325621961
305,4870.0,0.85126982980098
306,4890.0,0.9533829270397639
307,4910.0,0.9549790242785479
308,4930.0,0.9326421215173317
309,4950.0,0.9741252187561158
310,4970.0,0.9517863159948997
311,4990.0,0.8823824132336836
312,5010.0,0.8289325104724675
313,5011.87234,0.8343097864386704
314,5030.0,0.886371625422008
315,5050.0,0.880786742200828
316,5070.0,0.920676858979648
317,5090.0,0.865629975758468
318,5110.0,0.891157092537288
319,5130.0,0.8568532093161081
320,5150.0,0.8193593260949281
321,5170.0,0.7466824428737482
322,5190.0,0.7788335596525682
323,5210.0,0.8544626764313882
324,5230.0,0.9350357932102082
325,5250.0,0.9829019099890283
326,5270.0,0.8568540267678483
327,5290.0,0.9988561435466683
328,5310.0,1.0698622603254881
329,5330.0,0.9262623771043084
330,5350.0,1.0243924938831284
331,5370.0,1.0164126106619484
332,5390.0,0.9924757274407685
333,5410.0,0.9765208442195884
334,5430.0,0.9916789609984085
335,5450.0,1.0188030777772286
336,5470.0,0.9988571945560486
337,5490.0,1.0076333113348686
338,5510.0,0.9924764281136886
339,5530.0,1.0363535448925085
340,5550.0,1.0531036616713287
341,5570.0,1.0283837784501486
342,5590.0,0.9980638952289687
343,5610.0,1.0379540120077888
344,5630.0,1.0323641287866088
345,5650.0,1.0523142455654286
346,5670.0,1.0243943623442489
347,5690.0,1.0610844791230687
348,5710.0,1.020404595901889
349,5730.0,1.116924712680709
350,5750.0,1.0722548294595289
351,5754.399369999999,1.0745359284921905
352,5770.0,1.0826250871530048
353,5790.0,1.0363553845843443
354,5810.0,1.0842256820156837
355,5830.0,1.119315979447023
356,5850.0,1.0794362768783627
357,5870.0,1.0762465743097023
358,5890.0,0.9270638717410419
359,5910.0,1.0547071691723815
360,5930.0,1.067467466603721
361,5950.0,1.0682677640350606
362,5970.0,1.0890180614663998
363,5990.0,1.0698683588977393
364,6010.0,1.055508656329079
365,6030.0,1.0882089537604185
366,6050.0,1.110549251191758
367,6070.0,1.1073695486230977
368,6090.0,1.0650798460544373
369,6110.0,1.0706701434857766
370,6130.0,1.0052504409171161
371,6150.0,1.0371607383484556
372,6170.0,0.9701460357797952
373,6190.0,1.0403513332111347
374,6210.0,1.0291816306424744
375,6230.0,0.9932789280738138
376,6250.0,0.9613722255051533
377,6270.0,1.0108325229364927
378,6290.0,1.0331728203678323
379,6310.0,1.005253117799172
380,6330.0,1.0212034152305114
381,6350.0,1.023603712661851
382,6370.0,1.0180140100931905
383,6390.0,1.04115430752453
384,6410.0,1.0204146049558696
385,6430.0,1.030784902387209
386,6450.0,1.0228051998185486
387,6470.0,1.019615497249888
388,6490.0,0.9996737946812276
389,6510.0,1.0403560921125672
390,6530.0,1.0403563895439065
391,6550.0,1.0148266869752463
392,6570.0,0.9621759844065857
393,6590.0,1.0228072818379252
394,6606.93448,1.0315880615601787
395,6610.0,1.0331775339425282
396,6630.0,1.0204175356541438
397,6650.0,1.0204175373657591
398,6670.0,0.9940885390773744
399,6690.0,1.0068475407889896
400,6710.0,0.963770542500605
401,6730.0,0.9916935442122204
402,6750.0,0.9733455459238357
403,6770.0,0.9789285476354511
404,6790.0,0.9661655493470664
405,6810.0,0.9725455510586818
406,6830.0,0.9869075527702972
407,6850.0,0.9589855544819125
408,6870.0,0.9773335561935278
409,6890.0,0.9932845579051431
410,6910.0,0.9916935596167585
411,6930.0,0.9845135613283739
412,6950.0,0.9861085630399892
413,6970.0,1.0012675647516047
414,6990.0,0.9972835664632199
415,7010.0,0.9845135681748353
416,7030.0,1.0076475698864504
417,7050.0,1.0116375715980659
418,7070.0,0.9749405733096812
419,7090.0,0.9390415750212966
420,7110.0,0.9127145767329119
421,7130.0,0.8903785784445273
422,7150.0,0.8863885801561426
423,7170.0,0.900748581867758
424,7190.0,0.8784105835793733
425,7210.0,0.9015455852909887
426,7230.0,0.926277587002604
427,7250.0,0.9350515887142195
428,7270.0,0.9438265904258347
429,7290.0,0.93265959213745
430,7310.0,0.9637705938490654
431,7330.0,0.9677595955606807
432,7350.0,0.9805245972722961
433,7370.0,1.0100475989839115
434,7390.0,0.9916936006955268
435,7410.0,0.9924906024071422
436,7430.0,1.0204176041187576
437,7450.0,1.0188176058303728
438,7470.0,1.038757607541988
439,7490.0,1.0379676092536034
440,7510.0,1.049927610965219
441,7530.0,1.0698776126768341
442,7550.0,1.0786576143884494
443,7570.0,1.0746676161000648
444,7585.77575,1.052636782575166
445,7590.0,1.0467376430108513
446,7610.0,1.025197764029662
447,7630.0,0.9980778850484725
448,7650.0,0.9725460060672831
449,7670.0,0.9190981270860938
450,7690.0,0.9438272481049046
451,7710.0,0.9254783691237152
452,7730.0,0.9286714901425258
453,7750.0,0.9222886111613365
454,7770.0,0.9358497321801471
455,7790.0,0.9438278531989579
456,7810.0,0.9438279742177685
457,7830.0,0.9358500952365791
458,7850.0,0.9230872162553898
459,7870.0,0.9414363372742005
460,7890.0,0.9294694582930112
461,7910.0,0.9071325793118218
462,7930.0,0.9119187003306325
463,7950.0,0.9047388213494432
464,7970.0,0.9382449423682538
465,7990.0,0.9390440633870645
466,8010.0,0.9518061844058752
467,8030.0,0.9573933054246858
468,8050.0,0.9589884264434966
469,8070.0,0.9749435474623072
470,8090.0,0.9677626684811178
471,8110.0,0.9805277894999285
472,8130.0,1.0140409105187391
473,8150.0,1.0291910315375499
474,8170.0,1.0411611525563607
475,8190.0,1.0028612735751712
476,8210.0,0.9916973945939819
477,8230.0,0.9980815156127925
478,8250.0,0.9964836366316031
479,8270.0,1.0060617576504138
480,8290.0,0.9940928786692245
481,8310.0,0.9589899996880352
482,8330.0,0.9502141207068459
483,8350.0,0.9510112417256564
484,8370.0,0.9565963627444671
485,8390.0,0.9206984837632779
486,8410.0,0.9550016047820885
487,8430.0,0.9039437258008991
488,8450.0,0.8800118468197098
489,8470.0,0.8808089678385205
490,8490.0,0.8863940888573312
491,8510.0,0.8488982098761418
492,8530.0,0.8847983308949524
493,8550.0,0.8114044519137631
494,8570.0,0.9175055729325738
495,8590.0,0.9079336939513845
496,8610.0,0.919900814970195
497,8630.0,0.9390479359890057
498,8650.0,0.9406440570078165
499,8670.0,0.8441131780266271
500,8690.0,0.9191042990454378
501,8709.6359,0.9559158395910997
502,8710.0,0.9565984241707534
503,8730.0,0.9661727707597284
504,8750.0,0.9589931173487034
505,8770.0,0.9773414639376784
506,8790.0,0.9909048105266535
507,8810.0,0.9709601571156286
508,8830.0,0.9813305037046036
509,8850.0,0.9805338502935788
510,8870.0,0.9398481968825538
511,8890.0,0.9526125434715289
512,8910.0,0.964578890060504
513,8930.0,0.947028236649479
514,8950.0,0.9502205832384542
515,8970.0,0.9542089298274292
516,8990.0,0.9566032764164042
517,9010.0,0.9286826230053792
518,9030.0,0.9661779695943543
519,9050.0,0.9980903161833293
520,9070.0,0.9996886627723045
521,9090.0,0.9813350093612795
522,9110.0,0.9948963559502546
523,9130.0,1.0132417025392297
524,9150.0,1.0060720491282047
525,9170.0,1.0060723957171798
526,9190.0,1.0180327423061548
527,9210.0,0.9757530888951299
528,9230.0,0.9470334354841049
529,9250.0,0.94304578207308
530,9270.0,0.9494291286620551
531,9290.0,0.9334734752510302
532,9310.0,0.9398558218400053
533,9330.0,0.9422511684289803
534,9350.0,0.9382605150179554
535,9370.0,0.9215078616069304
536,9390.0,0.9406562081959056
537,9410.0,0.9239015547848807
538,9430.0,0.9478359013738555
539,9450.0,0.9342732479628306
540,9470.0,0.9582075945518057
541,9490.0,0.9606009411407808
542,9510.0,0.9414552877297558
543,9530.0,0.948635634318731
544,9550.0,0.932680980907706
545,9570.0,0.9422553274966811
546,9590.0,0.9606026740856561
547,9610.0,0.9462420206746313
548,9630.0,0.9534233672636063
549,9650.0,0.9334797138525813
550,9670.0,0.9350750604415564
551,9690.0,0.9510304070305314
552,9710.0,0.9342777536195065
553,9730.0,0.9239071002084817
554,9750.0,0.9215144467974566
555,9770.0,0.9270997933864318
556,9790.0,0.9127401399754068
557,9810.0,0.9382684865643819
558,9830.0,0.9278978331533569
559,9850.0,0.935875179742332
560,9870.0,0.9294945263313071
561,9890.0,0.928697872920282
562,9910.0,0.9167302195092571
563,9930.0,0.9239105660982323
564,9950.0,0.9271029126872073
565,9970.0,0.9279002592761824
566,9990.0,0.9255066058651574
567,10000.0,0.925506779159645
568,10030.0,0.9255073004181503
569,10070.0,0.9143419954294908
570,10130.0,0.9247120379465016
571,10170.0,0.9135447329578421
572,10220.0,0.9175326017220178
573,10280.0,0.9199286442390284
574,10320.0,0.909557339250369
575,10380.0,0.9031763817673798
576,10430.0,0.9071672505315553
577,10480.0,0.892807119295731
578,10520.0,0.8816408143070714
579,10580.0,0.8616958568240822
580,10630.0,0.8529217255882579
581,10680.0,0.8457435943524335
582,10720.0,0.852125289363774
583,10780.0,0.8465433318807847
584,10820.0,0.8337790268921251
585,10870.0,0.8313868956563009
586,10920.0,0.8305887644204765
587,10980.0,0.8186248069374872
588,11020.0,0.8114455019488277
589,11080.0,0.7965265444658384
590,11130.0,0.794055413230014
591,11170.0,0.7883921082413545
592,11220.0,0.7882329770055302
593,11280.0,0.7779420195225409
594,11330.0,0.7771458882867165
595,11380.0,0.7701267570508922
596,11430.0,0.7615126258150678
597,11470.0,0.7718033208264082
598,11481.5362,0.7712513218311539
599,11530.0,0.7689331389589346
600,11570.0,0.7596804741309853
601,11620.0,0.7472381430960485
602,11670.0,0.7464408120611118
603,11730.0,0.7485968148191877
604,11770.0,0.7300091499912384
605,11830.0,0.7218751527493144
606,11870.0,0.7082354879213649
607,11920.0,0.7190051568864283
608,11980.0,0.6944361596445043
609,12030.0,0.7083198286095675
610,12070.0,0.7026561637816181
611,12120.0,0.7032968327466815
612,12180.0,0.7044948355047574
613,12230.0,0.6998705044698207
614,12270.0,0.6944458396418715
615,12320.0,0.6889445086069347
616,12370.0,0.6871111775719979
617,12430.0,0.6750651803300739
618,12480.0,0.6726748492951371
619,12530.0,0.6660555182602005
620,12580.0,0.6637431872252637
621,12620.0,0.6592775223973143
622,12670.0,0.6532151913623777
623,12720.0,0.653216860327441
624,12780.0,0.6528198630855169
625,12830.0,0.6318405320505802
626,12880.0,0.6410162010156436
627,12920.0,0.6332795361876942
628,12980.0,0.6395045389457701
629,13020.0,0.6312078741178208
630,13080.0,0.6323278768758968
631,13130.0,0.61693254584096
632,13180.0,0.6152592148060232
633,13182.5674,0.6152388126520413
634,13230.0,0.6148626385824053
635,13280.0,0.6032971032147089
636,13320.0,0.6021010749205516
637,13380.0,0.5950060324793159
638,13430.0,0.5961244971116194
639,13470.0,0.5905424688174622
640,13520.0,0.5852799334497657
641,13570.0,0.5767453980820693
642,13630.0,0.5732383556408335
643,13670.0,0.5760323273466762
644,13730.0,0.5774722849054403
645,13770.0,0.5757972566112832
646,13820.0,0.5759597212435867
647,13880.0,0.5698996788023509
648,13930.0,0.5429381434346545
649,13970.0,0.5387911151404973
650,14020.0,0.5332095797728008
651,14080.0,0.537041537331565
652,14120.0,0.5301025090374079
653,14180.0,0.535052466596172
654,14230.0,0.5296299312284755
655,14280.0,0.520856395860779
656,14330.0,0.5296348604930825
