,lambda (Angstroms),Total Flux (erg/s/cm^2/Angstrom)
0,1005.0,4.300979001574434
1,1015.0,4.245205076050945
2,1025.0,4.158070750527456
3,1035.0,4.119368825003966
4,1045.0,4.106283599480477
5,1055.0,4.056093973956988
6,1065.0,3.9859600484334985
7,1075.0,3.9456627229100096
8,1085.0,3.87401299738652
9,1095.0,3.842491471863031
10,1096.4782,3.835143099378149
11,1105.0,3.8008646512547264
12,1115.0,3.7548972290394405
13,1125.0,3.707892406824154
14,1135.0,3.683304384608868
15,1145.0,3.6303169623935823
16,1155.0,3.5953575401782967
17,1165.0,3.55744811796301
18,1175.0,3.490339495747724
19,1185.0,3.464076273532438
20,1195.0,3.3762340513171516
21,1205.0,3.3234374291018662
22,1215.0,3.26437830688658
23,1225.0,3.249116684671294
24,1235.0,3.251310162456008
25,1245.0,3.2262447402407215
26,1255.0,3.1761273180254364
27,1258.92541,3.1484067704588248
28,1265.0,3.1129837525833928
29,1275.0,3.128143922581644
30,1285.0,3.108761292579895
31,1295.0,3.0459006625781457
32,1305.0,3.0052960325763967
33,1315.0,3.0084104025746474
34,1325.0,2.9748267725728987
35,1335.0,2.9211411425711495
36,1345.0,2.9233775125694006
37,1355.0,2.886762882567652
38,1365.0,2.838101252565903
39,1375.0,2.819117622564154
40,1385.0,2.7904009925624047
41,1395.0,2.751872362560656
42,1405.0,2.7220377325589067
43,1415.0,2.686540102557158
44,1425.0,2.662051472555409
45,1435.0,2.625835842553659
46,1442.0,2.6137037015524354
47,1445.43977,2.6067623729633236
48,1447.0,2.605053390874705
49,1455.0,2.582249072103147
50,1465.0,2.5492766736386994
51,1475.0,2.524919275174252
52,1485.0,2.5083008767098045
53,1495.0,2.490963478245357
54,1505.0,2.463815079780909
55,1512.0,2.4342083008557958
56,1517.0,2.433437601623572
57,1525.0,2.4067242828520143
58,1535.0,2.3709594843875665
59,1545.0,2.366147485923119
60,1555.0,2.335808087458671
61,1565.0,2.312088688994223
62,1575.0,2.296188290529776
63,1585.0,2.2819638920653285
64,1595.0,2.263749493600881
65,1605.0,2.237239095136433
66,1615.0,2.2163106966719854
67,1625.0,2.186370298207538
68,1635.0,2.17094789974309
69,1645.0,2.1515385012786425
70,1655.0,2.1180066028141953
71,1659.58691,2.1132376390606393
72,1665.0,2.111068355927137
73,1672.0,2.082185472329596
74,1677.0,2.091869184045638
75,1685.0,2.0882174027913054
76,1695.0,2.064984426223389
77,1705.0,2.043746449655473
78,1715.0,2.022827273087557
79,1725.0,2.0068541965196407
80,1735.0,1.9985395199517246
81,1745.0,1.9812901433838086
82,1755.0,1.9752085668158925
83,1765.0,1.9466314902479764
84,1775.0,1.9372804136800603
85,1785.0,1.9229826371121441
86,1795.0,1.916661660544228
87,1805.0,1.8992526839763122
88,1815.0,1.8772973074083963
89,1825.0,1.8622015308404802
90,1835.0,1.842558454272564
91,1845.0,1.819086377704648
92,1855.0,1.804389701136732
93,1865.0,1.7924053245688156
94,1875.0,1.7849683480008998
95,1885.0,1.7632515714329835
96,1895.0,1.7460817948650675
97,1905.0,1.7332997182971515
98,1905.46072,1.7325307224103144
99,1915.0,1.7204153257282104
100,1925.0,1.7083533899622991
101,1935.0,1.697009154196388
102,1945.0,1.691009818430477
103,1955.0,1.6754374826645662
104,1967.0,1.6705200797454727
105,1976.0,1.6620253775561526
106,1984.0,1.6483230089434235
107,1995.0,1.6328526396009215
108,2005.0,1.6230242038350102
109,2015.0,1.6078507680690992
110,2025.0,1.600176432303188
111,2035.0,1.5864386965372772
112,2045.0,1.579721560771366
113,2055.0,1.5638302250054548
114,2065.0,1.5524859892395435
115,2074.0,1.5491767870502238
116,2078.0,1.545915552743859
117,2085.0,1.5417640177077214
118,2095.0,1.5250747819418105
119,2105.0,1.512453946175899
120,2115.0,1.5034234104099882
121,2125.0,1.492238774644077
122,2135.0,1.472438038878166
123,2145.0,1.4683536031122546
124,2155.0,1.4595623673463438
125,2165.0,1.4430326315804325
126,2175.0,1.4310500958145214
127,2185.0,1.4220991600486104
128,2187.7616199999998,1.420155991490825
129,2195.0,1.417625416593809
130,2205.0,1.406550765133378
131,2215.0,1.3912478136729465
132,2225.0,1.383212362212515
133,2235.0,1.3864896107520839
134,2245.0,1.3731012592916523
135,2255.0,1.358468307831221
136,2265.0,1.3515020563707896
137,2275.0,1.3476711049103582
138,2285.0,1.3472304534499269
139,2295.0,1.3329807019894955
140,2305.0,1.3274742505290642
141,2315.0,1.3140779990686327
142,2325.0,1.2893135476082014
143,2335.0,1.29018129614777
144,2345.0,1.2764420446873386
145,2355.0,1.2820483932269073
146,2365.0,1.261958941766476
147,2375.0,1.2596914903060445
148,2385.0,1.2422744388456133
149,2395.0,1.2414589873851818
150,2405.0,1.2314770359247504
151,2415.0,1.226983984464319
152,2425.0,1.2314736330038876
153,2435.0,1.2216752815434564
154,2445.0,1.2219686300830248
155,2455.0,1.2144439786225936
156,2465.0,1.2033053271621623
157,2475.0,1.1906110757017307
158,2485.0,1.1780923242412995
159,2495.0,1.171213872780868
160,2505.0,1.1771475213204368
161,2511.88643,1.156122956851446
162,2513.0,1.1529333842920246
163,2518.0,1.1490258884958617
164,2525.0,1.1428981143812345
165,2535.0,1.1443133227889093
166,2545.0,1.1386283311965841
167,2555.0,1.1513638396042591
168,2565.0,1.136185648011934
169,2575.0,1.141366256419609
170,2585.0,1.1315409648272838
171,2595.0,1.122513373234959
172,2605.0,1.1114433816426337
173,2615.0,1.1029981900503087
174,2625.0,1.1074130984579837
175,2635.0,1.1234992068656586
176,2645.0,1.1389639152733335
177,2655.0,1.1625645236810085
178,2665.0,1.1162811320886834
179,2675.0,1.1208947404963583
180,2685.0,1.1266263489040331
181,2695.0,1.0956599573117083
182,2705.0,1.1060985657193831
183,2715.0,1.0776847741270579
184,2725.0,1.0604402825347328
185,2735.0,1.0690433909424077
186,2745.0,1.0360347993500827
187,2755.0,1.0417340077577577
188,2765.0,1.0506564161654326
189,2775.0,1.0508028245731076
190,2785.0,1.0213287329807823
191,2795.0,0.9869320413884574
192,2805.0,0.9880121497961323
193,2815.0,1.0218726582038073
194,2825.0,1.039011866611482
195,2835.0,1.0252774750191571
196,2845.0,0.998300183426832
197,2855.0,0.9733252918345069
198,2865.0,1.007050300242182
199,2875.0,1.0279389086498567
200,2884.0315,1.0171910699832483
201,2885.0,1.0161954903460795
202,2895.0,1.0339188864517184
203,2910.0,1.0735469806101765
204,2930.0,1.043575772821454
205,2950.0,1.0230975650327316
206,2970.0,1.0193733572440091
207,2990.0,1.0136541494552866
208,3010.0,1.0042659416665642
209,3030.0,1.007721733877842
210,3050.0,1.0055915260891193
211,3070.0,1.014950318300397
212,3090.0,1.0014941105116746
213,3110.0,1.024094902722952
214,3130.0,0.9993896949342296
215,3150.0,0.9943084871455071
216,3170.0,1.0056622793567846
217,3190.0,0.9689100715680622
218,3210.0,0.9789068637793399
219,3230.0,0.9419146559906173
220,3250.0,1.003128448201895
221,3270.0,1.0361012404131724
222,3290.0,1.02447903262445
223,3310.0,0.9955458248357276
224,3311.31121,0.995594457103995
225,3330.0,0.9984117328516837
226,3350.0,0.9826006693432261
227,3370.0,0.9114236058347686
228,3390.0,0.9315925423263108
229,3410.0,0.9321354788178532
230,3430.0,0.9400974153093956
231,3450.0,0.944151351800938
232,3470.0,0.9478852882924804
233,3490.0,0.9765092247840228
234,3510.0,0.9926881612755651
235,3530.0,0.9531830977671075
236,3550.0,0.9917000342586499
237,3570.0,0.8800769707501923
238,3590.0,0.8795829072417347
239,3610.0,0.9348538437332772
240,3630.0,0.9476017802248196
241,3640.0,0.9592807484705907
242,3650.0,0.9992017167163619
243,3670.0,1.0197686532079042
244,3690.0,0.9697335896994467
245,3710.0,0.9830405261909891
246,3730.0,0.8557814626825315
247,3750.0,0.8904683991740738
248,3770.0,0.9691923356656162
249,3790.0,0.9816222721571586
250,3801.8939600000003,0.9670479705028056
251,3810.0,0.9577640902019897
252,3830.0,0.8051420095490047
253,3850.0,0.8824349288960196
254,3870.0,0.8819458482430347
255,3890.0,0.9202287675900496
256,3910.0,1.0122816869370643
257,3930.0,0.8030976062840793
258,3950.0,0.9476425256310943
259,3970.0,0.8165584449781093
260,3990.0,1.114755364325124
261,4010.0,1.172821283672139
262,4030.0,1.158293203019154
263,4050.0,1.1294831223661688
264,4070.0,1.087989041713184
265,4090.0,1.203895961060199
266,4110.0,1.1489178804072138
267,4130.0,1.1424467997542287
268,4150.0,1.1256047191012437
269,4170.0,1.1327736384482585
270,4190.0,1.1153715577952736
271,4210.0,1.1179944771422885
272,4230.0,1.0784963964893035
273,4250.0,1.1175763158363183
274,4270.0,1.0761622351833333
275,4290.0,1.0376191545303481
276,4310.0,0.9647740738773631
277,4330.0,1.159737993224378
278,4350.0,1.152147912571393
279,4365.15832,1.2042606397712037
280,4370.0,1.2211861049973503
281,4390.0,1.130671775699029
282,4410.0,1.1670004464007078
283,4430.0,1.2211991171023864
284,4450.0,1.226576787804065
285,4470.0,1.2791004585057437
286,4490.0,1.2978781292074224
287,4510.0,1.417174799909101
288,4530.0,1.2843784706107797
289,4550.0,1.3246951413124584
290,4570.0,1.3953298120141369
291,4590.0,1.3407134827158156
292,4610.0,1.3602891534174941
293,4630.0,1.335987824119173
294,4650.0,1.3443954948208516
295,4670.0,1.3863091655225304
296,4690.0,1.367591836224209
297,4710.0,1.3337185069258877
298,4730.0,1.3612711776275663
299,4750.0,1.3896248483292448
300,4770.0,1.3693125190309234
301,4790.0,1.3713361897326022
302,4810.0,1.3701708604342808
303,4830.0,1.4017145311359593
304,4850.0,1.3415142018376383
305,4870.0,1.2573808725393167
306,4890.0,1.3567325432409953
307,4910.0,1.3555672139426742
308,4930.0,1.3304688846443526
309,4950.0,1.3691905553460315
310,4970.0,1.3440902260477101
311,4990.0,1.2719248967493888
312,5010.0,1.2157135674510673
313,5011.87234,1.2208323269491461
314,5030.0,1.2711249102044964
315,5050.0,1.2635880312729078
316,5070.0,1.301526152341319
317,5090.0,1.2445272734097306
318,5110.0,1.268102394478142
319,5130.0,1.2318465155465532
320,5150.0,1.1924006366149646
321,5170.0,1.117771757683376
322,5190.0,1.1479708787517875
323,5210.0,1.2216479998201988
324,5230.0,1.3002691208886104
325,5250.0,1.3461832419570217
326,5270.0,1.218183363025433
327,5290.0,1.3582334840938444
328,5310.0,1.4272876051622556
329,5330.0,1.281735726230667
330,5350.0,1.3779138472990786
331,5370.0,1.3679819683674899
332,5390.0,1.3420930894359013
333,5410.0,1.3241862105043127
334,5430.0,1.337392331572724
335,5450.0,1.3625644526411356
336,5470.0,1.340666573709547
337,5490.0,1.3474906947779581
338,5510.0,1.3303818158463696
339,5530.0,1.372306936914781
340,5550.0,1.3871050579831925
341,5570.0,1.3604331790516038
342,5590.0,1.3281613001200152
343,5610.0,1.3660994211884265
344,5630.0,1.358557542256838
345,5650.0,1.3765556633252494
346,5670.0,1.3466837843936608
347,5690.0,1.381421905462072
348,5710.0,1.3387900265304835
349,5730.0,1.4333581475988948
350,5750.0,1.3867362686673064
351,5754.399369999999,1.3885879901315428
352,5770.0,1.3955968428475387
353,5790.0,1.3479421885880578
354,5810.0,1.3944275343285768
355,5830.0,1.4281328800690956
356,5850.0,1.3868682258096146
357,5870.0,1.3822935715501334
358,5890.0,1.2317259172906523
359,5910.0,1.3579842630311716
360,5930.0,1.3693596087716902
361,5950.0,1.3687749545122094
362,5970.0,1.3881403002527282
363,5990.0,1.367605645993247
364,6010.0,1.351860991733766
365,6030.0,1.383176337474285
366,6050.0,1.404131683214804
367,6070.0,1.399567028955323
368,6090.0,1.355892374695842
369,6110.0,1.360097720436361
370,6130.0,1.2932930661768798
371,6150.0,1.3238184119173986
372,6170.0,1.2554187576579177
373,6190.0,1.3242391033984366
374,6210.0,1.3116844491389557
375,6230.0,1.2743967948794745
376,6250.0,1.2411051406199936
377,6270.0,1.2891804863605123
378,6290.0,1.3101358321010315
379,6310.0,1.2808311778415504
380,6330.0,1.2953965235820692
381,6350.0,1.2964118693225881
382,6370.0,1.289437215063107
383,6390.0,1.3111925608036263
384,6410.0,1.2890679065441453
385,6430.0,1.2980532522846642
386,6450.0,1.288688598025183
387,6470.0,1.2841139437657019
388,6490.0,1.2627872895062209
389,6510.0,1.3020846352467397
390,6530.0,1.3006999809872588
391,6550.0,1.273785326727778
392,6570.0,1.2197496724682966
393,6590.0,1.2789960182088156
394,6606.93448,1.2866041260956107
395,6610.0,1.2880456802993492
396,6630.0,1.2743206373946447
397,6650.0,1.27335559448994
398,6670.0,1.2460615515852353
399,6690.0,1.2578555086805308
400,6710.0,1.213813465775826
401,6730.0,1.2407714228711213
402,6750.0,1.2214583799664167
403,6770.0,1.226076337061712
404,6790.0,1.2123482941570074
405,6810.0,1.2177632512523027
406,6830.0,1.2311602083475983
407,6850.0,1.2022731654428935
408,6870.0,1.2196561225381888
409,6890.0,1.2346420796334843
410,6910.0,1.2320860367287796
411,6930.0,1.223940993824075
412,6950.0,1.2245709509193703
413,6970.0,1.2387649080146659
414,6990.0,1.2338158651099609
415,7010.0,1.2200808222052564
416,7030.0,1.2422497793005516
417,7050.0,1.2452747363958472
418,7070.0,1.2076126934911424
419,7090.0,1.1707486505864377
420,7110.0,1.1434566076817332
421,7130.0,1.1201555647770285
422,7150.0,1.1152005218723238
423,7170.0,1.1285954789676191
424,7190.0,1.1052924360629146
425,7210.0,1.12746239315821
426,7230.0,1.1512293502535051
427,7250.0,1.1590383073488006
428,7270.0,1.166848264444096
429,7290.0,1.1547162215393914
430,7310.0,1.1848621786346867
431,7330.0,1.1878861357299821
432,7350.0,1.1996860928252775
433,7370.0,1.228244049920573
434,7390.0,1.2089250070158681
435,7410.0,1.2087569641111635
436,7430.0,1.235718921206459
437,7450.0,1.2331538783017542
438,7470.0,1.2521288353970494
439,7490.0,1.2503737924923448
440,7510.0,1.2613687495876402
441,7530.0,1.2803537066829356
442,7550.0,1.2881686637782308
443,7570.0,1.2832136208735263
444,7585.77575,1.2604215722183318
445,7590.0,1.2543810466707541
446,7610.0,1.232171766099872
447,7630.0,1.2043824855289895
448,7650.0,1.178181204958107
449,7670.0,1.1240639243872248
450,7690.0,1.1481236438163427
451,7710.0,1.1291053632454602
452,7730.0,1.1316290826745778
453,7750.0,1.1245768021036957
454,7770.0,1.1374685215328133
455,7790.0,1.144777240961931
456,7810.0,1.1441079603910487
457,7830.0,1.1354606798201663
458,7850.0,1.122028399249284
459,7870.0,1.1397081186784017
460,7890.0,1.1270718381075195
461,7910.0,1.1040655575366372
462,7930.0,1.108182276965755
463,7950.0,1.1003329963948725
464,7970.0,1.1331697158239902
465,7990.0,1.1332994352531078
466,8010.0,1.1453921546822257
467,8030.0,1.1503098741113433
468,8050.0,1.151235593540461
469,8070.0,1.1665213129695786
470,8090.0,1.1586710323986964
471,8110.0,1.1707667518278142
472,8130.0,1.2036104712569318
473,8150.0,1.2180911906860494
474,8170.0,1.2293919101151674
475,8190.0,1.190422629544285
476,8210.0,1.1785893489734027
477,8230.0,1.1843040684025201
478,8250.0,1.182036787831638
479,8270.0,1.1909455072607555
480,8290.0,1.1783072266898733
481,8310.0,1.142534946118991
482,8330.0,1.1330896655481089
483,8350.0,1.1332173849772265
484,8370.0,1.1381331044063443
485,8390.0,1.101565823835462
486,8410.0,1.1351995432645796
487,8430.0,1.0834722626936972
488,8450.0,1.0588709821228148
489,8470.0,1.0589987015519327
490,8490.0,1.0639144209810503
491,8510.0,1.025749140410168
492,8530.0,1.0609798598392857
493,8550.0,0.9869165792684034
494,8570.0,1.092348298697521
495,8590.0,1.0821070181266388
496,8610.0,1.0934047375557565
497,8630.0,1.1118824569848742
498,8650.0,1.1128091764139918
499,8670.0,1.0156088958431095
500,8690.0,1.0899306152722272
501,8709.6359,1.1260849406841367
502,8710.0,1.1267595035099593
503,8730.0,1.1358932154474166
504,8750.0,1.128272927384874
505,8770.0,1.146180639322331
506,8790.0,1.1593033512597883
507,8810.0,1.1389180631972455
508,8830.0,1.1488477751347028
509,8850.0,1.1476104870721602
510,8870.0,1.1064841990096175
511,8890.0,1.1188079109470748
512,8910.0,1.130333622884532
513,8930.0,1.1123423348219892
514,8950.0,1.1150940467594466
515,8970.0,1.118641758696904
516,8990.0,1.120595470634361
517,9010.0,1.0922341825718185
518,9030.0,1.1292888945092756
519,9050.0,1.1607606064467328
520,9070.0,1.1619183183841904
521,9090.0,1.1431240303216474
522,9110.0,1.156244742259105
523,9130.0,1.174149454196562
524,9150.0,1.1665391661340192
525,9170.0,1.1660988780714765
526,9190.0,1.1776185900089338
527,9210.0,1.1348983019463912
528,9230.0,1.1057380138838484
529,9250.0,1.1013097258213056
530,9270.0,1.107252437758763
531,9290.0,1.0908561496962204
532,9310.0,1.0967978616336775
533,9330.0,1.0987525735711348
534,9350.0,1.094321285508592
535,9370.0,1.0771279974460493
536,9390.0,1.0958357093835067
537,9410.0,1.078640421320964
538,9430.0,1.1021341332584211
539,9450.0,1.0881308451958784
540,9470.0,1.1116245571333356
541,9490.0,1.113577269070793
542,9510.0,1.0939909810082502
543,9530.0,1.1007306929457075
544,9550.0,1.0843354048831648
545,9570.0,1.093469116820622
546,9590.0,1.1113758287580793
547,9610.0,1.0965745406955367
548,9630.0,1.103315252632994
549,9650.0,1.0829309645704512
550,9670.0,1.0840856765079085
551,9690.0,1.0996003884453658
552,9710.0,1.082407100382823
553,9730.0,1.0715958123202802
554,9750.0,1.0687625242577377
555,9770.0,1.073907236195195
556,9790.0,1.059106948132652
557,9810.0,1.0841946600701093
558,9830.0,1.0733833720075667
559,9850.0,1.080920083945024
560,9870.0,1.0740987958824812
561,9890.0,1.0728615078199384
562,9910.0,1.0604532197573957
563,9930.0,1.0671929316948532
564,9950.0,1.0699446436323103
565,9970.0,1.0703013555697676
566,9990.0,1.0674670675072249
567,10000.0,1.0672469234759534
568,10030.0,1.066842620995397
569,10070.0,1.0551375510213217
570,10130.0,1.064697946060209
571,10170.0,1.0529908760861337
572,10220.0,1.0563040386185396
573,10280.0,1.0578904336574266
574,10320.0,1.0469793636833515
575,10380.0,1.0397887587222385
576,10430.0,1.0431049212546446
577,10480.0,1.0280700837870504
578,10520.0,1.0163640138129753
579,10580.0,0.9956094088518623
580,10630.0,0.9861605713842683
581,10680.0,0.9783077339166742
582,10720.0,0.984149663942599
583,10780.0,0.977758058981486
584,10820.0,0.9644539890074108
585,10870.0,0.9613871515398167
586,10920.0,0.9599143140722226
587,10980.0,0.9471407091111098
588,11020.0,0.9394216391370346
589,11080.0,0.9236930341759216
590,11130.0,0.9205471967083275
591,11170.0,0.9143441267342522
592,11220.0,0.9135102892666582
593,11280.0,0.9024096843055455
594,11330.0,0.9009388468379513
595,11380.0,0.8932450093703572
596,11430.0,0.8839561719027632
597,11470.0,0.8937071019286879
598,11481.5362,0.8929994320128146
599,11530.0,0.8903391663533247
600,11570.0,0.8808041606546464
601,11620.0,0.8680089035312986
602,11670.0,0.8668586464079507
603,11730.0,0.8685911378599334
604,11770.0,0.8497211321612552
605,11830.0,0.8411636236132378
606,11870.0,0.8272416179145595
607,11920.0,0.8376583607912117
608,11980.0,0.8126658522431944
609,12030.0,0.8261965951198466
610,12070.0,0.8202505894211682
611,12120.0,0.8205383322978205
612,12180.0,0.8213128237498031
613,12230.0,0.8163355666264552
614,12270.0,0.8106285609277771
615,12320.0,0.8047743038044293
616,12370.0,0.8025880466810814
617,12430.0,0.7901185381330641
618,12480.0,0.7873752810097162
619,12530.0,0.7804030238863684
620,12580.0,0.7777377667630205
621,12620.0,0.7729897610643423
622,12670.0,0.7665745039409946
623,12720.0,0.7662232468176466
624,12780.0,0.7654027382696293
625,12830.0,0.7440704811462815
626,12880.0,0.7528932240229338
627,12920.0,0.7448742183242555
628,12980.0,0.7506757097762381
629,13020.0,0.7420967040775598
630,13080.0,0.7427931955295425
631,13130.0,0.7270449384061947
632,13180.0,0.7250186812828467
633,13182.5674,0.7249801570800771
634,13230.0,0.7244873315761509
635,13280.0,0.712798830743468
636,13320.0,0.7115044300773216
637,13380.0,0.7042618290781021
638,13430.0,0.7052573282454192
639,13470.0,0.6995769275792728
640,13520.0,0.69419142674659
641,13570.0,0.685533925913907
642,13630.0,0.6818793249146875
643,13670.0,0.6845749242485412
644,13730.0,0.6858673232493216
645,13770.0,0.6840939225831754
646,13820.0,0.6841334217504924
647,13880.0,0.677925820751273
648,13930.0,0.6508413199185901
649,13970.0,0.6465959192524436
650,14020.0,0.6408914184197608
651,14080.0,0.6445758174205413
652,14120.0,0.6375384167543949
653,14180.0,0.6423408157551754
654,14230.0,0.6367953149224924
655,14280.0,0.6278988140898095
656,14330.0,0.6365543132571266
657,14380.0,0.6406618124244438
658,14420.0,0.6280404117582974
659,14480.0,0.6363528107590779
660,14520.0,0.6321074100929316
661,14570.0,0.6344609092602487
662,14620.0,0.6225324084275657
663,14670.0,0.6189019075948828
664,14720.0,0.6145534067621998
665,14770.0,0.617623905929517
666,14830.0,0.6201913049302975
