,lambda (Angstroms),Total Flux (erg/s/cm^2/Angstrom)
0,1005.0,3.4587329812595473
1,1015.0,3.413427780840756
2,1025.0,3.3367621804219647
3,1035.0,3.308528980003173
4,1045.0,3.3059124795843817
5,1055.0,3.26619157916559
6,1065.0,3.206526378746799
7,1075.0,3.1766977783280077
8,1085.0,3.115516777909216
9,1095.0,3.0944639774904252
10,1096.4782,3.088663091950519
11,1105.0,3.0616889210037814
12,1115.0,3.0242927832315525
13,1125.0,2.9858592454593236
14,1135.0,2.9698425076870945
15,1145.0,2.925426369914866
16,1155.0,2.8990382321426376
17,1165.0,2.8697000943704083
18,1175.0,2.811162756598179
19,1185.0,2.7934708188259507
20,1195.0,2.7141998810537213
21,1205.0,2.669974543281493
22,1215.0,2.619486705509264
23,1225.0,2.6127963677370354
24,1235.0,2.6235611299648065
25,1245.0,2.6070669921925775
26,1255.0,2.5655208544203494
27,1258.92541,2.5411648874203
28,1265.0,2.509453642066714
29,1275.0,2.5307241380653154
30,1285.0,2.517451834063916
31,1295.0,2.460701530062517
32,1305.0,2.4262072260611176
33,1315.0,2.435431922059718
34,1325.0,2.407958618058319
35,1335.0,2.3603833140569197
36,1345.0,2.3687300100555206
37,1355.0,2.3382257060541214
38,1365.0,2.295674402052722
39,1375.0,2.282801098051323
40,1385.0,2.260194794049924
41,1395.0,2.227776490048525
42,1405.0,2.2040521860471256
43,1415.0,2.174664882045726
44,1425.0,2.156286578044327
45,1435.0,2.1261812740429273
46,1442.0,2.1183263612419485
47,1445.43977,2.1134868442594588
48,1447.0,2.112443312699764
49,1455.0,2.093051057682518
50,1465.0,2.0643437389109596
51,1475.0,2.0442514201394015
52,1485.0,2.0318981013678434
53,1495.0,2.0188257825962856
54,1505.0,1.9959424638247274
55,1512.0,1.9693212406846365
56,1517.0,1.9706830812988576
57,1525.0,1.9473818262816114
58,1535.0,1.9158821075100532
59,1545.0,1.915335188738495
60,1555.0,1.8892608699669369
61,1565.0,1.8698065511953788
62,1575.0,1.858171232423821
63,1585.0,1.8482119136522628
64,1595.0,1.8342625948807045
65,1605.0,1.8120172761091464
66,1615.0,1.7953539573375883
67,1625.0,1.7696786385660306
68,1635.0,1.7585213197944722
69,1645.0,1.7433770010229142
70,1655.0,1.7141101822513563
71,1659.58691,1.7112975721672115
72,1665.0,1.71074528474171
73,1672.0,1.683953437863677
74,1677.0,1.6951307472365102
75,1685.0,1.6938687222330442
76,1695.0,1.6736229409787113
77,1705.0,1.6553721597243785
78,1715.0,1.6374401784700456
79,1725.0,1.6244542972157126
80,1735.0,1.6191268159613799
81,1745.0,1.604864634707047
82,1755.0,1.601770253452714
83,1765.0,1.5761803721983811
84,1775.0,1.5698164909440484
85,1785.0,1.5585059096897154
86,1795.0,1.5551721284353823
87,1805.0,1.5407503471810498
88,1815.0,1.5217821659267172
89,1825.0,1.5096735846723843
90,1835.0,1.4930177034180512
91,1845.0,1.4725328221637184
92,1855.0,1.4608233409093858
93,1865.0,1.4518261596550526
94,1875.0,1.4473763784007199
95,1885.0,1.428646797146387
96,1895.0,1.4144642158920542
97,1905.0,1.4046693346377213
98,1905.46072,1.4040379648133716
99,1915.0,1.3940107805825683
100,1925.0,1.3841379119698394
101,1935.0,1.3749827433571105
102,1945.0,1.3711724747443816
103,1955.0,1.357789206131653
104,1967.0,1.3554986837963783
105,1976.0,1.3489741420449222
106,1984.0,1.337023027154739
107,1995.0,1.3239606316807373
108,2005.0,1.3163212630680083
109,2015.0,1.3033368944552794
110,2025.0,1.2978516258425505
111,2035.0,1.286302957229822
112,2045.0,1.2817748886170928
113,2055.0,1.268072620004364
114,2065.0,1.2589174513916348
115,2074.0,1.257578409640179
116,2078.0,1.2551928021950873
117,2085.0,1.2525736141661772
118,2095.0,1.2380734455534483
119,2105.0,1.2276416769407192
120,2115.0,1.2208002083279905
121,2125.0,1.2118046397152618
122,2135.0,1.1941929711025328
123,2145.0,1.1922976024898038
124,2155.0,1.185695433877075
125,2165.0,1.1713547652643461
126,2175.0,1.1615612966516171
127,2185.0,1.1547994280388882
128,2187.7616199999998,1.15346079664426
129,2195.0,1.1520022332750472
130,2205.0,1.1424085921067024
131,2215.0,1.1285866509383573
132,2225.0,1.122032209770012
133,2235.0,1.1267904686016672
134,2245.0,1.114883127433322
135,2255.0,1.1017311862649768
136,2265.0,1.0962459450966318
137,2275.0,1.0938960039282866
138,2285.0,1.0949363627599416
139,2295.0,1.0821676215915965
140,2305.0,1.0781421804232512
141,2315.0,1.0662269392549062
142,2325.0,1.0429434980865613
143,2335.0,1.0452922569182161
144,2345.0,1.033034015749871
145,2355.0,1.0401213745815259
146,2365.0,1.021512933413181
147,2375.0,1.0207264922448358
148,2385.0,1.0047904510764907
149,2395.0,1.0054560099081455
150,2405.0,0.9969550687398004
151,2415.0,0.9939430275714555
152,2425.0,0.9999136864031101
153,2435.0,0.9915963452347653
154,2445.0,0.99337070406642
155,2455.0,0.9873270628980749
156,2465.0,0.97766942172973
157,2475.0,0.9664561805613847
158,2485.0,0.9554184393930396
159,2495.0,0.9500209982246945
160,2505.0,0.9574356570563495
161,2511.88643,0.9374309799579317
162,2513.0,0.9343642874336197
163,2518.0,0.9310085307966895
164,2525.0,0.9256531915049876
165,2535.0,0.9281718782311273
166,2545.0,0.9235903649572673
167,2555.0,0.9374293516834074
168,2565.0,0.9233546384095472
169,2575.0,0.9296387251356872
170,2585.0,0.9209169118618272
171,2595.0,0.9129927985879672
172,2605.0,0.903026285314107
173,2615.0,0.8956845720402471
174,2625.0,0.901202958766387
175,2635.0,0.918392545492527
176,2645.0,0.9349607322186668
177,2655.0,0.9596648189448068
178,2665.0,0.9144849056709468
179,2675.0,0.9202019923970866
180,2685.0,0.9270370791232266
181,2695.0,0.8971741658493666
182,2705.0,0.9087162525755066
183,2715.0,0.8814059393016463
184,2725.0,0.8652649260277864
185,2735.0,0.8749715127539263
186,2745.0,0.8430663994800662
187,2755.0,0.8498690862062062
188,2765.0,0.8598949729323461
189,2775.0,0.861144859658486
190,2785.0,0.8327742463846259
191,2795.0,0.7994810331107659
192,2805.0,0.8016646198369058
193,2815.0,0.8366286065630458
194,2825.0,0.8548712932891858
195,2835.0,0.8422403800153258
196,2845.0,0.8163665667414657
197,2855.0,0.7924951534676056
198,2865.0,0.8273236401937456
199,2875.0,0.8493157269198855
200,2884.0315,0.8395644946965988
201,2885.0,0.8386443922768636
202,2895.0,0.8571471091613746
203,2910.0,0.8979441844881413
204,2930.0,0.8695316182571634
205,2950.0,0.8506120520261853
206,2970.0,0.8484464857952072
207,2990.0,0.8442859195642295
208,3010.0,0.8364563533332513
209,3030.0,0.8414707871022736
210,3050.0,0.8408992208712955
211,3070.0,0.8518166546403176
212,3090.0,0.8399190884093396
213,3110.0,0.8640785221783617
214,3130.0,0.8409319559473837
215,3150.0,0.8374093897164058
216,3170.0,0.8503218234854277
217,3190.0,0.8151282572544498
218,3210.0,0.8266836910234718
219,3230.0,0.7912501247924939
220,3250.0,0.8540225585615161
221,3270.0,0.888553992330538
222,3290.0,0.87849042609956
223,3310.0,0.8511158598685821
224,3311.31121,0.8512666774566959
225,3330.0,0.8551155862813469
226,3350.0,0.8404085354745809
227,3370.0,0.7703354846678149
228,3390.0,0.7916084338610487
229,3410.0,0.7932553830542826
230,3430.0,0.8023213322475166
231,3450.0,0.8074792814407504
232,3470.0,0.8123172306339843
233,3490.0,0.8420451798272184
234,3510.0,0.8593281290204522
235,3530.0,0.820927078213686
236,3550.0,0.8605480274069199
237,3570.0,0.750028976600154
238,3590.0,0.7506389257933879
239,3610.0,0.8070138749866218
240,3630.0,0.8208658241798557
241,3640.0,0.8330967987764726
242,3650.0,0.8735697733730896
243,3670.0,0.8952407225663235
244,3690.0,0.8463096717595573
245,3710.0,0.8607206209527913
246,3730.0,0.7345655701460253
247,3750.0,0.7703565193392591
248,3770.0,0.8501844685324931
249,3790.0,0.8637184177257269
250,3801.8939600000003,0.8498006702170444
251,3810.0,0.8408344721615918
252,3830.0,0.6889962076392038
253,3850.0,0.7670729431168157
254,3870.0,0.7673676785944277
255,3890.0,0.8064344140720396
256,3910.0,0.8992711495496516
257,3930.0,0.6908708850272636
258,3950.0,0.8361996205048754
259,3970.0,0.7058993559824874
260,3990.0,1.0048800914600993
261,4010.0,1.0637298269377113
262,4030.0,1.0499855624153231
263,4050.0,1.021959297892935
264,4070.0,0.9812490333705471
265,4090.0,1.0979397688481591
266,4110.0,1.043745504325771
267,4130.0,1.0380582398033829
268,4150.0,1.021999975280995
269,4170.0,1.0299527107586068
270,4190.0,1.0133344462362188
271,4210.0,1.0167411817138308
272,4230.0,0.9780269171914429
273,4250.0,1.0178906526690548
274,4270.0,0.9772603881466666
275,4290.0,0.9395011236242785
276,4310.0,0.8674398591018906
277,4330.0,1.0631875945795024
278,4350.0,1.0563813300571145
279,4365.15832,1.1090881240433625
280,4370.0,1.1261472839978803
281,4390.0,1.0361852205592232
282,4410.0,1.0730661571205662
283,4430.0,1.1278170936819092
284,4450.0,1.133747030243252
285,4470.0,1.1868229668045949
286,4490.0,1.206152903365938
287,4510.0,1.3260018399272808
288,4530.0,1.1937577764886238
289,4550.0,1.2346267130499666
290,4570.0,1.3058136496113095
291,4590.0,1.2517495861726524
292,4610.0,1.2718775227339953
293,4630.0,1.2481284592953383
294,4650.0,1.2570883958566812
295,4670.0,1.2995543324180243
296,4690.0,1.2813892689793671
297,4710.0,1.2480682055407102
298,4730.0,1.276173142102053
299,4750.0,1.305079078663396
300,4770.0,1.2853190152247387
301,4790.0,1.2878949517860818
302,4810.0,1.2872818883474246
303,4830.0,1.3193778249087675
304,4850.0,1.2597297614701106
305,4870.0,1.1761486980314535
306,4890.0,1.2760526345927963
307,4910.0,1.2754395711541393
308,4930.0,1.2508935077154821
309,4950.0,1.2901674442768252
310,4970.0,1.2656193808381682
311,4990.0,1.194006317399511
312,5010.0,1.138347253960854
313,5011.87234,1.143517714931917
314,5030.0,1.194164128163597
315,5050.0,1.1870176250183262
316,5070.0,1.2253461218730552
317,5090.0,1.1687376187277845
318,5110.0,1.1927031155825136
319,5130.0,1.1568376124372426
320,5150.0,1.1177821092919717
321,5170.0,1.043543606146701
322,5190.0,1.0741331030014298
323,5210.0,1.148200599856159
324,5230.0,1.2272120967108884
325,5250.0,1.2735165935656174
326,5270.0,1.1459070904203463
327,5290.0,1.2863475872750756
328,5310.0,1.3557920841298046
329,5330.0,1.2106305809845337
330,5350.0,1.3071990778392628
331,5370.0,1.297657574693992
332,5390.0,1.272159071548721
333,5410.0,1.2546425684034501
334,5430.0,1.2682390652581792
335,5450.0,1.2938015621129084
336,5470.0,1.2722940589676375
337,5490.0,1.2795085558223667
338,5510.0,1.2627900526770959
339,5530.0,1.305105549531825
340,5550.0,1.320294046386554
341,5570.0,1.294012543241283
342,5590.0,1.262131040096012
343,5610.0,1.3004595369507412
344,5630.0,1.2933080338054705
345,5650.0,1.3116965306601995
346,5670.0,1.2822150275149287
347,5690.0,1.3173435243696576
348,5710.0,1.2751020212243869
349,5730.0,1.3700605180791159
350,5750.0,1.3238290149338452
351,5754.399369999999,1.3257666067742342
352,5770.0,1.332991474278031
353,5790.0,1.2856137508704462
354,5810.0,1.3323760274628613
355,5830.0,1.3663583040552765
356,5850.0,1.3253705806476916
357,5870.0,1.3210728572401067
358,5890.0,1.170782133832522
359,5910.0,1.2973174104249372
360,5930.0,1.3089696870173522
361,5950.0,1.3086619636097676
362,5970.0,1.3283042402021825
363,5990.0,1.3080465167945976
364,6010.0,1.292578793387013
365,6030.0,1.324171069979428
366,6050.0,1.3454033465718434
367,6070.0,1.3411156231642585
368,6090.0,1.2977178997566736
369,6110.0,1.3022001763490887
370,6130.0,1.235672452941504
371,6150.0,1.266474729533919
372,6170.0,1.1983520061263342
373,6190.0,1.2674492827187493
374,6210.0,1.2551715593111645
375,6230.0,1.2181608359035796
376,6250.0,1.1851461124959948
377,6270.0,1.23349838908841
378,6290.0,1.254730665680825
379,6310.0,1.2257029422732404
380,6330.0,1.2405452188656554
381,6350.0,1.2418374954580704
382,6370.0,1.2351397720504858
383,6390.0,1.257172048642901
384,6410.0,1.235324325235316
385,6430.0,1.2445866018277314
386,6450.0,1.2354988784201464
387,6470.0,1.2312011550125614
388,6490.0,1.2101514316049768
389,6510.0,1.2497257081973918
390,6530.0,1.248617984789807
391,6550.0,1.2219802613822224
392,6570.0,1.1682215379746372
393,6590.0,1.2277448145670524
394,6606.93448,1.2355874064524885
395,6610.0,1.2370585442394795
396,6630.0,1.2235265099157158
397,6650.0,1.2227544755919522
398,6670.0,1.1956534412681883
399,6690.0,1.2076404069444246
400,6710.0,1.1637913726206608
401,6730.0,1.190942338296897
402,6750.0,1.1718223039731335
403,6770.0,1.1766332696493698
404,6790.0,1.163098235325606
405,6810.0,1.1687062010018423
406,6830.0,1.1822961666780787
407,6850.0,1.1536021323543149
408,6870.0,1.171178098030551
409,6890.0,1.1863570637067875
410,6910.0,1.1839940293830238
411,6930.0,1.17604199505926
412,6950.0,1.1768649607354962
413,6970.0,1.1912519264117327
414,6990.0,1.1864958920879687
415,7010.0,1.1729538577642051
416,7030.0,1.1953158234404413
417,7050.0,1.1985337891166776
418,7070.0,1.161064754792914
419,7090.0,1.12439372046915
420,7110.0,1.0972946861453865
421,7130.0,1.0741866518216228
422,7150.0,1.0694246174978592
423,7170.0,1.0830125831740953
424,7190.0,1.0599025488503315
425,7210.0,1.082265514526568
426,7230.0,1.1062254802028042
427,7250.0,1.1142274458790404
428,7270.0,1.1222304115552768
429,7290.0,1.110291377231513
430,7310.0,1.1406303429077493
431,7330.0,1.1438473085839855
432,7350.0,1.155840274260222
433,7370.0,1.1845912399364584
434,7390.0,1.1654652056126946
435,7410.0,1.1654901712889307
436,7430.0,1.1926451369651672
437,7450.0,1.1902731026414033
438,7470.0,1.2094410683176395
439,7490.0,1.2078790339938759
440,7510.0,1.2190669996701122
441,7530.0,1.2382449653463483
442,7550.0,1.2462529310225847
443,7570.0,1.241490896698821
444,7585.77575,1.2188510907996655
445,7590.0,1.2128388373366032
446,7610.0,1.1907634128798976
447,7630.0,1.1631079884231916
448,7650.0,1.1370405639664858
449,7670.0,1.0830571395097799
450,7690.0,1.1072507150530742
451,7710.0,1.0883662905963682
452,7730.0,1.0910238661396623
453,7750.0,1.0841054416829565
454,7770.0,1.0971310172262507
455,7790.0,1.1045735927695448
456,7810.0,1.104038168312839
457,7830.0,1.095524743856133
458,7850.0,1.0822263193994273
459,7870.0,1.1000398949427215
460,7890.0,1.0875374704860157
461,7910.0,1.0646650460293097
462,7930.0,1.068915621572604
463,7950.0,1.061200197115898
464,7970.0,1.0941707726591923
465,7990.0,1.0944343482024863
466,8010.0,1.1066609237457805
467,8030.0,1.1117124992890748
468,8050.0,1.1127720748323688
469,8070.0,1.128191650375663
470,8090.0,1.1204752259189572
471,8110.0,1.1327048014622514
472,8130.0,1.1656823770055456
473,8150.0,1.1802969525488396
474,8170.0,1.191731528092134
475,8190.0,1.152896103635428
476,8210.0,1.141196679178722
477,8230.0,1.1470452547220162
478,8250.0,1.1449118302653103
479,8270.0,1.1539544058086044
480,8290.0,1.1414499813518988
481,8310.0,1.105811556895193
482,8330.0,1.096500132438487
483,8350.0,1.096761707981781
484,8370.0,1.1018112835250753
485,8390.0,1.0653778590683696
486,8410.0,1.0991454346116636
487,8430.0,1.0475520101549578
488,8450.0,1.023084585698252
489,8470.0,1.023346161241546
490,8490.0,1.0283957367848402
491,8510.0,0.9903643123281345
492,8530.0,1.0257288878714286
493,8550.0,0.9517994634147228
494,8570.0,1.057365038958017
495,8590.0,1.047257614501311
496,8610.0,1.0586891900446052
497,8630.0,1.0773007655878992
498,8650.0,1.0783613411311934
499,8670.0,0.9812949166744876
500,8690.0,1.0557504922177818
501,8709.6359,1.092036236893309
502,8710.0,1.0927124028079676
503,8730.0,1.1019341723579332
504,8750.0,1.0944019419078992
505,8770.0,1.112397711457865
506,8790.0,1.1256084810078306
507,8810.0,1.1053112505577964
508,8830.0,1.1153290201077624
509,8850.0,1.1141797896577281
510,8870.0,1.073141559207694
511,8890.0,1.0855533287576598
512,8910.0,1.0971670983076256
513,8930.0,1.0792638678575914
514,8950.0,1.0821036374075572
515,8970.0,1.085739406957523
516,8990.0,1.087781176507489
517,9010.0,1.0595079460574546
518,9030.0,1.0966507156074206
519,9050.0,1.1282104851573864
520,9070.0,1.1294562547073523
521,9090.0,1.1107500242573178
522,9110.0,1.123958793807284
523,9130.0,1.1419515633572497
524,9150.0,1.1344293329072155
525,9170.0,1.1340771024571812
526,9190.0,1.145684872007147
527,9210.0,1.103052641557113
528,9230.0,1.0739804111070788
529,9250.0,1.0696401806570446
530,9270.0,1.0756709502070103
531,9290.0,1.0593627197569762
532,9310.0,1.065392489306942
533,9330.0,1.0674352588569078
534,9350.0,1.0630920284068737
535,9370.0,1.0459867979568394
536,9390.0,1.0647825675068052
537,9410.0,1.047675337056771
538,9430.0,1.071257106606737
539,9450.0,1.0573418761567028
540,9470.0,1.0809236457066684
541,9490.0,1.0829644152566344
542,9510.0,1.0634661848066003
543,9530.0,1.0702939543565662
544,9550.0,1.053986723906532
545,9570.0,1.0632084934564976
546,9590.0,1.0812032630064634
547,9610.0,1.0664900325564293
548,9630.0,1.073318802106395
549,9650.0,1.053022571656361
550,9670.0,1.0542653412063268
551,9690.0,1.0698681107562926
552,9710.0,1.0527628803062583
553,9730.0,1.0420396498562243
554,9750.0,1.03929441940619
555,9770.0,1.0445271889561558
556,9790.0,1.0298149585061216
557,9810.0,1.0549907280560875
558,9830.0,1.0442674976060533
559,9850.0,1.0518922671560191
560,9870.0,1.0451590367059849
561,9890.0,1.0440098062559509
562,9910.0,1.0316895758059166
563,9930.0,1.0385173453558825
564,9950.0,1.0413571149058483
565,9970.0,1.0418018844558141
566,9990.0,1.0390556540057798
567,10000.0,1.0388795387807628
568,10030.0,1.0385560967963177
569,10070.0,1.0269588408170574
570,10130.0,1.0366809568481672
571,10170.0,1.0250817008689068
572,10220.0,1.0285296308948317
573,10280.0,1.0302777469259414
574,10320.0,1.0194744909466813
575,10380.0,1.012445606977791
576,10430.0,1.0158965370037156
577,10480.0,1.0009964670296403
578,10520.0,0.9893982110503802
579,10580.0,0.9688053270814899
580,10630.0,0.9594912571074146
581,10680.0,0.9517731871333394
582,10720.0,0.9577229311540791
583,10780.0,0.9514930471851889
584,10820.0,0.9382967912059286
585,10870.0,0.9353647212318534
586,10920.0,0.9340266512577782
587,10980.0,0.9214147672888878
588,11020.0,0.9138035113096277
589,11080.0,0.8982366273407373
590,11130.0,0.8952255573666621
591,11170.0,0.8891303013874018
592,11220.0,0.8884312314133267
593,11280.0,0.8774923474444364
594,11330.0,0.8761562774703611
595,11380.0,0.8685972074962858
596,11430.0,0.8594431375222106
597,11470.0,0.8693018815429503
598,11481.5362,0.8686253057222517
599,11530.0,0.8660331330826597
600,11570.0,0.8565543285237172
601,11620.0,0.8438293228250389
602,11670.0,0.8427493171263606
603,11730.0,0.8445661102879467
604,11770.0,0.8257523057290042
605,11830.0,0.8172790988905902
606,11870.0,0.8034132943316477
607,11920.0,0.8139002886329694
608,11980.0,0.7889920817945555
609,12030.0,0.8025930760958773
610,12070.0,0.7967032715369347
611,12120.0,0.7970612658382564
612,12180.0,0.7979200589998425
613,12230.0,0.7930130533011642
614,12270.0,0.7873622487422217
615,12320.0,0.7815782430435434
616,12370.0,0.7794622373448651
617,12430.0,0.7670770305064513
618,12480.0,0.7644040248077729
619,12530.0,0.7575020191090946
620,12580.0,0.7549070134104164
621,12620.0,0.7502152088514739
622,12670.0,0.7438702031527956
623,12720.0,0.7435891974541173
624,12780.0,0.7428529906157034
625,12830.0,0.7215909849170252
626,12880.0,0.7304839792183471
627,12920.0,0.7225211746594044
628,12980.0,0.7284069678209905
629,13020.0,0.7198841632620478
630,13080.0,0.720664956423634
631,13130.0,0.7049869507249558
632,13180.0,0.7030309450262774
633,13182.5674,0.7029960280936617
634,13230.0,0.7025260652609207
635,13280.0,0.6908616645947744
636,13320.0,0.6895865440618573
637,13380.0,0.6823728632624817
638,13430.0,0.6833924625963353
639,13470.0,0.6777313420634183
640,13520.0,0.672369941397272
641,13570.0,0.6637365407311256
642,13630.0,0.66011085993175
643,13670.0,0.6628257393988329
644,13730.0,0.6641470585994573
645,13770.0,0.6623929380665403
646,13820.0,0.6624565374003939
647,13880.0,0.6562778566010183
648,13930.0,0.629217455934872
649,13970.0,0.624991335401955
650,14020.0,0.6193109347358087
651,14080.0,0.623024253936433
652,14120.0,0.616006133403516
653,14180.0,0.6208374526041402
654,14230.0,0.615316051937994
655,14280.0,0.6064436512718476
656,14330.0,0.6151232506057013
657,14380.0,0.6192548499395549
658,14420.0,0.606652729406638
659,14480.0,0.6149940486072624
660,14520.0,0.6107679280743453
661,14570.0,0.6131455274081989
662,14620.0,0.6012411267420525
663,14670.0,0.5976347260759063
664,14720.0,0.5933103254097599
665,14770.0,0.5964049247436136
666,14830.0,0.5990012439442379
