,lambda (Angstroms),Total Flux (erg/s/cm^2/Angstrom)
0,1005.0,0.5505799160419451
1,1015.0,0.5384747211950329
2,1025.0,0.47914422634812054
3,1035.0,0.4945145315012084
4,1045.0,0.550838136654296
5,1055.0,0.5497889418073838
6,1065.0,0.5175167469604716
7,1075.0,0.5310735521135592
8,1085.0,0.49588035726664703
9,1095.0,0.5225791624197348
10,1096.4782,0.5225269531574642
11,1105.0,0.5230430717163138
12,1115.0,0.5139127167195403
13,1125.0,0.5046443617227669
14,1135.0,0.5277120067259935
15,1145.0,0.5075256517292202
16,1155.0,0.5159202967324467
17,1165.0,0.5197259417356732
18,1175.0,0.4804845867388997
19,1185.0,0.4993792317421263
20,1195.0,0.42383847674535285
21,1205.0,0.4049729217485795
22,1215.0,0.37577376675180607
23,1225.0,0.4129305117550326
24,1235.0,0.4796694567582591
25,1245.0,0.5037121017614857
26,1255.0,0.4883917467647123
27,1258.92541,0.4693580794059236
28,1265.0,0.4406588302831121
29,1275.0,0.509545079406408
30,1285.0,0.5241903285297039
31,1295.0,0.4715195776529999
32,1305.0,0.45229882677629585
33,1315.0,0.5014360758995917
34,1325.0,0.49389732502288775
35,1335.0,0.45527557414618364
36,1345.0,0.5029518232694796
37,1355.0,0.49047507239277555
38,1365.0,0.45950232151607145
39,1375.0,0.47484257063936747
40,1385.0,0.47474481976266336
41,1395.0,0.4615740688859593
42,1405.0,0.45987831800925527
43,1415.0,0.44691456713255123
44,1425.0,0.45363281625584717
45,1435.0,0.4412960653791431
46,1442.0,0.4535286397654502
47,1445.43977,0.45815934383213414
48,1447.0,0.4604052502057749
49,1455.0,0.45005802095055303
50,1465.0,0.4300317343815257
51,1475.0,0.4229384478124984
52,1485.0,0.4279451612434711
53,1495.0,0.4323278746744438
54,1505.0,0.42147958810541647
55,1512.0,0.39764888750709737
56,1517.0,0.41166024422258374
57,1525.0,0.39491601496736184
58,1535.0,0.3712737283983345
59,1545.0,0.39561244182930727
60,1555.0,0.37934015526027987
61,1565.0,0.3728038686912526
62,1575.0,0.37899358212222534
63,1585.0,0.387756295553198
64,1595.0,0.39046800898417067
65,1605.0,0.3803867224151434
66,1615.0,0.37899543584611606
67,1625.0,0.36348914927708875
68,1635.0,0.37023486270806144
69,1645.0,0.37120857613903413
70,1655.0,0.3499302895700069
71,1659.58691,0.35678850595537315
72,1665.0,0.36523155732720325
73,1672.0,0.3358708869525764
74,1677.0,0.3611241223992715
75,1685.0,0.37285149911398363
76,1695.0,0.3586159700073738
77,1705.0,0.34750944090076397
78,1715.0,0.33702991179415415
79,1725.0,0.3340593826875443
80,1735.0,0.3425638535809345
81,1745.0,0.3375763244743247
82,1755.0,0.34983779536771487
83,1765.0,0.32739526626110504
84,1775.0,0.3347867371544952
85,1785.0,0.33418120804788537
86,1795.0,0.3460236789412755
87,1805.0,0.3403421498346657
88,1815.0,0.3283316207280559
89,1825.0,0.32661409162144606
90,1835.0,0.31773356251483625
91,1845.0,0.30370603340822644
92,1855.0,0.3025445043016166
93,1865.0,0.3054159751950068
94,1875.0,0.315450446088397
95,1885.0,0.30371791698178713
96,1895.0,0.2987313878751773
97,1905.0,0.3005598587685675
98,1905.46072,0.30036536447956774
99,1915.0,0.29672306856556396
100,1925.0,0.2942258601536043
101,1935.0,0.2927026517416447
102,1945.0,0.2986204433296851
103,1955.0,0.2906292349177255
104,1967.0,0.301541784823374
105,1976.0,0.30277119725261037
106,1984.0,0.2942362305230426
107,1995.0,0.2877344012698871
108,2005.0,0.2883661928579274
109,2015.0,0.2805849844459679
110,2025.0,0.28504177603400827
111,2035.0,0.27913656762204864
112,2045.0,0.284150359210089
113,2055.0,0.27581115079812946
114,2065.0,0.2740099423861698
115,2074.0,0.2823333548154061
116,2078.0,0.2823078714506223
117,2085.0,0.2861925255622506
118,2095.0,0.276602317150291
119,2105.0,0.27313110873833135
120,2115.0,0.2740429003263718
121,2125.0,0.27349269191441217
122,2135.0,0.2586874835024526
123,2145.0,0.2670372750904929
124,2155.0,0.26940906667853337
125,2165.0,0.2605838582665737
126,2175.0,0.25773864985461414
127,2185.0,0.25816244144265454
128,2187.7616199999998,0.2594893422971908
129,2195.0,0.26322622564924947
130,2205.0,0.25698382190981967
131,2215.0,0.24552641817038987
132,2225.0,0.24248401443096002
133,2235.0,0.25605961069153016
134,2245.0,0.24641020695210034
135,2255.0,0.2365518032126705
136,2265.0,0.2370563994732407
137,2275.0,0.24131399573381085
138,2285.0,0.248771591994381
139,2295.0,0.2390531882549512
140,2305.0,0.23927878451552134
141,2315.0,0.23025338077609153
142,2325.0,0.2039145770366617
143,2335.0,0.21665727329723183
144,2345.0,0.20812006955780202
145,2355.0,0.2234357658183722
146,2365.0,0.20641476207894235
147,2375.0,0.21192495833951253
148,2385.0,0.1985202546000827
149,2395.0,0.20674265086065285
150,2405.0,0.20189134712122303
151,2415.0,0.2047589433817932
152,2425.0,0.21784893964236335
153,2435.0,0.21341503590293354
154,2445.0,0.2224031321635037
155,2455.0,0.2207507284240739
156,2465.0,0.21582932468464405
157,2475.0,0.20854392094521418
158,2485.0,0.20410991720578436
159,2495.0,0.20273561346635455
160,2505.0,0.21819070972692473
161,2511.88643,0.19827995487671748
162,2513.0,0.19508153136348505
163,2518.0,0.19452441922276872
164,2525.0,0.19017028222576587
165,2535.0,0.1967059579443332
166,2545.0,0.19545273366290056
167,2555.0,0.2158262093814679
168,2565.0,0.2042818851000353
169,2575.0,0.21652096081860264
170,2585.0,0.21102433653717
171,2595.0,0.20636471225573735
172,2605.0,0.1989221879743047
173,2615.0,0.19509606369287208
174,2625.0,0.2060128394114394
175,2635.0,0.22854321513000675
176,2645.0,0.2523245908485741
177,2655.0,0.28236396656714147
178,2665.0,0.23549234228570884
179,2675.0,0.2470357180042762
180,2685.0,0.25753509372284356
181,2695.0,0.2300644694414109
182,2705.0,0.24696084515997824
183,2715.0,0.2211602208785456
184,2725.0,0.20836459659711293
185,2735.0,0.2237999723156803
186,2745.0,0.19055904803424767
187,2755.0,0.20168372375281501
188,2765.0,0.21635609947138235
189,2775.0,0.22289147518994973
190,2785.0,0.19667285090851708
191,2795.0,0.16208242662708444
192,2805.0,0.16968900234565182
193,2815.0,0.21322097806421914
194,2825.0,0.2376983537827865
195,2835.0,0.22816972950135384
196,2845.0,0.2049411052199212
197,2855.0,0.18414688093848858
198,2865.0,0.2260788566570559
199,2875.0,0.2526422323756233
200,2884.0315,0.24529273700584736
201,2885.0,0.24452047285850287
202,2895.0,0.2659626561590242
203,2910.0,0.3139819311098062
204,2930.0,0.2888532977108489
205,2950.0,0.2749926643118915
206,2970.0,0.2794210309129342
207,2990.0,0.28071939751397684
208,3010.0,0.2791657641150195
209,3030.0,0.2891571307160622
210,3050.0,0.2935154973171048
211,3070.0,0.30997386391814746
212,3090.0,0.30418023051919013
213,3110.0,0.33301759712023277
214,3130.0,0.31505296372127545
215,3150.0,0.31655933032231814
216,3170.0,0.33440869692336084
217,3190.0,0.30253706352440346
218,3210.0,0.3208724301254461
219,3230.0,0.28830479672648873
220,3250.0,0.3579611633275314
221,3270.0,0.39841252992857407
222,3290.0,0.3927568965296167
223,3310.0,0.3715942631306594
224,3311.31121,0.372080614954207
225,3330.0,0.3792273069989294
226,3350.0,0.3681684126758859
227,3370.0,0.3016855183528424
228,3390.0,0.32630062402979887
229,3410.0,0.33144572970675534
230,3430.0,0.3427098353837118
231,3450.0,0.35299994106066823
232,3470.0,0.36099604673762475
233,3490.0,0.3943051524145812
234,3510.0,0.4149562580915377
235,3530.0,0.3800453637684941
236,3550.0,0.42371646944545066
237,3570.0,0.3157185751224071
238,3590.0,0.3199576807993636
239,3610.0,0.38010878647632007
240,3630.0,0.39742389215327656
241,3640.0,0.4109129449917548
242,3650.0,0.455069997830233
243,3670.0,0.47892210350718945
244,3690.0,0.4319102091841459
245,3710.0,0.4522143148611024
246,3730.0,0.3311424205380589
247,3750.0,0.3749515262150154
248,3770.0,0.4586776318919718
249,3790.0,0.4805807375689283
250,3801.8939600000003,0.47164724705880273
251,3810.0,0.4656244235303059
252,3830.0,0.3089003351801447
253,3850.0,0.3989072468299835
254,3870.0,0.40581315847982224
255,3890.0,0.43378907012966106
256,3910.0,0.5426419817794998
257,3930.0,0.3286158934293386
258,3950.0,0.4793328050791774
259,3970.0,0.33755971672901625
260,3990.0,0.656009628378855
261,4010.0,0.7204955400286938
262,4030.0,0.7105714516785325
263,4050.0,0.6845833633283714
264,4070.0,0.6453842749782102
265,4090.0,0.756602186628049
266,4110.0,0.6993910982778878
267,4130.0,0.7077570099277265
268,4150.0,0.6974159215775653
269,4170.0,0.7062688332274041
270,4190.0,0.6927987448772429
271,4210.0,0.6992176565270818
272,4230.0,0.6630085681769204
273,4250.0,0.7051034798267592
274,4270.0,0.6654843914765981
275,4290.0,0.6305263031264369
276,4310.0,0.5585732147762756
277,4330.0,0.7490671264261145
278,4350.0,0.7406740380759532
279,4365.15832,0.8038856813459505
280,4370.0,0.824104275986786
281,4390.0,0.7362701976868304
282,4410.0,0.7741701193868747
283,4430.0,0.8281330410869192
284,4450.0,0.8361979627869636
285,4470.0,0.890160884487008
286,4490.0,0.9100508061870525
287,4510.0,1.032857727887097
288,4530.0,0.9011456495871413
289,4550.0,0.9425915712871857
290,4570.0,1.01602549298723
291,4590.0,0.9622014146872745
292,4610.0,0.9848703363873188
293,4630.0,0.9609472580873633
294,4650.0,0.9724901797874077
295,4670.0,1.0153251014874523
296,4690.0,0.9983570231874965
297,4710.0,0.9646989448875409
298,4730.0,0.9971028665875853
299,4750.0,1.0274217882876298
300,4770.0,1.0104547099876742
301,4790.0,1.0136506316877187
302,4810.0,1.013371553387763
303,4830.0,1.0464774750878074
304,4850.0,0.9815213967878518
305,4870.0,0.8957073184878962
306,4890.0,1.0059972401879407
307,4910.0,1.007804161887985
308,4930.0,0.9852740835880294
309,4950.0,1.0274130052880739
310,4970.0,1.0041859269881181
311,4990.0,0.9336698486881626
312,5010.0,0.8791497703882071
313,5011.87234,0.8845271235379998
314,5030.0,0.9366638418642496
315,5050.0,0.9309035720006813
316,5070.0,0.9710403021371131
317,5090.0,0.9152090322735448
318,5110.0,0.9407417624099765
319,5130.0,0.9050794925464083
320,5150.0,0.86732922268284
321,5170.0,0.7948119528192717
322,5190.0,0.8252106829557034
323,5210.0,0.9001174130921352
324,5230.0,0.977111143228567
325,5250.0,1.0242008733649988
326,5270.0,0.8974406035014305
327,5290.0,1.0384063336378624
328,5310.0,1.1070590637742939
329,5330.0,0.9643027939107256
330,5350.0,1.0621545240471575
331,5370.0,1.0536172541835893
332,5390.0,1.029076984320021
333,5410.0,1.0121917144564525
334,5430.0,1.0272934445928843
335,5450.0,1.0556081747293162
336,5470.0,1.0338559048657479
337,5490.0,1.0420036350021795
338,5510.0,1.0265043651386114
339,5530.0,1.068029095275043
340,5550.0,1.0838218254114749
341,5570.0,1.0592945555479065
342,5590.0,1.0298932856843384
343,5610.0,1.0693300158207701
344,5630.0,1.0621727459572017
345,5650.0,1.0807554760936335
346,5670.0,1.0520482062300653
347,5690.0,1.0880109363664972
348,5710.0,1.0481736665029286
349,5730.0,1.1425563966393606
350,5750.0,1.0971491267757925
351,5754.399369999999,1.0995539830248076
352,5770.0,1.1081265741657338
353,5790.0,1.0606966317992086
354,5810.0,1.1085366894326836
355,5830.0,1.1431767470661585
356,5850.0,1.1033968046996332
357,5870.0,1.100476862333108
358,5890.0,0.9619499199665831
359,5910.0,1.079326977600058
360,5930.0,1.0896270352335329
361,5950.0,1.0894870928670077
362,5970.0,1.1102071505004827
363,5990.0,1.0905972081339574
364,6010.0,1.0758472657674323
365,6030.0,1.1069973234009072
366,6050.0,1.1284273810343821
367,6070.0,1.1255074386678572
368,6090.0,1.082247496301332
369,6110.0,1.0876675539348069
370,6130.0,1.0228546115682817
371,6150.0,1.0540076692017566
372,6170.0,0.9891977268352314
373,6190.0,1.057897784468706
374,6210.0,1.0466378421021814
375,6230.0,1.0110298997356562
376,6250.0,0.9782049573691309
377,6270.0,1.0267480150026058
378,6290.0,1.0481580726360806
379,6310.0,1.0195111302695556
380,6330.0,1.0353681879030303
381,6350.0,1.0373082455365052
382,6370.0,1.0315983031699802
383,6390.0,1.0537183608034553
384,6410.0,1.03271841843693
385,6430.0,1.0430084760704048
386,6450.0,1.0345285337038796
387,6470.0,1.0322985913373546
388,6490.0,1.0112966489708295
389,6510.0,1.0507987066043043
390,6530.0,1.0499587642377795
391,6550.0,1.0227048218712542
392,6570.0,0.968316879504729
393,6590.0,1.032148937138204
394,6606.93448,1.0402775363378503
395,6610.0,1.0417554950096737
396,6630.0,1.0298279613568084
397,6650.0,1.0290404277039433
398,6670.0,1.0025218940510778
399,6690.0,1.0163343603982127
400,6710.0,0.9731198267453472
401,6730.0,1.0008382930924822
402,6750.0,0.9819647594396168
403,6770.0,0.9874312257867516
404,6790.0,0.9741206921338862
405,6810.0,0.980977158481021
406,6830.0,0.9940916248281557
407,6850.0,0.9661790911752904
408,6870.0,0.9841625575224251
409,6890.0,0.9993620238695599
410,6910.0,0.9978744902166946
411,6930.0,0.9894319565638293
412,6950.0,0.9907254229109641
413,6970.0,1.0052298892580989
414,6990.0,1.0009613556052335
415,7010.0,0.9876528219523683
416,7030.0,1.010502288299503
417,7050.0,1.0145787546466378
418,7070.0,0.9783182209937724
419,7090.0,0.9434516873409072
420,7110.0,0.9176221536880419
421,7130.0,0.8959666200351766
422,7150.0,0.8923930863823113
423,7170.0,0.905507552729446
424,7190.0,0.8831590190765809
425,7210.0,0.9053124854237155
426,7230.0,0.9295539517708502
427,7250.0,0.9371084181179851
428,7270.0,0.9453528844651198
429,7290.0,0.9334353508122544
430,7310.0,0.9639358171593891
431,7330.0,0.9680112835065239
432,7350.0,0.9804287498536587
433,7370.0,1.0088442162007933
434,7390.0,0.989274682547928
435,7410.0,0.9905691488950629
436,7430.0,1.0182926152421976
437,7450.0,1.0167960815893322
438,7470.0,1.0368615479364671
439,7490.0,1.0353740142836019
440,7510.0,1.0471064806307364
441,7530.0,1.0671689469778711
442,7550.0,1.075421413325006
443,7570.0,1.0711438796721406
444,7585.77575,1.0502271805959316
445,7590.0,1.0446326595216695
446,7610.0,1.02161501757689
447,7630.0,0.9944293756321104
448,7650.0,0.9693267336873308
449,7670.0,0.9171040917425514
450,7690.0,0.9413774497977718
451,7710.0,0.9225318078529923
452,7730.0,0.9252451659082128
453,7750.0,0.9189185239634332
454,7770.0,0.9313698820186537
455,7790.0,0.9403432400738743
456,7810.0,0.9395785981290946
457,7830.0,0.9318609561843152
458,7850.0,0.9185803142395356
459,7870.0,0.935899672294756
460,7890.0,0.9240090303499766
461,7910.0,0.901687388405197
462,7930.0,0.9064887464604175
463,7950.0,0.900163104515638
464,7970.0,0.9320854625708584
465,7990.0,0.9334068206260789
466,8010.0,0.9451601786812993
467,8030.0,0.9499615367365198
468,8050.0,0.9512838947917404
469,8070.0,0.9672112528469607
470,8090.0,0.9601906109021813
471,8110.0,0.9726389689574018
472,8130.0,1.0052563270126222
473,8150.0,1.0197886850678428
474,8170.0,1.0315410431230632
475,8190.0,0.9960124011782836
476,8210.0,0.9820367592335042
477,8230.0,0.9882271172887246
478,8250.0,0.9860734753439451
479,8270.0,0.9957418333991654
480,8290.0,0.983852191454386
481,8310.0,0.9483175495096066
482,8330.0,0.940601907564827
483,8350.0,0.9398392656200475
484,8370.0,0.946028623675268
485,8390.0,0.9111929817304883
486,8410.0,0.9438073397857089
487,8430.0,0.8936716978409293
488,8450.0,0.8699590558961499
489,8470.0,0.8712824139513703
490,8490.0,0.8774737720065907
491,8510.0,0.8405491300618112
492,8530.0,0.8773384881170316
493,8550.0,0.8125978461722522
494,8570.0,0.9071072042274727
495,8590.0,0.8973025622826931
496,8610.0,0.9090579203379135
497,8630.0,0.9291552783931342
498,8650.0,0.9311746364483545
499,8670.0,0.8427899945035751
500,8690.0,0.9101783525587954
501,8709.6359,0.9456146310306194
502,8710.0,0.9462721319415344
503,8730.0,0.9552666335023009
504,8750.0,0.9468761350630673
505,8770.0,0.9656086366238338
506,8790.0,0.9794731381846002
507,8810.0,0.9606526397453667
508,8830.0,0.9710381413061331
509,8850.0,0.9682136428668997
510,8870.0,0.9271391444276661
511,8890.0,0.9396106459884325
512,8910.0,0.9520851475491989
513,8930.0,0.9346556491099653
514,8950.0,0.9373941506707318
515,8970.0,0.9422146522314983
516,8990.0,0.9435621537922648
517,9010.0,0.9150046553530312
518,9030.0,0.9525141569137977
519,9050.0,0.9851536584745642
520,9070.0,0.9871941600353307
521,9090.0,0.969069661596097
522,9110.0,0.9822381631568635
523,9130.0,1.00027466471763
524,9150.0,0.9932751662783963
525,9170.0,0.9925366678391628
526,9190.0,1.0036171693999294
527,9210.0,0.9618496709606957
528,9230.0,0.9332931725214622
529,9250.0,0.9297706740822287
530,9270.0,0.9359861756429951
531,9290.0,0.9213366772037616
532,9310.0,0.927550178764528
533,9330.0,0.9302896803252946
534,9350.0,0.926071181886061
535,9370.0,0.9093376834468274
536,9390.0,0.9280701850075939
537,9410.0,0.9106386865683602
538,9430.0,0.9356301881291268
539,9450.0,0.9216766896898931
540,9470.0,0.9452741912506597
541,9490.0,0.947316692811426
542,9510.0,0.9284981943721926
543,9530.0,0.935407695932959
544,9550.0,0.9186721974937255
545,9570.0,0.9290586990544919
546,9590.0,0.9477912006152585
547,9610.0,0.9338387021760248
548,9630.0,0.9407462037367913
549,9650.0,0.9212317052975577
550,9670.0,0.9225772068583241
551,9690.0,0.9385277084190906
552,9710.0,0.921792209979857
553,9730.0,0.9120127115406236
554,9750.0,0.9091862131013899
555,9770.0,0.9147067146621565
556,9790.0,0.9000592162229228
557,9810.0,0.9250477177836894
558,9830.0,0.9145732193444558
559,9850.0,0.9221767209052223
560,9870.0,0.9158742224659887
561,9890.0,0.9144397240267552
562,9910.0,0.9039642255875217
563,9930.0,0.910872727148288
564,9950.0,0.9136102287090545
565,9970.0,0.9142617302698209
566,9990.0,0.9114342318305875
567,10000.0,0.9112382326109707
568,10030.0,0.9106761211139337
569,10070.0,0.8994966391178844
570,10130.0,0.9098449161238104
571,10170.0,0.899360434127761
572,10220.0,0.9020713316326995
573,10280.0,0.9040776086386254
574,10320.0,0.8935911266425761
575,10380.0,0.886554403648502
576,10430.0,0.8906593011534404
577,10480.0,0.8766831986583788
578,10520.0,0.8675887166623295
579,10580.0,0.8487309936682554
580,10630.0,0.8403178911731939
581,10680.0,0.8325997886781321
582,10720.0,0.8381083066820828
583,10780.0,0.8317695836880089
584,10820.0,0.8191961016919594
585,10870.0,0.8163469991968979
586,10920.0,0.8148888967018363
587,10980.0,0.8036791737077622
588,11020.0,0.7973676917117128
589,11080.0,0.7833759687176389
590,11130.0,0.7805268662225773
591,11170.0,0.774908384226528
592,11220.0,0.7748402817314664
593,11280.0,0.7643285587373922
594,11330.0,0.7628684562423307
595,11380.0,0.7565423537472691
596,11430.0,0.7481292512522073
597,11470.0,0.757811769256158
598,11481.5362,0.7571275335860873
599,11530.0,0.7542846467092587
600,11570.0,0.7459112464048426
601,11620.0,0.7333567460243227
602,11670.0,0.7326262456438027
603,11730.0,0.734670645187179
604,11770.0,0.717257244882763
605,11830.0,0.7095646444261391
606,11870.0,0.6968102441217231
607,11920.0,0.7069977437412033
608,11980.0,0.6833811432845793
609,12030.0,0.6962096429040594
610,12070.0,0.6904092425996434
611,12120.0,0.6908617422191236
612,12180.0,0.6918621417624997
613,12230.0,0.6871666413819798
614,12270.0,0.6818542410775639
615,12320.0,0.6763927406970439
616,12370.0,0.674549240316524
617,12430.0,0.6633106398599001
618,12480.0,0.6610511394793802
619,12530.0,0.6544096390988603
620,12580.0,0.6520781387183404
621,12620.0,0.6478077384139244
622,12670.0,0.6417212380334045
623,12720.0,0.6416167376528846
624,12780.0,0.6411571371962608
625,12830.0,0.6201896368157408
626,12880.0,0.629403136435221
627,12920.0,0.621934736130805
628,12980.0,0.6277321356741811
629,13020.0,0.6194987353697651
630,13080.0,0.6207081349131413
631,13130.0,0.6060696345326213
632,13180.0,0.6043641341521014
633,13182.5674,0.6043373048025624
634,13230.0,0.6038637580107021
635,13280.0,0.592725579395298
636,13320.0,0.5916028365029747
637,13380.0,0.5846352221644897
638,13430.0,0.5861520435490857
639,13470.0,0.5807873006567623
640,13520.0,0.5757001220413581
641,13570.0,0.5676199434259541
642,13630.0,0.5642673290874691
643,13670.0,0.5669005861951458
644,13730.0,0.5679979718566609
645,13770.0,0.5663892289643376
646,13820.0,0.5666550503489335
647,13880.0,0.5608684360104486
648,13930.0,0.5345702573950444
649,13970.0,0.5305275145027212
650,14020.0,0.525229335887317
651,14080.0,0.528969721548832
652,14120.0,0.5220069786565087
653,14180.0,0.5269293643180238
654,14230.0,0.5218401857026198
655,14280.0,0.5132050070872156
656,14330.0,0.5215378284718115
657,14380.0,0.5259066498564073
658,14420.0,0.5135189069640841
659,14480.0,0.5217092926255992
