,lambda (Angstroms),Total Flux (erg/s/cm^2/Angstrom)
0,1005.0,0.1252053077202242
1,1015.0,0.11838877441421804
2,1025.0,0.0643469411082119
3,1035.0,0.08500590780220575
4,1045.0,0.14661817449619957
5,1055.0,0.15085764119019346
6,1065.0,0.1238741078841873
7,1075.0,0.14271957457818116
8,1085.0,0.11281504127217502
9,1095.0,0.14480250796616886
10,1096.4782,0.14553206865287505
11,1105.0,0.14973519172643632
12,1115.0,0.14493139275622022
13,1125.0,0.13998959378600415
14,1135.0,0.16738379481578805
15,1145.0,0.151523995845572
16,1155.0,0.1642451968753559
17,1165.0,0.17237739790513984
18,1175.0,0.13746259893492377
19,1185.0,0.1606837999647077
20,1195.0,0.0894696009944916
21,1205.0,0.07493060202427552
22,1215.0,0.05005800305405944
23,1225.0,0.09154130408384337
24,1235.0,0.1626068051136273
25,1245.0,0.1909760061434112
26,1255.0,0.17998220717319513
27,1258.92541,0.1626468904436273
28,1265.0,0.1358235307353092
29,1275.0,0.20779787208292552
30,1285.0,0.22553121343054186
31,1295.0,0.17594855477815818
32,1305.0,0.15981589612577451
33,1315.0,0.21204123747339082
34,1325.0,0.20759057882100715
35,1335.0,0.17205692016862348
36,1345.0,0.2228212615162398
37,1355.0,0.21343260286385612
38,1365.0,0.18554794421147244
39,1375.0,0.20397628555908878
40,1385.0,0.2069666269067051
41,1395.0,0.1968839682543214
42,1405.0,0.19827630960193773
43,1415.0,0.18840065094955405
44,1425.0,0.1982069922971704
45,1435.0,0.1889583336447867
46,1442.0,0.20335257258811812
47,1445.43977,0.20904550935384708
48,1447.0,0.21162773470280632
49,1455.0,0.20300496389444694
50,1465.0,0.18513425038399772
51,1475.0,0.18019653687354847
52,1485.0,0.18735882336309925
53,1495.0,0.19389710985265002
54,1505.0,0.18520439634220076
55,1512.0,0.16288259688488632
56,1517.0,0.17797174012966172
57,1525.0,0.16295196932130232
58,1535.0,0.1414652558108531
59,1545.0,0.16795954230040386
60,1555.0,0.15384282878995462
61,1565.0,0.1494621152795054
62,1575.0,0.15780740176905617
63,1585.0,0.16872568825860693
64,1595.0,0.1735929747481577
65,1605.0,0.16566726123770845
66,1615.0,0.16643154772725924
67,1625.0,0.15308083421681
68,1635.0,0.16198212070636075
69,1645.0,0.16511140719591152
70,1655.0,0.14598869368546233
71,1659.58691,0.15383565203264082
72,1665.0,0.16309695761126136
73,1672.0,0.134794422136947
74,1677.0,0.16080346822672248
75,1685.0,0.1737401419703632
76,1695.0,0.16101623414991412
77,1705.0,0.15142132632946503
78,1715.0,0.14245341850901594
79,1725.0,0.1409945106885669
80,1735.0,0.1510106028681178
81,1745.0,0.1475346950476687
82,1755.0,0.1613077872272196
83,1765.0,0.14037687940677057
84,1775.0,0.14927997158632147
85,1785.0,0.15018606376587237
86,1795.0,0.16354015594542332
87,1805.0,0.15937024812497422
88,1815.0,0.14887134030452515
89,1825.0,0.14866543248407604
90,1835.0,0.141296524663627
91,1845.0,0.1287806168431779
92,1855.0,0.1291307090227288
93,1865.0,0.13351380120227976
94,1875.0,0.14505989338183067
95,1885.0,0.13483898556138157
96,1895.0,0.1313640777409325
97,1905.0,0.13470416992048342
98,1905.46072,0.1345793190473797
99,1915.0,0.13198969371759867
100,1925.0,0.13059599687487988
101,1935.0,0.1301763000321611
102,1945.0,0.13719760318944235
103,1955.0,0.13030990634672357
104,1967.0,0.14254667013546105
105,1976.0,0.14476924297701416
106,1984.0,0.1371170855028391
107,1995.0,0.13182911897584848
108,2005.0,0.1335644221331297
109,2015.0,0.12688672529041095
110,2025.0,0.13244702844769216
111,2035.0,0.12764533160497338
112,2045.0,0.1337626347622546
113,2055.0,0.12652693791953584
114,2065.0,0.12582924107681706
115,2074.0,0.13514581391837016
116,2078.0,0.13556173518128264
117,2085.0,0.14021884739137952
118,2095.0,0.13173215054866075
119,2105.0,0.12936445370594196
120,2115.0,0.1313797568632232
121,2125.0,0.13193306002050442
122,2135.0,0.11823136317778565
123,2145.0,0.1276846663350669
124,2155.0,0.1311599694923481
125,2165.0,0.12343827264962934
126,2175.0,0.12169657580691057
127,2185.0,0.12322387896419179
128,2187.7616199999998,0.12485552778071275
129,2195.0,0.12913569057529295
130,2205.0,0.12364384074781783
131,2215.0,0.1129369909203427
132,2225.0,0.11064514109286759
133,2235.0,0.12497129126539247
134,2245.0,0.11607244143791734
135,2255.0,0.10696459161044222
136,2265.0,0.10821974178296709
137,2275.0,0.11322789195549197
138,2285.0,0.12143604212801684
139,2295.0,0.11246819230054173
140,2305.0,0.1134443424730666
141,2315.0,0.10516949264559149
142,2325.0,0.07958124281811636
143,2335.0,0.09307449299064123
144,2345.0,0.08528784316316611
145,2355.0,0.10135409333569098
146,2365.0,0.08508364350821586
147,2375.0,0.09134439368074074
148,2385.0,0.07869024385326562
149,2395.0,0.08766319402579051
150,2405.0,0.08356244419831538
151,2415.0,0.08718059437084026
152,2425.0,0.10102114454336512
153,2435.0,0.09733779471589
154,2445.0,0.10707644488841488
155,2455.0,0.10617459506093976
156,2465.0,0.10200374523346463
157,2475.0,0.09546889540598952
158,2485.0,0.0917854455785144
159,2495.0,0.09116169575103927
160,2505.0,0.10736734592356414
161,2511.88643,0.08797345477094716
162,2513.0,0.08483703395649145
163,2518.0,0.08455831786980285
164,2525.0,0.08059393534843881
165,2535.0,0.08768640317506164
166,2545.0,0.08698997100168447
167,2555.0,0.10792023882830729
168,2565.0,0.09693270665493012
169,2575.0,0.10972857448155293
170,2585.0,0.10478874230817575
171,2595.0,0.10068591013479858
172,2605.0,0.09380017796142139
173,2615.0,0.09053084578804421
174,2625.0,0.10200441361466704
175,2635.0,0.12509158144128985
176,2645.0,0.1494297492679127
177,2655.0,0.1800259170945355
178,2665.0,0.13371108492115832
179,2675.0,0.14581125274778114
180,2685.0,0.15686742057440398
181,2695.0,0.12995358840102678
182,2705.0,0.1474067562276496
183,2715.0,0.12216292405427244
184,2725.0,0.10992409188089526
185,2735.0,0.12591625970751807
186,2745.0,0.0932321275341409
187,2755.0,0.10491359536076372
188,2765.0,0.12014276318738654
189,2775.0,0.12723493101400937
190,2785.0,0.10157309884063218
191,2795.0,0.06753946666725501
192,2805.0,0.07570283449387784
193,2815.0,0.11979160232050065
194,2825.0,0.14482577014712347
195,2835.0,0.13585393797374629
196,2845.0,0.11318210580036911
197,2855.0,0.09294467362699194
198,2865.0,0.13543344145361474
199,2875.0,0.16255360928023757
200,2884.0315,0.15570698070285194
201,2885.0,0.15497285605343683
202,2895.0,0.17680883902282118
203,2910.0,0.22541881347689763
204,2930.0,0.20107777941566624
205,2950.0,0.18800474535443484
206,2970.0,0.19322071129320345
207,2990.0,0.19530667723197206
208,3010.0,0.19454064317074068
209,3030.0,0.20531960910950928
210,3050.0,0.2104655750482779
211,3070.0,0.2277115409870465
212,3090.0,0.22270550692581512
213,3110.0,0.2523304728645837
214,3130.0,0.23515343880335232
215,3150.0,0.23744740474212095
216,3170.0,0.2560843706808896
217,3190.0,0.22500033661965815
218,3210.0,0.24412330255842676
219,3230.0,0.21234326849719537
220,3250.0,0.282787234435964
221,3270.0,0.32402620037473256
222,3290.0,0.3191581663135012
223,3310.0,0.2987831322522698
224,3311.31121,0.2993211194821984
225,3330.0,0.30698852158738643
226,3350.0,0.29648687046785216
227,3370.0,0.23056121934831791
228,3390.0,0.2557335682287836
229,3410.0,0.2614359171092494
230,3430.0,0.2732572659897151
231,3450.0,0.28410461487018085
232,3470.0,0.29265796375064657
233,3490.0,0.3265243126311123
234,3510.0,0.34773266151157806
235,3530.0,0.3133790103920438
236,3550.0,0.35760735927250953
237,3570.0,0.25016670815297526
238,3590.0,0.254963057033441
239,3610.0,0.3156714059139067
240,3630.0,0.3335437547943725
241,3640.0,0.34731142923460534
242,3650.0,0.39174710367483817
243,3670.0,0.4161564525553039
244,3690.0,0.36970180143576964
245,3710.0,0.39056315031623545
246,3730.0,0.27004849919670115
247,3750.0,0.3144148480771669
248,3770.0,0.3986981969576326
249,3790.0,0.42115854583809836
250,3801.8939600000003,0.41255644674661335
251,3810.0,0.406693949705282
252,3830.0,0.25036543425425634
253,3850.0,0.3407679188032307
254,3870.0,0.34806940335220504
255,3890.0,0.3764408879011794
256,3910.0,0.4856893724501538
257,3930.0,0.27205885699912813
258,3950.0,0.4231713415481025
259,3970.0,0.28179382609707687
260,3990.0,0.6006393106460511
261,4010.0,0.6655207951950255
262,4030.0,0.6559922797439999
263,4050.0,0.6303997642929743
264,4070.0,0.5915962488419486
265,4090.0,0.703209733390923
266,4110.0,0.6463942179398974
267,4130.0,0.6551557024888717
268,4150.0,0.6452101870378462
269,4170.0,0.6544586715868205
270,4190.0,0.6413841561357949
271,4210.0,0.6481986406847693
272,4230.0,0.6123851252337436
273,4250.0,0.654875609782718
274,4270.0,0.6156520943316923
275,4290.0,0.5810895788806667
276,4310.0,0.5095320634296411
277,4330.0,0.7004215479786154
278,4350.0,0.6924240325275898
279,4365.15832,0.7559354868270083
280,4370.0,0.7762217132321378
281,4390.0,0.6886670080600801
282,4410.0,0.7268463028880224
283,4430.0,0.7810885977159648
284,4450.0,0.7894328925439072
285,4470.0,0.8436751873718495
286,4490.0,0.8638444821997919
287,4510.0,0.9869307770277344
288,4530.0,0.8554980718556767
289,4550.0,0.8972233666836191
290,4570.0,0.9709366615115614
291,4590.0,0.9173919563395038
292,4610.0,0.9403402511674461
293,4630.0,0.9166965459953885
294,4650.0,0.9285188408233308
295,4670.0,0.9716331356512733
296,4690.0,0.9549444304792156
297,4710.0,0.9215657253071581
298,4730.0,0.9542490201351003
299,4750.0,0.9848473149630427
300,4770.0,0.9681596097909851
301,4790.0,0.9716349046189275
302,4810.0,0.9716351994468698
303,4830.0,1.0050204942748122
304,4850.0,0.9403437891027545
305,4870.0,0.854809083930697
306,4890.0,0.9653783787586392
307,4910.0,0.9674646735865816
308,4930.0,0.945213968414524
309,4950.0,0.9876322632424664
310,4970.0,0.9646845580704086
311,4990.0,0.894447852898351
312,5010.0,0.8402071477262935
313,5011.87234,0.8456106549502006
314,5030.0,0.8979264962532405
315,5050.0,0.8923638503265621
316,5070.0,0.9326982043998839
317,5090.0,0.8770645584732055
318,5110.0,0.9027949125465272
319,5130.0,0.8673302666198489
320,5150.0,0.8297776206931705
321,5170.0,0.7574579747664922
322,5190.0,0.788054328839814
323,5210.0,0.8631586829131357
324,5230.0,0.9403500369864572
325,5250.0,0.987637391059779
326,5270.0,0.8610747451331007
327,5290.0,1.0022380992064224
328,5310.0,1.071088453279744
329,5330.0,0.9285298073530657
330,5350.0,1.0265791614263875
331,5370.0,1.018239515499709
332,5390.0,0.9938968695730307
333,5410.0,0.9772092236463523
334,5430.0,0.992508577719674
335,5450.0,1.021020931792996
336,5470.0,0.9994662858663175
337,5490.0,1.007811639939639
338,5510.0,0.9925099940129608
339,5530.0,1.0342323480862825
340,5550.0,1.0502227021596042
341,5570.0,1.0258930562329258
342,5590.0,0.9966894103062476
343,5610.0,1.036323764379569
344,5630.0,1.0293641184528908
345,5650.0,1.0481444725262126
346,5670.0,1.0196348265995343
347,5690.0,1.055795180672856
348,5710.0,1.0161555347461775
349,5730.0,1.1107358888194994
350,5750.0,1.065526242892821
351,5754.399369999999,1.067974570182798
352,5770.0,1.0766570242193056
353,5790.0,1.0293679260309727
354,5810.0,1.0773488278426397
355,5830.0,1.112129729654307
356,5850.0,1.0724906314659737
357,5870.0,1.0697115332776406
358,5890.0,0.9313254350893078
359,5910.0,1.0488433369009746
360,5930.0,1.0592842387126418
361,5950.0,1.0592851405243087
362,5970.0,1.0801460423359759
363,5990.0,1.0606769441476427
364,6010.0,1.0460678459593098
365,6030.0,1.0773587477709767
366,6050.0,1.0989296495826437
367,6070.0,1.0961505513943108
368,6090.0,1.053031453205978
369,6110.0,1.0585923550176448
370,6130.0,0.9939202568293117
371,6150.0,1.0252141586409789
372,6170.0,0.9605450604526458
373,6190.0,1.0293859622643127
374,6210.0,1.0182668640759798
375,6230.0,0.9827997658876467
376,6250.0,0.9501156676993137
377,6270.0,0.9987995695109807
378,6290.0,1.0203504713226477
379,6310.0,0.9918443731343147
380,6330.0,1.0078422749459817
381,6350.0,1.0099231767576486
382,6370.0,1.0043540785693157
383,6390.0,1.0266149803809828
384,6410.0,1.0057558821926498
385,6430.0,1.0161867840043166
386,6450.0,1.0078476858159837
387,6470.0,1.0057585876276507
388,6490.0,0.9848974894393177
389,6510.0,1.0245403912509847
390,6530.0,1.023841293062652
391,6550.0,0.9967281948743187
392,6570.0,0.9424810966859857
393,6590.0,1.0064539984976528
394,6606.93448,1.0147018538432346
395,6610.0,1.0161947628786783
396,6630.0,1.0043647680682952
397,6650.0,1.003674773257912
398,6670.0,0.9772537784475288
399,6690.0,0.9911637836371457
400,6710.0,0.9480467888267625
401,6730.0,0.9758627940163794
402,6750.0,0.9570867992059963
403,6770.0,0.9626508043956131
404,6790.0,0.9494378095852299
405,6810.0,0.9563918147748467
406,6830.0,0.9696038199644635
407,6850.0,0.9417888251540804
408,6870.0,0.9598698303436972
409,6890.0,0.9751668355333141
410,6910.0,0.9737768407229309
411,6930.0,0.9654318459125477
412,6950.0,0.9668228511021646
413,6970.0,0.9814248562917814
414,6990.0,0.9772538614813981
415,7010.0,0.964042866671015
416,7030.0,0.9869898718606319
417,7050.0,0.9911638770502488
418,7070.0,0.9550008822398656
419,7090.0,0.9202318874294825
420,7110.0,0.8944998926190992
421,7130.0,0.8729418978087161
422,7150.0,0.8694659029983329
423,7170.0,0.8826779081879497
424,7190.0,0.8604269133775666
425,7210.0,0.8826779185671834
426,7230.0,0.9070169237568002
427,7250.0,0.9146689289464172
428,7270.0,0.923010934136034
429,7290.0,0.9111909393256508
430,7310.0,0.9417889445152676
431,7330.0,0.9459619497048845
432,7350.0,0.9584769548945014
433,7370.0,0.9869899600841181
434,7390.0,0.9675179652737349
435,7410.0,0.9689099704633518
436,7430.0,0.9967309756529686
437,7450.0,0.9953319808425855
438,7470.0,1.0154949860322022
439,7490.0,1.0141049912218192
440,7510.0,1.025934996411436
441,7530.0,1.0460950016010528
442,7550.0,1.0544450067906697
443,7570.0,1.0502650119802865
444,7585.77575,1.0294252503237917
445,7590.0,1.0238450935737768
446,7610.0,1.0008954605027478
447,7630.0,0.9737778274317188
448,7650.0,0.9487431943606899
449,7670.0,0.896588561289661
450,7690.0,0.9209299282186321
451,7710.0,0.9021522951476032
452,7730.0,0.9049336620765743
453,7750.0,0.8986750290055454
454,7770.0,0.9111943959345165
455,7790.0,0.9202357628634876
456,7810.0,0.9195391297924587
457,7830.0,0.9118894967214298
458,7850.0,0.8986768636504009
459,7870.0,0.9160642305793719
460,7890.0,0.9042415975083431
461,7910.0,0.8819879644373142
462,7930.0,0.8868573313662853
463,7950.0,0.8805996982952563
464,7970.0,0.9125900652242275
465,7990.0,0.9139794321531985
466,8010.0,0.9258007990821696
467,8030.0,0.9306701660111407
468,8050.0,0.9320605329401118
469,8070.0,0.9480558998690829
470,8090.0,0.941103266798054
471,8110.0,0.9536196337270251
472,8130.0,0.9863050006559962
473,8150.0,1.0009053675849675
474,8170.0,1.0127257345139384
475,8190.0,0.9772651014429095
476,8210.0,0.9633574683718806
477,8230.0,0.9696158353008517
478,8250.0,0.9675302022298228
479,8270.0,0.9772665691587938
480,8290.0,0.9654449360877649
481,8310.0,0.9299783030167361
482,8330.0,0.9223306699457072
483,8350.0,0.9216360368746783
484,8370.0,0.9278934038036494
485,8390.0,0.8931257707326204
486,8410.0,0.9258081376615915
487,8430.0,0.8757405045905626
488,8450.0,0.8520958715195338
489,8470.0,0.8534872384485048
490,8490.0,0.8597466053774759
491,8510.0,0.822889972306447
492,8530.0,0.8597473392354181
493,8550.0,0.7950747061643892
494,8570.0,0.8896520730933604
495,8590.0,0.8799154400223315
496,8610.0,0.8917388069513025
497,8630.0,0.9119041738802737
498,8650.0,0.9139915408092447
499,8670.0,0.8256749077382158
500,8690.0,0.8931312746671869
501,8709.6359,0.9286343239112148
502,8710.0,0.9292926540470786
503,8730.0,0.938332704904671
504,8750.0,0.9299877557622634
505,8770.0,0.9487658066198559
506,8790.0,0.9626758574774483
507,8810.0,0.9439009083350407
508,8830.0,0.9543319591926331
509,8850.0,0.9515530100502256
510,8870.0,0.9105240609078181
511,8890.0,0.9230411117654105
512,8910.0,0.9355611626230028
513,8930.0,0.9181772134805953
514,8950.0,0.9209612643381877
515,8970.0,0.9258273151957801
516,8990.0,0.9272203660533727
517,9010.0,0.898708416910965
518,9030.0,0.9362634677685574
519,9050.0,0.96894851862615
520,9070.0,0.9710345694837423
521,9090.0,0.9529556203413347
522,9110.0,0.9661696711989272
523,9130.0,0.9842517220565196
524,9150.0,0.977297772914112
525,9170.0,0.9766048237717044
526,9190.0,0.9877308746292969
527,9210.0,0.9460089254868893
528,9230.0,0.9174979763444817
529,9250.0,0.9140210272020742
530,9270.0,0.9202820780596667
531,9290.0,0.905678128917259
532,9310.0,0.9119371797748516
533,9330.0,0.914722230632444
534,9350.0,0.9105492814900363
535,9370.0,0.8938613323476288
536,9390.0,0.9126393832052212
537,9410.0,0.8952534340628137
538,9430.0,0.9202904849204061
539,9450.0,0.9063825357779984
540,9470.0,0.930025586635591
541,9490.0,0.9321136374931833
542,9510.0,0.9133406883507758
543,9530.0,0.9202957392083683
544,9550.0,0.9036057900659606
545,9570.0,0.914037840923553
546,9590.0,0.9328158917811455
547,9610.0,0.9189089426387379
548,9630.0,0.9258619934963304
549,9650.0,0.9063930443539228
550,9670.0,0.9077840952115152
551,9690.0,0.9237801460691076
552,9710.0,0.9070901969267
553,9730.0,0.8973562477842925
554,9750.0,0.8945752986418849
555,9770.0,0.9001413494994773
556,9790.0,0.8855394003570698
557,9810.0,0.9105734512146623
558,9830.0,0.9001445020722546
559,9850.0,0.9077935529298471
560,9870.0,0.9015366037874395
561,9890.0,0.9001476546450319
562,9910.0,0.8897177055026244
563,9930.0,0.8966717563602168
564,9950.0,0.8994548072178091
565,9970.0,0.9001518580754017
566,9990.0,0.8973699089329941
567,10000.0,0.8971966843617903
568,10030.0,0.8966770148173079
569,10070.0,0.8855541220913313
570,10130.0,0.8959872830023666
571,10170.0,0.8855593902763901
572,10220.0,0.8883410243689196
573,10280.0,0.8904321852799548
574,10320.0,0.8800022925539783
575,10380.0,0.8730504534650135
576,10430.0,0.8772260875575428
577,10480.0,0.8633207216500723
578,10520.0,0.8542828289240958
579,10580.0,0.835509989835131
580,10630.0,0.8271676239276604
581,10680.0,0.8195202580201898
582,10720.0,0.8250853652942133
583,10780.0,0.8188315262052486
584,10820.0,0.806314633479272
585,10870.0,0.8035362675718014
586,10920.0,0.8021489016643308
587,10980.0,0.7910240625753661
588,11020.0,0.7847691698493895
589,11080.0,0.7708623307604248
590,11130.0,0.7680839648529542
591,11170.0,0.7625220721269776
592,11220.0,0.7625247062195071
593,11280.0,0.7520978671305423
594,11330.0,0.7507085012230716
595,11380.0,0.7444531353156011
596,11430.0,0.7361107694081304
597,11470.0,0.7458498766821539
598,11481.5362,0.7451819616405185
599,11530.0,0.7423783892590297
600,11570.0,0.7340374374999938
601,11620.0,0.7215234978011991
602,11670.0,0.7208335581024043
603,11730.0,0.7229266304638508
604,11770.0,0.705545678704815
605,11830.0,0.6979017510662613
606,11870.0,0.6851797993072255
607,11920.0,0.6954078596084309
608,11980.0,0.6718399319698771
609,12030.0,0.6847089922710824
610,12070.0,0.6789410405120466
611,12120.0,0.679434100813252
612,12180.0,0.6804831731746982
613,12230.0,0.6758282334759035
614,12270.0,0.6705482817168678
615,12320.0,0.665127342018073
616,12370.0,0.6633244023192783
617,12430.0,0.6521344746807246
618,12480.0,0.6499155349819299
619,12530.0,0.6433145952831352
620,12580.0,0.6410236555843405
621,12620.0,0.6367857038253046
622,12670.0,0.63073976412651
623,12720.0,0.6306758244277153
624,12780.0,0.6302648967891616
625,12830.0,0.6093379570903669
626,12880.0,0.6185920173915721
627,12920.0,0.6111560656325363
628,12980.0,0.6170021379939826
629,13020.0,0.6088011862349468
630,13080.0,0.6100592585963932
631,13130.0,0.5954613188975985
632,13180.0,0.5937963791988038
633,13182.5674,0.5937716325591501
634,13230.0,0.5933167280875357
635,13280.0,0.5821982008514002
636,13320.0,0.5810911790624916
637,13380.0,0.574147146379129
638,13430.0,0.5756836191429935
639,13470.0,0.5703345973540851
640,13520.0,0.5652670701179495
641,13570.0,0.557206542881814
642,13630.0,0.5538775101984513
643,13670.0,0.5565264884095429
644,13730.0,0.5576474557261802
645,13770.0,0.5560544339372718
646,13820.0,0.5563399067011363
647,13880.0,0.5505768740177737
648,13930.0,0.5242983467816381
649,13970.0,0.5202713249927297
650,14020.0,0.5149927977565941
651,14080.0,0.5187567650732314
652,14120.0,0.511809743284323
653,14180.0,0.5167557106009605
654,14230.0,0.511686183364825
655,14280.0,0.5030706561286894
656,14330.0,0.5114231288925539
657,14380.0,0.5158116016564183
