,lambda (Angstroms),Total Flux (erg/s/cm^2/Angstrom)
0,1005.0,2.6786544962516707
1,1015.0,2.6400983271701977
2,1025.0,2.5543168580887237
3,1035.0,2.54323618900725
4,1045.0,2.573108819925776
5,1055.0,2.5456086508443025
6,1065.0,2.4868854817628296
7,1075.0,2.4739913126813557
8,1085.0,2.4123471435998822
9,1095.0,2.4125949745184085
10,1096.4782,2.4086327822447853
11,1105.0,2.3906934302978833
12,1115.0,2.3599063003172422
13,1125.0,2.3289811703366015
14,1135.0,2.330392040355961
15,1145.0,2.2885489103753205
16,1155.0,2.2752867803946804
17,1165.0,2.2574356504140396
18,1175.0,2.196537520433399
19,1185.0,2.1937753904527577
20,1195.0,2.096577860472117
21,1205.0,2.056055530491477
22,1215.0,2.0051996005108363
23,1225.0,2.0206995705301956
24,1235.0,2.065781740549555
25,1245.0,2.0681676105689144
26,1255.0,2.031190480588274
27,1258.92541,2.003655641120543
28,1265.0,1.9655779816986727
29,1275.0,2.0190254764384483
30,1285.0,2.018231971178224
31,1295.0,1.9501224659179994
32,1305.0,1.915462960657775
33,1315.0,1.949161455397551
34,1325.0,1.9261839501373266
35,1335.0,1.872123444877102
36,1345.0,1.9043609396168777
37,1355.0,1.8764454343566535
38,1365.0,1.830033929096429
39,1375.0,1.8299354238362049
40,1385.0,1.8143989185759803
41,1395.0,1.7857894133157561
42,1405.0,1.7686549080555318
43,1415.0,1.7402524027953075
44,1425.0,1.731531897535083
45,1435.0,1.7037563922748586
46,1442.0,1.7051818385927013
47,1445.43977,1.7045019662428054
48,1447.0,1.7050665012346495
49,1455.0,1.686098125703318
50,1465.0,1.6552954062891543
51,1475.0,1.6374256868749906
52,1485.0,1.6316559674608266
53,1495.0,1.6252622480466627
54,1505.0,1.603637528632499
55,1512.0,1.5722633250425844
56,1517.0,1.5808864653355026
57,1525.0,1.5555210898041714
58,1535.0,1.5211023703900073
59,1545.0,1.5346646509758437
60,1555.0,1.5076159315616797
61,1565.0,1.490303212147516
62,1575.0,1.485716492733352
63,1585.0,1.483702773319188
64,1595.0,1.4756380539050244
65,1605.0,1.4547803344908605
66,1615.0,1.4426126150766965
67,1625.0,1.416329895662533
68,1635.0,1.4122991762483688
69,1645.0,1.402496456834205
70,1655.0,1.3704417374200415
71,1659.58691,1.3723569010472392
72,1665.0,1.37671434396322
73,1672.0,1.3420703217154586
74,1677.0,1.363549734395629
75,1685.0,1.369238994683902
76,1695.0,1.3474558200442428
77,1705.0,1.3288016454045841
78,1715.0,1.3107744707649251
79,1725.0,1.3002562961252662
80,1735.0,1.301213121485607
81,1745.0,1.2886779468459482
82,1755.0,1.2933917722062893
83,1765.0,1.2634015975666302
84,1775.0,1.2632454229269712
85,1785.0,1.2550922482873124
86,1795.0,1.2593870736476533
87,1805.0,1.2461578990079945
88,1815.0,1.2265997243683358
89,1825.0,1.2173345497286765
90,1835.0,1.2009063750890177
91,1845.0,1.1793312004493588
92,1855.0,1.1706220258096998
93,1865.0,1.1659458511700407
94,1875.0,1.1684326765303819
95,1885.0,1.1491525018907227
96,1895.0,1.136618327251064
97,1905.0,1.130899152611405
98,1905.46072,1.1303569231974067
99,1915.0,1.1214384113933837
100,1925.0,1.113410160921626
101,1935.0,1.1063559104498686
102,1945.0,1.106742659978111
103,1955.0,1.0932204095063531
104,1967.0,1.097495708940244
105,1976.0,1.093747183515662
106,1984.0,1.0807873831382557
107,1995.0,1.0682014076193225
108,2005.0,1.0633021571475647
109,2015.0,1.0499899066758072
110,2025.0,1.0489156562040494
111,2035.0,1.0374794057322918
112,2045.0,1.0369621552605341
113,2055.0,1.0230919047887768
114,2065.0,1.0157596543170189
115,2074.0,1.019105128892437
116,2078.0,1.016867228703734
117,2085.0,1.0168801533735035
118,2095.0,1.001758902901746
119,2105.0,0.9927566524299882
120,2115.0,0.9881374019582307
121,2125.0,0.982056151486473
122,2135.0,0.9617199010147154
123,2145.0,0.9645386505429576
124,2155.0,0.9613794000712002
125,2165.0,0.9470231495994423
126,2175.0,0.9386468991276848
127,2185.0,0.9335396486559271
128,2187.7616199999998,0.9333390858731455
129,2195.0,0.9343673538954971
130,2205.0,0.924382931458918
131,2215.0,0.9091835090223391
132,2225.0,0.9023990865857602
133,2235.0,0.9122326641491811
134,2245.0,0.8988412417126022
135,2255.0,0.885240819276023
136,2265.0,0.8820033968394443
137,2275.0,0.8825189744028651
138,2285.0,0.8862345519662862
139,2295.0,0.8727741295297071
140,2305.0,0.8692577070931281
141,2315.0,0.8564902846565493
142,2325.0,0.8264094622199702
143,2335.0,0.8354101397833912
144,2345.0,0.8231309173468121
145,2355.0,0.8347045949102333
146,2365.0,0.8139415724736543
147,2375.0,0.8157097500370752
148,2385.0,0.7985630276004964
149,2395.0,0.8030434051639173
150,2405.0,0.7944500827273383
151,2415.0,0.7935756602907593
152,2425.0,0.8029236378541802
153,2435.0,0.7947477154176013
154,2445.0,0.7999937929810222
155,2455.0,0.7945993705444433
156,2465.0,0.7859359481078643
157,2475.0,0.7749085256712853
158,2485.0,0.7667325032347063
159,2495.0,0.7616161807981273
160,2505.0,0.7733292583615483
161,2511.88643,0.7508415885296802
162,2513.0,0.7473326881809103
163,2518.0,0.7453815153366125
164,2525.0,0.7390756933545952
165,2535.0,0.7428232476659994
166,2545.0,0.7387819019774035
167,2555.0,0.7563672562888076
168,2565.0,0.7420348106002117
169,2575.0,0.7514857649116159
170,2585.0,0.7432010192230201
171,2595.0,0.7357532735344241
172,2605.0,0.7255226278458283
173,2615.0,0.7189083821572324
174,2625.0,0.7270370364686366
175,2635.0,0.7467792907800407
176,2645.0,0.7677725450914448
177,2655.0,0.795023799402849
178,2665.0,0.7453640537142531
179,2675.0,0.7541193080256572
180,2685.0,0.7618305623370614
181,2695.0,0.7315718166484654
182,2705.0,0.7456800709598697
183,2715.0,0.7170913252712736
184,2725.0,0.7015075795826777
185,2735.0,0.7141548338940819
186,2745.0,0.678125788205486
187,2755.0,0.6864623425168902
188,2765.0,0.6983465968282943
189,2775.0,0.7020938511396984
190,2785.0,0.6730871054511025
191,2795.0,0.6357085597625067
192,2805.0,0.6405270140739108
193,2815.0,0.681270868385315
194,2825.0,0.702960122696719
195,2835.0,0.6906433770081232
196,2845.0,0.6646266313195274
197,2855.0,0.6410442856309315
198,2865.0,0.6801881399423356
199,2875.0,0.7039633942537398
200,2884.0315,0.6940958070350843
201,2885.0,0.6931328371510173
202,2895.0,0.7126059369541453
203,2910.0,0.7576715866588373
204,2930.0,0.7286047862650933
205,2950.0,0.7108059858713491
206,2970.0,0.711296185477605
207,2990.0,0.7086563850838611
208,3010.0,0.7031645846901171
209,3030.0,0.709217784296373
210,3050.0,0.709637983902629
211,3070.0,0.7221581835088848
212,3090.0,0.7124263831151408
213,3110.0,0.7373255827213967
214,3130.0,0.7154227823276528
215,3150.0,0.7129909819339088
216,3170.0,0.7269021815401648
217,3190.0,0.6910923811464207
218,3210.0,0.7054895807526766
219,3230.0,0.6689837803589325
220,3250.0,0.7347019799651886
221,3270.0,0.7712151795714445
222,3290.0,0.7616213791777005
223,3310.0,0.7365205787839564
224,3311.31121,0.7367487424102424
225,3330.0,0.7412888419935766
226,3350.0,0.7274404760553155
227,3370.0,0.6581681101170542
228,3390.0,0.6799937441787931
229,3410.0,0.6823493782405319
230,3430.0,0.6908240123022709
231,3450.0,0.6983246463640096
232,3470.0,0.7035312804257485
233,3490.0,0.7340509144874873
234,3510.0,0.7519125485492262
235,3530.0,0.7142121826109649
236,3550.0,0.7550938166727039
237,3570.0,0.6443064507344427
238,3590.0,0.6457560847961815
239,3610.0,0.7031177188579203
240,3630.0,0.7176433529196593
241,3640.0,0.7297376699505287
242,3650.0,0.772499986981398
243,3670.0,0.7935626210431368
244,3690.0,0.7437612551048757
245,3710.0,0.7612758891666145
246,3730.0,0.6374145232283535
247,3750.0,0.6784341572900923
248,3770.0,0.759370791351831
249,3790.0,0.7784844254135699
250,3801.8939600000003,0.7678920417128177
251,3810.0,0.7610665411818356
252,3830.0,0.6023620110808683
253,3850.0,0.690388480979901
254,3870.0,0.6953139508789338
255,3890.0,0.7213094207779664
256,3910.0,0.8281818906769993
257,3930.0,0.612175360576032
258,3950.0,0.7609118304750647
259,3970.0,0.6171583003740975
260,3990.0,0.9336277702731302
261,4010.0,0.9961332401721629
262,4030.0,0.9842287100711956
263,4050.0,0.9562601799702284
264,4070.0,0.9150806498692611
265,4090.0,1.0243181197682938
266,4110.0,0.9651265896673266
267,4130.0,0.9715120595663593
268,4150.0,0.959190529465392
269,4170.0,0.9660629993644247
270,4190.0,0.9506124692634574
271,4210.0,0.9550509391624903
272,4230.0,0.9168614090615229
273,4250.0,0.9569758789605556
274,4270.0,0.9153763488595883
275,4290.0,0.8784378187586211
276,4310.0,0.8045042886576539
277,4330.0,0.9930177585566866
278,4350.0,0.9826442284557193
279,4365.15832,1.044354863235713
280,4370.0,1.064235655920716
281,4390.0,0.9750061861209824
282,4410.0,1.011510716321249
283,4430.0,1.0640782465215153
284,4450.0,1.070747776721782
285,4470.0,1.123315306922048
286,4490.0,1.1418098371223147
287,4510.0,1.2632213673225812
288,4530.0,1.1301138975228477
289,4550.0,1.170164427723114
290,4570.0,1.2422029579233804
291,4590.0,1.186983488123647
292,4610.0,1.2082570183239132
293,4630.0,1.18293854852418
294,4650.0,1.1930860787244462
295,4670.0,1.234525608924713
296,4690.0,1.2161621391249793
297,4710.0,1.1811086693252457
298,4730.0,1.2121171995255122
299,4750.0,1.2410407297257786
300,4770.0,1.222678259926045
301,4790.0,1.2244787901263114
302,4810.0,1.2228043203265782
303,4830.0,1.2545148505268444
304,4850.0,1.1881633807271108
305,4870.0,1.1009539109273774
306,4890.0,1.2098484411276438
307,4910.0,1.2102599713279103
308,4930.0,1.1863345015281768
309,4950.0,1.227078031728443
310,4970.0,1.2024555619287096
311,4990.0,1.130544092128976
312,5010.0,1.0746286223292425
313,5011.87234,1.0798753431130006
314,5030.0,1.1311180511854975
315,5050.0,1.1243714320040878
316,5070.0,1.1635218128226783
317,5090.0,1.1067041936412687
318,5110.0,1.131250574459859
319,5130.0,1.0946019552784496
320,5150.0,1.05586533609704
321,5170.0,0.9823617169156306
322,5190.0,1.011774097734221
323,5210.0,1.0856944785528115
324,5230.0,1.161701859371402
325,5250.0,1.2078052401899924
326,5270.0,1.0800586210085827
327,5290.0,1.2200380018271733
328,5310.0,1.2877043826457637
329,5330.0,1.143961763464354
330,5350.0,1.2408271442829446
331,5370.0,1.2313035251015352
332,5390.0,1.2057769059201255
333,5410.0,1.1879052867387159
334,5430.0,1.2020206675573064
335,5450.0,1.2293490483758969
336,5470.0,1.2066104291944872
337,5490.0,1.2137718100130777
338,5510.0,1.1972861908316683
339,5530.0,1.2378245716502587
340,5550.0,1.252630952468849
341,5570.0,1.2271173332874397
342,5590.0,1.19672971410603
343,5610.0,1.2351800949246206
344,5630.0,1.2270364757432108
345,5650.0,1.2446328565618012
346,5670.0,1.214939237380392
347,5690.0,1.2499156181989823
348,5710.0,1.2090919990175726
349,5730.0,1.3024883798361633
350,5750.0,1.2560947606547537
351,5754.399369999999,1.2582826511238474
352,5770.0,1.2663094449944028
353,5790.0,1.218179790795252
354,5810.0,1.2653201365961015
355,5830.0,1.2992604823969507
356,5850.0,1.2587808281978
357,5870.0,1.2551611739986492
358,5890.0,1.1159345197994985
359,5910.0,1.2326118656003477
360,5930.0,1.242212211401197
361,5950.0,1.2413725572020464
362,5970.0,1.2613929030028959
363,5990.0,1.2410832488037449
364,6010.0,1.2256335946045942
365,6030.0,1.2560839404054436
366,6050.0,1.2768142862062928
367,6070.0,1.2731946320071423
368,6090.0,1.2292349778079914
369,6110.0,1.2339553236088407
370,6130.0,1.1684426694096899
371,6150.0,1.1988960152105392
372,6170.0,1.1333863610113886
373,6190.0,1.2013867068122377
374,6210.0,1.189427052613087
375,6230.0,1.1531193984139363
376,6250.0,1.1195947442147856
377,6270.0,1.167438090015635
378,6290.0,1.188148435816484
379,6310.0,1.1588017816173335
380,6330.0,1.1739591274181826
381,6350.0,1.175199473219032
382,6370.0,1.168789819019881
383,6390.0,1.1902101648207306
384,6410.0,1.1685105106215798
385,6430.0,1.1781008564224291
386,6450.0,1.1689212022232782
387,6470.0,1.1659915480241276
388,6490.0,1.1442898938249768
389,6510.0,1.183092239625826
390,6530.0,1.1815525854266755
391,6550.0,1.1535989312275248
392,6570.0,1.098511277028374
393,6590.0,1.1616436228292235
394,6606.93448,1.1691797592271016
395,6610.0,1.1705829700580421
396,6630.0,1.1581677681408504
397,6650.0,1.1568925662236589
398,6670.0,1.1298863643064672
399,6690.0,1.1432111623892758
400,6710.0,1.099508960472084
401,6730.0,1.1267397585548924
402,6750.0,1.1073785566377008
403,6770.0,1.1123573547205092
404,6790.0,1.0985591528033174
405,6810.0,1.1049279508861258
406,6830.0,1.1175547489689341
407,6850.0,1.0891545470517425
408,6870.0,1.1066503451345509
409,6890.0,1.1213621432173593
410,6910.0,1.1193869413001678
411,6930.0,1.110456739382976
412,6950.0,1.1112625374657845
413,6970.0,1.1252793355485928
414,6990.0,1.1205231336314012
415,7010.0,1.1067269317142094
416,7030.0,1.129088729797018
417,7050.0,1.1326775278798265
418,7070.0,1.0959293259626346
419,7090.0,1.060575124045443
420,7110.0,1.0342579221282513
421,7130.0,1.0121147202110599
422,7150.0,1.0080535182938681
423,7170.0,1.0206803163766764
424,7190.0,0.997844114459485
425,7210.0,1.0195099125422933
426,7230.0,1.0432637106251015
427,7250.0,1.05033050870791
428,7270.0,1.0580873067907184
429,7290.0,1.0456821048735268
430,7310.0,1.0756949029563352
431,7330.0,1.0792827010391435
432,7350.0,1.0912124991219518
433,7370.0,1.1191402972047604
434,7390.0,1.0990830952875685
435,7410.0,1.0998898933703771
436,7430.0,1.1271256914531853
437,7450.0,1.1251414895359937
438,7470.0,1.1447192876188022
439,7490.0,1.1427440857016105
440,7510.0,1.153988883784419
441,7530.0,1.1735636818672273
442,7550.0,1.1813284799500356
443,7570.0,1.1765632780328439
444,7585.77575,1.1552619123255874
445,7590.0,1.1495959571300167
446,7610.0,1.1262401054613396
447,7630.0,1.0987162537926625
448,7650.0,1.0732754021239852
449,7670.0,1.0207145504553081
450,7690.0,1.044649698786631
451,7710.0,1.0254658471179539
452,7730.0,1.0278409954492767
453,7750.0,1.0211761437805995
454,7770.0,1.033289292111922
455,7790.0,1.041924440443245
456,7810.0,1.040821588774568
457,7830.0,1.032765737105891
458,7850.0,1.0191468854372137
459,7870.0,1.0361280337685363
460,7890.0,1.0238991820998593
461,7910.0,1.0012393304311822
462,7930.0,1.005702478762505
463,7950.0,0.9990386270938278
464,7970.0,1.0306227754251507
465,7990.0,1.0316059237564734
466,8010.0,1.0430210720877964
467,8030.0,1.0474842204191193
468,8050.0,1.048468368750442
469,8070.0,1.0640575170817648
470,8090.0,1.0566986654130877
471,8110.0,1.0688088137444105
472,8130.0,1.1010879620757335
473,8150.0,1.1152821104070563
474,8170.0,1.126696258738379
475,8190.0,1.0908294070697018
476,8210.0,1.0765155554010248
477,8230.0,1.0823677037323476
478,8250.0,1.0798758520636704
479,8270.0,1.0892060003949933
480,8290.0,1.0769781487263161
481,8310.0,1.0411052970576389
482,8330.0,1.0330514453889619
483,8350.0,1.0319505937202846
484,8370.0,1.0378017420516075
485,8390.0,1.0026278903829302
486,8410.0,1.0349040387142532
487,8430.0,0.9844301870455759
488,8450.0,0.9603793353768989
489,8470.0,0.9613644837082217
490,8490.0,0.9672176320395445
491,8510.0,0.9299547803708673
492,8530.0,0.9664059287021902
493,8550.0,0.9013270770335131
494,8570.0,0.9954982253648359
495,8590.0,0.9853553736961588
496,8610.0,0.9967725220274816
497,8630.0,1.0165316703588045
498,8650.0,1.0182128186901274
499,8670.0,0.9294899670214501
500,8690.0,0.9965401153527729
501,8709.6359,1.0316443412087228
502,8710.0,1.0322977916492067
503,8730.0,1.0410698010138053
504,8750.0,1.032456810378404
505,8770.0,1.0509668197430027
506,8790.0,1.0646088291076015
507,8810.0,1.0455658384722002
508,8830.0,1.0557288478367988
509,8850.0,1.0526818572013976
510,8870.0,1.0113848665659964
511,8890.0,1.023633875930595
512,8910.0,1.0358858852951938
513,8930.0,1.0182338946597924
514,8950.0,1.0207499040243913
515,8970.0,1.02534791338899
516,8990.0,1.0264729227535887
517,9010.0,0.9976929321181874
518,9030.0,1.034979941482786
519,9050.0,1.0673969508473848
520,9070.0,1.0692149602119836
521,9090.0,1.0508679695765821
522,9110.0,1.063813978941181
523,9130.0,1.0816279883057798
524,9150.0,1.0744059976703784
525,9170.0,1.073445007034977
526,9190.0,1.084303016399576
527,9210.0,1.0423130257641746
528,9230.0,1.0135340351287734
529,9250.0,1.009789044493372
530,9270.0,1.0157820538579707
531,9290.0,1.0009100632225694
532,9310.0,1.0069010725871683
533,9330.0,1.0094180819517669
534,9350.0,1.0049770913163656
535,9370.0,0.9880211006809643
536,9390.0,1.0065311100455632
537,9410.0,0.9888771194101618
538,9430.0,1.0136461287747605
539,9450.0,0.9994701381393591
540,9470.0,1.022845147503958
541,9490.0,1.0246651568685565
542,9510.0,1.0056241662331553
543,9530.0,1.012311175597754
544,9550.0,0.9953531849623528
545,9570.0,1.0055171943269516
546,9590.0,1.0240272036915503
547,9610.0,1.009852213056149
548,9630.0,1.0165372224207476
549,9650.0,0.9968002317853464
550,9670.0,0.9979232411499451
551,9690.0,1.0136512505145439
552,9710.0,0.9966932598791425
553,9730.0,0.9866912692437413
554,9750.0,0.98364227860834
555,9770.0,0.9889402879729388
556,9790.0,0.9740702973375375
557,9810.0,0.9988363067021362
558,9830.0,0.9881393160667349
559,9850.0,0.9955203254313336
560,9870.0,0.9889953347959324
561,9890.0,0.987338344160531
562,9910.0,0.9766403535251298
563,9930.0,0.9833263628897285
564,9950.0,0.9858413722543271
565,9970.0,0.9862703816189259
566,9990.0,0.9832203909835247
567,10000.0,0.9829131456658241
568,10030.0,0.982146726683602
569,10070.0,0.9706948347073061
570,10130.0,0.9806344967428622
571,10170.0,0.9698776047665663
572,10220.0,0.9722479897961964
573,10280.0,0.9738456518317524
574,10320.0,0.9630867598554564
575,10380.0,0.9556414218910125
576,10430.0,0.9594058069206426
577,10480.0,0.9450891919502727
578,10520.0,0.9357222999739767
579,10580.0,0.9164559620095328
580,10630.0,0.907702347039163
581,10680.0,0.899643732068793
582,10720.0,0.904879840092497
583,10780.0,0.8981325021280532
584,10820.0,0.8852866101517571
585,10870.0,0.8820969951813873
586,10920.0,0.8802983802110174
587,10980.0,0.8686800422465735
588,11020.0,0.8620961502702774
589,11080.0,0.8476958123058335
590,11130.0,0.8445061973354636
591,11170.0,0.8386153053591676
592,11220.0,0.8382066903887978
593,11280.0,0.8272863524243538
594,11330.0,0.8254857374539839
595,11380.0,0.818819122483614
596,11430.0,0.810065507513244
597,11470.0,0.819475615536948
598,11481.5362,0.8187128154665244
599,11530.0,0.8156978802555516
600,11570.0,0.8071824784290559
601,11620.0,0.7944504761459363
602,11670.0,0.7935424738628168
603,11730.0,0.7953738711230736
604,11770.0,0.7778184692965779
605,11830.0,0.7699128665568346
606,11870.0,0.7570164647303389
607,11920.0,0.7670264624472195
608,11980.0,0.7431968597074761
609,12030.0,0.7558478574243566
610,12070.0,0.7499054555978609
611,12120.0,0.7501804533147415
612,12180.0,0.7509678505749982
613,12230.0,0.7460948482918786
614,12270.0,0.7406404464653831
615,12320.0,0.7350014441822635
616,12370.0,0.732980441899144
617,12430.0,0.7215288391594006
618,12480.0,0.7190918368762811
619,12530.0,0.7122728345931616
620,12580.0,0.7097638323100421
621,12620.0,0.7053514304835465
622,12670.0,0.6990874282004271
623,12720.0,0.6988054259173075
624,12780.0,0.6981328231775642
625,12830.0,0.6769878208944446
626,12880.0,0.6860238186113252
627,12920.0,0.6784134167848296
628,12980.0,0.6839978140450862
629,13020.0,0.6756224122185905
630,13080.0,0.6766188094788472
631,13130.0,0.6618028071957277
632,13180.0,0.6599198049126083
633,13182.5674,0.6598838611953746
634,13230.0,0.6593525480642125
635,13280.0,0.6481534763717879
636,13320.0,0.646982019017848
637,13380.0,0.6399413329869384
638,13430.0,0.6413972612945137
639,13470.0,0.6359838039405739
640,13520.0,0.6308357322481492
641,13570.0,0.6226946605557244
642,13630.0,0.6192689745248148
643,13670.0,0.621853517170875
644,13730.0,0.6228778311399654
645,13770.0,0.6212203737860256
646,13820.0,0.6214253020936009
647,13880.0,0.6155656160626912
648,13930.0,0.5892065443702665
649,13970.0,0.5851150870163268
650,14020.0,0.5797560153239021
651,14080.0,0.5834233292929923
652,14120.0,0.5764118719390525
653,14180.0,0.581261185908143
654,14230.0,0.5761111142157183
655,14280.0,0.5674150425232936
656,14330.0,0.5756869708308688
657,14380.0,0.5799948991384442
658,14420.0,0.5675584417845043
659,14480.0,0.5756757557535948
660,14520.0,0.5716542983996549
661,14570.0,0.5739452267072302
662,14620.0,0.5621891550148055
663,14670.0,0.5585690833223808
664,14720.0,0.5544640116299561
665,14770.0,0.5575199399375314
