,lambda (Angstroms),Total Flux (erg/s/cm^2/Angstrom)
0,1005.0,0.168124
1,1015.0,0.156867
2,1025.0,0.0751298
3,1035.0,0.107188
4,1045.0,0.202814
5,1055.0,0.211685
6,1065.0,0.172223
7,1075.0,0.202385
8,1085.0,0.157173
9,1095.0,0.207341
10,1096.4782,0.20876095892000002
11,1105.0,0.216947
12,1115.0,0.210401
13,1125.0,0.205567
14,1135.0,0.248638
15,1145.0,0.22435
16,1155.0,0.24613
17,1165.0,0.26118
18,1175.0,0.209482
19,1185.0,0.244417
20,1195.0,0.128234
21,1205.0,0.105721
22,1215.0,0.0648515
23,1225.0,0.132029
24,1235.0,0.249985
25,1245.0,0.298256
26,1255.0,0.281615
27,1258.92541,0.2528676524059996
28,1265.0,0.208381
29,1275.0,0.32854
30,1285.0,0.359069
31,1295.0,0.27929
32,1305.0,0.252921
33,1315.0,0.339798
34,1325.0,0.333679
35,1335.0,0.275864
36,1345.0,0.360538
37,1355.0,0.345304
38,1365.0,0.299602
39,1375.0,0.331355
40,1385.0,0.337228
41,1395.0,0.323523
42,1405.0,0.32695
43,1415.0,0.307984
44,1425.0,0.325297
45,1435.0,0.309696
46,1442.0,0.334536
47,1445.43977,0.34434347222399986
48,1447.0,0.348792
49,1455.0,0.335086
50,1465.0,0.305475
51,1475.0,0.297338
52,1485.0,0.309696
53,1495.0,0.321444
54,1505.0,0.307616
55,1512.0,0.270357
56,1517.0,0.296175
57,1525.0,0.270724
58,1535.0,0.235117
59,1545.0,0.281799
60,1555.0,0.257571
61,1565.0,0.249373
62,1575.0,0.263689
63,1585.0,0.282532
64,1595.0,0.291342
65,1605.0,0.277944
66,1615.0,0.279474
67,1625.0,0.256654
68,1635.0,0.272071
69,1645.0,0.277699
70,1655.0,0.244662
71,1659.58691,0.25841263879799997
72,1665.0,0.27464
73,1672.0,0.226613
74,1677.0,0.270541
75,1685.0,0.292994
76,1695.0,0.271458
77,1705.0,0.255001
78,1715.0,0.23989
79,1725.0,0.23732
80,1735.0,0.254084
81,1745.0,0.247904
82,1755.0,0.271153
83,1765.0,0.235117
84,1775.0,0.250596
85,1785.0,0.251759
86,1795.0,0.274028
87,1805.0,0.266381
88,1815.0,0.2487
89,1825.0,0.248026
90,1835.0,0.23524
91,1845.0,0.214072
92,1855.0,0.214561
93,1865.0,0.221475
94,1875.0,0.240562
95,1885.0,0.223493
96,1895.0,0.217314
97,1905.0,0.222514
98,1905.46072,0.22230262166399997
99,1915.0,0.217926
100,1925.0,0.215417
101,1935.0,0.2145
102,1945.0,0.225758
103,1955.0,0.214194
104,1967.0,0.233893
105,1976.0,0.237564
106,1984.0,0.224778
107,1995.0,0.215723
108,2005.0,0.218599
109,2015.0,0.20728
110,2025.0,0.21658
111,2035.0,0.208381
112,2045.0,0.21817
113,2055.0,0.206546
114,2065.0,0.2052
115,2074.0,0.219884
116,2078.0,0.218599
117,2085.0,0.224839
118,2095.0,0.211257
119,2105.0,0.207341
120,2115.0,0.209604
121,2125.0,0.211257
122,2135.0,0.188559
123,2145.0,0.202569
124,2155.0,0.208381
125,2165.0,0.196513
126,2175.0,0.193637
127,2185.0,0.193882
128,2187.7616199999998,0.19661876541999976
129,2195.0,0.203792
130,2205.0,0.194738
131,2215.0,0.179014
132,2225.0,0.173875
133,2235.0,0.194922
134,2245.0,0.180972
135,2255.0,0.168981
136,2265.0,0.172285
137,2275.0,0.180361
138,2285.0,0.190885
139,2295.0,0.178525
140,2305.0,0.178158
141,2315.0,0.166474
142,2325.0,0.125238
143,2335.0,0.149037
144,2345.0,0.138451
145,2355.0,0.161518
146,2365.0,0.138085
147,2375.0,0.147323
148,2385.0,0.128786
149,2395.0,0.143224
150,2405.0,0.13625
151,2415.0,0.142
152,2425.0,0.160661
153,2435.0,0.154298
154,2445.0,0.168614
155,2455.0,0.166106
156,2465.0,0.162374
157,2475.0,0.153135
158,2485.0,0.15283
159,2495.0,0.149954
160,2505.0,0.172896
161,2511.88643,0.1457746562487499
162,2513.0,0.141389
163,2518.0,0.142428
164,2525.0,0.135087
165,2535.0,0.142979
166,2545.0,0.141389
167,2555.0,0.16629
168,2565.0,0.153992
169,2575.0,0.170754
170,2585.0,0.165249
171,2595.0,0.160111
172,2605.0,0.150566
173,2615.0,0.146527
174,2625.0,0.161518
175,2635.0,0.184705
176,2645.0,0.215357
177,2655.0,0.243316
178,2665.0,0.193087
179,2675.0,0.208748
180,2685.0,0.217436
181,2695.0,0.190394
182,2705.0,0.208932
183,2715.0,0.181278
184,2725.0,0.170878
185,2735.0,0.190028
186,2745.0,0.146773
187,2755.0,0.159009
188,2765.0,0.176016
189,2775.0,0.186602
190,2785.0,0.15858
191,2795.0,0.110797
192,2805.0,0.123279
193,2815.0,0.179687
194,2825.0,0.207831
195,2835.0,0.19743
196,2845.0,0.174855
197,2855.0,0.152891
198,2865.0,0.200734
199,2875.0,0.223921
200,2884.0315,0.21684843234999995
201,2885.0,0.21609
202,2895.0,0.233404
203,2910.0,0.284002
204,2930.0,0.258855
205,2950.0,0.246865
206,2970.0,0.253962
207,2990.0,0.256103
208,3010.0,0.258305
209,3030.0,0.266258
210,3050.0,0.270724
211,3070.0,0.284858
212,3090.0,0.282349
213,3110.0,0.305475
214,3130.0,0.290424
215,3150.0,0.292137
216,3170.0,0.307923
217,3190.0,0.276536
218,3210.0,0.297215
219,3230.0,0.264912
220,3250.0,0.329948
221,3270.0,0.368124
222,3290.0,0.36274
223,3310.0,0.346651
224,3311.31121,0.34703597125599994
225,3330.0,0.352523
226,3350.0,0.342612
227,3370.0,0.283145
228,3390.0,0.305965
229,3410.0,0.311349
230,3430.0,0.32077
231,3450.0,0.33166
232,3470.0,0.338329
233,3490.0,0.367879
234,3510.0,0.38709
235,3530.0,0.355949
236,3550.0,0.397307
237,3570.0,0.299235
238,3590.0,0.302171
239,3610.0,0.356439
240,3630.0,0.372101
241,3640.0,0.383664
242,3650.0,0.42643
243,3670.0,0.444661
244,3690.0,0.399695
245,3710.0,0.426185
246,3730.0,0.320709
247,3750.0,0.374671
248,3770.0,0.452614
249,3790.0,0.487181
250,3801.8939600000003,0.488200312372
251,3810.0,0.488895
252,3830.0,0.325053
253,3850.0,0.437442
254,3870.0,0.454818
255,3890.0,0.434996
256,3910.0,0.57461
257,3930.0,0.356561
258,3950.0,0.508717
259,3970.0,0.333373
260,3990.0,0.674212
261,4010.0,0.743346
262,4030.0,0.736005
263,4050.0,0.712756
264,4070.0,0.673599
265,4090.0,0.754359
266,4110.0,0.682778
267,4130.0,0.726214
268,4150.0,0.724379
269,4170.0,0.73111
270,4190.0,0.719484
271,4210.0,0.725603
272,4230.0,0.691954
273,4250.0,0.729274
274,4270.0,0.690118
275,4290.0,0.657692
276,4310.0,0.583296
277,4330.0,0.740899
278,4350.0,0.720097
279,4365.15832,0.8030986549079975
280,4370.0,0.82961
281,4390.0,0.750687
282,4410.0,0.786171
283,4430.0,0.832669
284,4450.0,0.840623
285,4470.0,0.889568
286,4490.0,0.905474
287,4510.0,1.0205
288,4530.0,0.897521
289,4550.0,0.933617
290,4570.0,1.00398
291,4590.0,0.95136
292,4610.0,0.973997
293,4630.0,0.948301
294,4650.0,0.961149
295,4670.0,1.0003
296,4690.0,0.98195
297,4710.0,0.948301
298,4730.0,0.982563
299,4750.0,1.01071
300,4770.0,0.996021
301,4790.0,0.997858
302,4810.0,0.994184
303,4830.0,1.02356
304,4850.0,0.946466
305,4870.0,0.853471
306,4890.0,0.981338
307,4910.0,0.98562
308,4930.0,0.964208
309,4950.0,1.00642
310,4970.0,0.986233
311,4990.0,0.917711
312,5010.0,0.865708
313,5011.87234,0.8708054456499997
314,5030.0,0.920158
315,5050.0,0.914652
316,5070.0,0.95442
317,5090.0,0.901191
318,5110.0,0.92444
319,5130.0,0.889568
320,5150.0,0.854694
321,5170.0,0.787395
322,5190.0,0.814927
323,5210.0,0.883449
324,5230.0,0.95136
325,5250.0,0.994184
326,5270.0,0.874272
327,5290.0,1.00582
328,5310.0,1.06882
329,5330.0,0.936065
330,5350.0,1.02722
331,5370.0,1.01989
332,5390.0,0.996021
333,5410.0,0.979504
334,5430.0,0.9948
335,5450.0,1.02234
336,5470.0,1.0003
337,5490.0,1.00704
338,5510.0,0.992963
339,5530.0,1.03028
340,5550.0,1.04497
341,5570.0,1.02172
342,5590.0,0.9948
343,5610.0,1.03212
344,5630.0,1.02417
345,5650.0,1.04007
346,5670.0,1.01315
347,5690.0,1.04681
348,5710.0,1.00948
349,5730.0,1.09819
350,5750.0,1.05414
351,5754.399369999999,1.0565640528699995
352,5770.0,1.06516
353,5790.0,1.0205
354,5810.0,1.06516
355,5830.0,1.09758
356,5850.0,1.06026
357,5870.0,1.05843
358,5890.0,0.930558
359,5910.0,1.03824
360,5930.0,1.04742
361,5950.0,1.04742
362,5970.0,1.06638
363,5990.0,1.04681
364,6010.0,1.03212
365,6030.0,1.0621
366,6050.0,1.08167
367,6070.0,1.07861
368,6090.0,1.03763
369,6110.0,1.04191
370,6130.0,0.981338
371,6150.0,1.00948
372,6170.0,0.951973
373,6190.0,1.01561
374,6210.0,1.00582
375,6230.0,0.97155
376,6250.0,0.939124
377,6270.0,0.986233
378,6290.0,1.00642
379,6310.0,0.97828
380,6330.0,0.992963
381,6350.0,0.993578
382,6370.0,0.988069
383,6390.0,1.00948
384,6410.0,0.988681
385,6430.0,0.99908
386,6450.0,0.991127
387,6470.0,0.988681
388,6490.0,0.96849
389,6510.0,1.00459
390,6530.0,1.00276
391,6550.0,0.972773
392,6570.0,0.913428
393,6590.0,0.985011
394,6606.93448,0.9948550132239999
395,6610.0,0.996637
396,6630.0,0.98562
397,6650.0,0.985011
398,6670.0,0.960537
399,6690.0,0.973997
400,6710.0,0.933617
401,6730.0,0.959926
402,6750.0,0.942184
403,6770.0,0.947689
404,6790.0,0.934841
405,6810.0,0.940348
406,6830.0,0.952584
407,6850.0,0.926277
408,6870.0,0.942794
409,6890.0,0.957477
410,6910.0,0.955032
411,6930.0,0.947077
412,6950.0,0.947689
413,6970.0,0.961149
414,6990.0,0.956256
415,7010.0,0.942184
416,7030.0,0.963597
417,7050.0,0.96849
418,7070.0,0.935452
419,7090.0,0.903027
420,7110.0,0.879166
421,7130.0,0.859589
422,7150.0,0.855918
423,7170.0,0.867542
424,7190.0,0.846129
425,7210.0,0.867542
426,7230.0,0.888956
427,7250.0,0.896298
428,7270.0,0.903638
429,7290.0,0.890791
430,7310.0,0.918935
431,7330.0,0.922605
432,7350.0,0.933617
433,7370.0,0.959926
434,7390.0,0.94096
435,7410.0,0.941571
436,7430.0,0.966655
437,7450.0,0.966044
438,7470.0,0.983787
439,7490.0,0.98195
440,7510.0,0.993578
441,7530.0,1.01132
442,7550.0,1.01927
443,7570.0,1.01499
444,7585.77575,0.9956844259375003
445,7590.0,0.990515
446,7610.0,0.970325
447,7630.0,0.946466
448,7650.0,0.923829
449,7670.0,0.875496
450,7690.0,0.898133
451,7710.0,0.880391
452,7730.0,0.882838
453,7750.0,0.87672
454,7770.0,0.888344
455,7790.0,0.896909
456,7810.0,0.895685
457,7830.0,0.888344
458,7850.0,0.875496
459,7870.0,0.892015
460,7890.0,0.879778
461,7910.0,0.858978
462,7930.0,0.86326
463,7950.0,0.856529
464,7970.0,0.887121
465,7990.0,0.888344
466,8010.0,0.898133
467,8030.0,0.902414
468,8050.0,0.903638
469,8070.0,0.917711
470,8090.0,0.909146
471,8110.0,0.920771
472,8130.0,0.950748
473,8150.0,0.963597
474,8170.0,0.973997
475,8190.0,0.941571
476,8210.0,0.928722
477,8230.0,0.934229
478,8250.0,0.933005
479,8270.0,0.942794
480,8290.0,0.931782
481,8310.0,0.897521
482,8330.0,0.890791
483,8350.0,0.890179
484,8370.0,0.896298
485,8390.0,0.863872
486,8410.0,0.894462
487,8430.0,0.847965
488,8450.0,0.826552
489,8470.0,0.827776
490,8490.0,0.833894
491,8510.0,0.797185
492,8530.0,0.833282
493,8550.0,0.767205
494,8570.0,0.862037
495,8590.0,0.850412
496,8610.0,0.861425
497,8630.0,0.882226
498,8650.0,0.883449
499,8670.0,0.794738
500,8690.0,0.86326
501,8709.6359,0.8974981370349988
502,8710.0,0.898133
503,8730.0,0.905474
504,8750.0,0.89385
505,8770.0,0.914652
506,8790.0,0.928111
507,8810.0,0.909757
508,8830.0,0.920158
509,8850.0,0.915874
510,8870.0,0.875496
511,8890.0,0.892015
512,8910.0,0.904251
513,8930.0,0.887121
514,8950.0,0.890179
515,8970.0,0.89385
516,8990.0,0.895074
517,9010.0,0.863872
518,9030.0,0.900579
519,9050.0,0.933617
520,9070.0,0.934229
521,9090.0,0.916486
522,9110.0,0.928722
523,9130.0,0.947077
524,9150.0,0.939735
525,9170.0,0.939124
526,9190.0,0.950137
527,9210.0,0.909146
528,9230.0,0.879778
529,9250.0,0.879778
530,9270.0,0.887121
531,9290.0,0.874272
532,9310.0,0.880391
533,9330.0,0.882226
534,9350.0,0.878554
535,9370.0,0.86326
536,9390.0,0.880391
537,9410.0,0.862649
538,9430.0,0.886508
539,9450.0,0.873048
540,9470.0,0.895685
541,9490.0,0.897521
542,9510.0,0.879778
543,9530.0,0.884674
544,9550.0,0.865708
545,9570.0,0.878554
546,9590.0,0.897521
547,9610.0,0.884062
548,9630.0,0.890179
549,9650.0,0.872437
550,9670.0,0.873048
551,9690.0,0.888344
552,9710.0,0.87366
553,9730.0,0.864483
554,9750.0,0.861425
555,9770.0,0.866319
556,9790.0,0.852858
557,9810.0,0.876107
558,9830.0,0.866319
559,9850.0,0.87366
560,9870.0,0.866931
561,9890.0,0.866319
562,9910.0,0.857143
563,9930.0,0.86326
564,9950.0,0.865708
565,9970.0,0.866319
566,9990.0,0.86326
567,10000.0,0.86280125
568,10030.0,0.861425
569,10070.0,0.8498
570,10130.0,0.861425
571,10170.0,0.851023
572,10220.0,0.853471
573,10280.0,0.855918
574,10320.0,0.844906
575,10380.0,0.838787
576,10430.0,0.841847
577,10480.0,0.82961
578,10520.0,0.821044
579,10580.0,0.803914
580,10630.0,0.796572
581,10680.0,0.788007
582,10720.0,0.792902
583,10780.0,0.787395
584,10820.0,0.775159
585,10870.0,0.772101
586,10920.0,0.769654
587,10980.0,0.759865
588,11020.0,0.754969
589,11080.0,0.742122
590,11130.0,0.739674
591,11170.0,0.734169
592,11220.0,0.734169
593,11280.0,0.723768
594,11330.0,0.722545
595,11380.0,0.717038
596,11430.0,0.709084
597,11470.0,0.71826
598,11481.5362,0.71767223061
599,11530.0,0.715203
600,11570.0,0.706637
601,11620.0,0.695012
602,11670.0,0.694401
603,11730.0,0.696847
604,11770.0,0.680329
605,11830.0,0.672988
606,11870.0,0.660751
607,11920.0,0.671153
608,11980.0,0.648515
609,12030.0,0.660751
610,12070.0,0.654633
611,12120.0,0.655246
612,12180.0,0.655858
613,12230.0,0.651575
614,12270.0,0.646679
615,12320.0,0.641173
616,12370.0,0.639339
617,12430.0,0.628938
618,12480.0,0.627102
619,12530.0,0.620985
620,12580.0,0.618538
621,12620.0,0.614255
622,12670.0,0.608442
623,12720.0,0.608442
624,12780.0,0.607891
625,12830.0,0.586478
626,12880.0,0.596511
627,12920.0,0.589538
628,12980.0,0.595166
629,13020.0,0.587029
630,13080.0,0.588497
631,13130.0,0.574854
632,13180.0,0.573202
633,13182.5674,0.573183103936
634,13230.0,0.572834
635,13280.0,0.562252
636,13320.0,0.561761
637,13380.0,0.555093
638,13430.0,0.556684
639,13470.0,0.551606
640,13520.0,0.546956
641,13570.0,0.539063
642,13630.0,0.536004
643,13670.0,0.53839
644,13730.0,0.539307
645,13770.0,0.537655
646,13820.0,0.537961
647,13880.0,0.532333
648,13930.0,0.50835
649,13970.0,0.504679
650,14020.0,0.499296
651,14080.0,0.502966
652,14120.0,0.496175
653,14180.0,0.500946
654,14230.0,0.495686
655,14280.0,0.487427
656,14330.0,0.495626
657,14380.0,0.499481
658,14420.0,0.487244
659,14480.0,0.495441
660,14520.0,0.491282
661,14570.0,0.493667
662,14620.0,0.482777
663,14670.0,0.479534
664,14720.0,0.475252
665,14770.0,0.478188
666,14830.0,0.480513
667,14880.0,0.474884
668,14920.0,0.487549
669,14980.0,0.4829
670,15030.0,0.47519
671,15070.0,0.47672
672,15120.0,0.485592
673,15135.6125,0.48606943025
674,15170.0,0.487121
675,15220.0,0.486693
676,15280.0,0.489751
677,15330.0,0.488406
678,15370.0,0.487427
679,15430.0,0.483573
680,15480.0,0.484489
681,15520.0,0.479962
682,15570.0,0.466993
683,15620.0,0.471213
684,15670.0,0.46895
685,15720.0,0.479105
686,15780.0,0.450045
687,15830.0,0.451758
688,15870.0,0.450412
689,15930.0,0.464239
690,15980.0,0.455552
691,16050.0,0.45806
692,16150.0,0.464423
693,16250.0,0.451819
694,16350.0,0.464117
695,16450.0,0.445885
696,16550.0,0.45549
697,16650.0,0.444906
698,16750.0,0.442153
699,16850.0,0.43469
700,16950.0,0.435852
701,17050.0,0.426735
702,17150.0,0.420189
703,17250.0,0.411134
704,17350.0,0.399143
705,17378.0083,0.39773782358899995
706,17450.0,0.394126
707,17550.0,0.386294
708,17650.0,0.378282
709,17750.0,0.367818
710,17850.0,0.361639
711,17950.0,0.352278
712,18050.0,0.342857
713,18150.0,0.336311
714,18250.0,0.33166
715,18350.0,0.327072
716,18450.0,0.318629
717,18550.0,0.315081
718,18650.0,0.306882
719,18750.0,0.299174
720,18850.0,0.298928
721,18950.0,0.288101
722,19050.0,0.291587
723,19150.0,0.286326
724,19250.0,0.282655
725,19350.0,0.275129
726,19450.0,0.268338
727,19550.0,0.267237
728,19650.0,0.262648
729,19750.0,0.255736
730,19850.0,0.253106
731,19950.0,0.250168
732,19952.6231,0.25013429316499997
733,20050.0,0.248883
734,20150.0,0.245458
735,20250.0,0.23995
736,20350.0,0.237686
737,20450.0,0.236953
738,20550.0,0.233159
739,20650.0,0.230284
740,20750.0,0.228387
741,20850.0,0.225206
742,20950.0,0.221353
743,21050.0,0.221353
744,21150.0,0.217376
745,21250.0,0.214866
746,21350.0,0.214255
747,21450.0,0.211318
748,21550.0,0.208259
749,21650.0,0.204649
750,21750.0,0.202018
751,21850.0,0.200122
752,21950.0,0.197797
753,22050.0,0.192964
754,22150.0,0.193209
755,22250.0,0.188682
756,22350.0,0.18654
757,22450.0,0.184276
758,22550.0,0.182196
759,22650.0,0.17828
760,22750.0,0.177913
761,22850.0,0.173753
762,22908.6765,0.15871127922499964
763,22950.0,0.148118
764,23050.0,0.15699
765,23150.0,0.156134
766,23250.0,0.134843
767,23350.0,0.143897
768,23450.0,0.138635
769,23550.0,0.124381
770,23650.0,0.133436
771,23750.0,0.128358
772,23850.0,0.116978
773,23950.0,0.123647
774,24050.0,0.121077
775,24150.0,0.111226
776,24250.0,0.115509
777,24350.0,0.112573
778,24450.0,0.106699
779,24550.0,0.104742
780,24650.0,0.105782
781,24750.0,0.101193
782,24850.0,0.0921386
783,24950.0,0.0913432
784,25050.0,0.0926281
785,25150.0,0.0868158
786,25250.0,0.0890184
787,25350.0,0.0887737
788,25450.0,0.0867546
789,25550.0,0.0865712
790,25650.0,0.0866936
791,25750.0,0.0876112
792,25850.0,0.0842463
793,25950.0,0.0848582
794,26050.0,0.0855924
795,26150.0,0.0838794
796,26250.0,0.082656
797,26302.679900000003,0.0827527729763
798,26350.0,0.0828397
799,26450.0,0.081922
800,26550.0,0.0811267
801,26650.0,0.0791691
802,26750.0,0.0807599
803,26850.0,0.0799035
804,26950.0,0.0773953
805,27050.0,0.0778848
806,27150.0,0.0770284
807,27250.0,0.0770285
808,27350.0,0.0751931
809,27450.0,0.0751932
810,27550.0,0.0748262
811,27650.0,0.0737251
812,27750.0,0.0721956
813,27850.0,0.0725016
814,27950.0,0.0722569
815,28050.0,0.0710335
816,28150.0,0.0699324
817,28250.0,0.0698712
818,28350.0,0.0691985
819,28450.0,0.0684645
820,28550.0,0.0677303
821,28650.0,0.0673633
822,28750.0,0.0666293
823,28850.0,0.0655893
824,28950.0,0.0650999
825,29050.0,0.0646717
826,29150.0,0.0641212
827,29250.0,0.0626529
828,29350.0,0.0628366
829,29450.0,0.0617967
830,29550.0,0.0614301
831,29650.0,0.0610513
832,29750.0,0.0602077
833,29850.0,0.0596148
834,29950.0,0.0590832
835,30050.0,0.0583559
836,30150.0,0.0582952
837,30199.5172,0.057831966594000014
838,30250.0,0.0573597
839,30350.0,0.0567792
840,30450.0,0.0569205
841,30550.0,0.0559911
842,30650.0,0.055692
843,30750.0,0.0552827
844,30850.0,0.054549
845,30950.0,0.0545375
846,31050.0,0.0542873
847,31150.0,0.0532722
848,31250.0,0.0532728
849,31350.0,0.0527167
850,31450.0,0.0523748
851,31550.0,0.052048
852,31650.0,0.0513648
853,31750.0,0.0511271
854,31850.0,0.0508376
855,31950.0,0.0506695
856,32100.0,0.0502902
857,32300.0,0.0501713
858,32500.0,0.0504048
859,32700.0,0.0505825
860,32900.0,0.0504666
861,33100.0,0.0496897
862,33300.0,0.0482393
863,33500.0,0.0464344
864,33700.0,0.0445733
865,33900.0,0.0431994
866,34100.0,0.042026
867,34300.0,0.0412616
868,34500.0,0.0406043
869,34673.685,0.03992319427250001
870,34700.0,0.03982
871,34900.0,0.0391033
872,35100.0,0.0384353
873,35300.0,0.0376266
874,35500.0,0.0370137
875,35700.0,0.0362906
876,35900.0,0.035586
877,36100.0,0.0351688
878,36300.0,0.034452
879,36500.0,0.0338024
880,36700.0,0.0331649
881,36900.0,0.0324603
882,37100.0,0.0318536
883,37300.0,0.0313753
884,37500.0,0.0306522
885,37700.0,0.0301616
886,37900.0,0.029561
887,38100.0,0.0291929
888,38300.0,0.0287497
889,38500.0,0.0282597
890,38700.0,0.0276169
891,38900.0,0.0272004
892,39100.0,0.0267164
893,39300.0,0.0263122
894,39500.0,0.0256694
895,39700.0,0.0252957
896,39810.7171,0.024976945469099995
897,39900.0,0.0247199
898,40100.0,0.0244624
899,40300.0,0.0241072
900,40500.0,0.0235807
901,40700.0,0.0232436
902,40900.0,0.0228393
903,41100.0,0.0225331
904,41300.0,0.0221531
905,41500.0,0.0217674
906,41700.0,0.0213752
907,41900.0,0.0211178
908,42100.0,0.0206951
909,42300.0,0.0204805
910,42500.0,0.0201068
911,42700.0,0.0198433
912,42900.0,0.0188699
913,43100.0,0.017909
914,43300.0,0.0179206
915,43500.0,0.0170865
916,43700.0,0.0166946
917,43900.0,0.0164189
918,44100.0,0.0157635
919,44300.0,0.0155555
920,44500.0,0.0153224
921,44700.0,0.0149116
922,44900.0,0.014862
923,45100.0,0.0145561
924,45300.0,0.0142618
925,45500.0,0.014249
926,45700.0,0.0141511
927,45708.818999999996,0.014131892218000009
928,45900.0,0.0137155
929,46100.0,0.0137766
930,46300.0,0.0136048
931,46500.0,0.0134146
932,46700.0,0.0134506
933,46900.0,0.0132481
934,47100.0,0.0130456
935,47300.0,0.0130762
936,47500.0,0.0128247
937,47700.0,0.0127507
938,47900.0,0.0126705
939,48100.0,0.0124503
940,48300.0,0.0125108
941,48500.0,0.0123138
942,48700.0,0.0121486
943,48900.0,0.0120318
944,49100.0,0.0119333
945,49300.0,0.0118354
946,49500.0,0.0116708
947,49700.0,0.0116555
948,49900.0,0.0114561
949,50100.0,0.0113973
950,50300.0,0.0112957
951,50500.0,0.0111331
952,50700.0,0.0110804
953,50900.0,0.0109849
954,51100.0,0.0108528
955,51300.0,0.0108124
956,51500.0,0.0106864
957,51700.0,0.0106644
958,51900.0,0.0105445
959,52100.0,0.0104735
960,52300.0,0.0103475
