,lambda (Angstroms),Total Flux (erg/s/cm^2/Angstrom)
0,1005.0,0.16840791565280436
1,1015.0,0.15714910410228375
2,1025.0,0.0754100925517631
3,1035.0,0.10746648100124248
4,1045.0,0.20309066945072185
5,1055.0,0.21195985790020122
6,1065.0,0.17249604634968058
7,1075.0,0.20265623479915995
8,1085.0,0.15744242324863933
9,1095.0,0.2076086116981187
10,1096.4782,0.20902830283472074
11,1105.0,0.21720951220310378
12,1115.0,0.21065784237792956
13,1125.0,0.20581817255275534
14,1135.0,0.2488835027275811
15,1145.0,0.2245898329024069
16,1155.0,0.24636416307723266
17,1165.0,0.26140849325205845
18,1175.0,0.20970482342688423
19,1185.0,0.24463415360171
20,1195.0,0.12844548377653578
21,1205.0,0.10592681395136155
22,1215.0,0.06505164412618734
23,1225.0,0.13222347430101314
24,1235.0,0.2501738044758389
25,1245.0,0.2984391346506647
26,1255.0,0.2817924648254905
27,1258.92541,0.25304289159264637
28,1265.0,0.20855648416937037
29,1275.0,0.3287158874603309
30,1285.0,0.3592452907512915
31,1295.0,0.27946669404225205
32,1305.0,0.25309809733321265
33,1315.0,0.3399755006241732
34,1325.0,0.3338569039151338
35,1335.0,0.27604230720609435
36,1345.0,0.36071671049705495
37,1355.0,0.3454831137880155
38,1365.0,0.29978151707897605
39,1375.0,0.33153492036993665
40,1385.0,0.33740832366089724
41,1395.0,0.3237037269518578
42,1405.0,0.32713113024281837
43,1415.0,0.3081655335337789
44,1425.0,0.3254789368247395
45,1435.0,0.3098783401157001
46,1442.0,0.33471862241937245
47,1445.43977,0.34452623336618704
48,1447.0,0.34897481395253455
49,1455.0,0.3352690847349056
50,1465.0,0.3056584232128694
51,1475.0,0.2975217616908332
52,1485.0,0.309880100168797
53,1495.0,0.32162843864676083
54,1505.0,0.3078007771247246
55,1512.0,0.2705420140592993
56,1517.0,0.2963601832982812
57,1525.0,0.27090945408065226
58,1535.0,0.23530279255861603
59,1545.0,0.28198513103657985
60,1555.0,0.25775746951454365
61,1565.0,0.24955980799250746
62,1575.0,0.26387614647047125
63,1585.0,0.2827194849484351
64,1595.0,0.2915298234263988
65,1605.0,0.2781321619043627
66,1615.0,0.2796625003823265
67,1625.0,0.25684283886029025
68,1635.0,0.2722601773382541
69,1645.0,0.2778885158162179
70,1655.0,0.24485185429418166
71,1659.58691,0.25860264834897734
72,1665.0,0.27483134758086425
73,1672.0,0.2268060778697027
74,1677.0,0.2707353137903015
75,1685.0,0.29319029126325974
76,1695.0,0.27165676310445747
77,1705.0,0.2552022349456552
78,1715.0,0.24009370678685293
79,1725.0,0.23752617862805067
80,1735.0,0.25429265046924837
81,1745.0,0.24811512231044613
82,1755.0,0.2713665941516438
83,1765.0,0.2353330659928416
84,1775.0,0.2508145378340393
85,1785.0,0.2519800096752371
86,1795.0,0.2742514815164348
87,1805.0,0.2666069533576325
88,1815.0,0.24892842519883027
89,1825.0,0.24825689704002799
90,1835.0,0.23547336888122572
91,1845.0,0.21430784072242345
92,1855.0,0.21479931256362117
93,1865.0,0.22171578440481893
94,1875.0,0.24080525624601665
95,1885.0,0.22373872808721437
96,1895.0,0.2175621999284121
97,1905.0,0.22276467176960982
98,1905.46072,0.22255340731627749
99,1915.0,0.21817374621749755
100,1925.0,0.2156615599866919
101,1935.0,0.21474137375588626
102,1945.0,0.2259961875250806
103,1955.0,0.21442900129427497
104,1967.0,0.2341241778173082
105,1976.0,0.23779231020958314
106,1984.0,0.22500376122493865
107,1995.0,0.21594525637105244
108,2005.0,0.2188180701402468
109,2015.0,0.20749588390944115
110,2025.0,0.21679269767863552
111,2035.0,0.2085905114478299
112,2045.0,0.21837632521702424
113,2055.0,0.2067491389862186
114,2065.0,0.20539995275541295
115,2074.0,0.22008108514768787
116,2078.0,0.21879481065536563
117,2085.0,0.2250325802938017
118,2095.0,0.21144739406299604
119,2105.0,0.2075282078321904
120,2115.0,0.20978802160138477
121,2125.0,0.2114378353705791
122,2135.0,0.1887366491397735
123,2145.0,0.20274346290896786
124,2155.0,0.20855227667816223
125,2165.0,0.19668109044735657
126,2175.0,0.19380190421655094
127,2185.0,0.1940437179857453
128,2187.7616199999998,0.1967796034898733
129,2195.0,0.20395467687751703
130,2205.0,0.1949032172355025
131,2215.0,0.179181757593488
132,2225.0,0.17404529795147347
133,2235.0,0.19509483830945895
134,2245.0,0.1811473786674444
135,2255.0,0.16915891902542987
136,2265.0,0.17246545938341534
137,2275.0,0.1805439997414008
138,2285.0,0.19107054009938632
139,2295.0,0.17871308045737178
140,2305.0,0.17834862081535727
141,2315.0,0.16666716117334274
142,2325.0,0.12543370153132818
143,2335.0,0.14923524188931367
144,2345.0,0.13865178224729913
145,2355.0,0.16172132260528463
146,2365.0,0.13829086296327012
147,2375.0,0.14753140332125558
148,2385.0,0.12899694367924106
149,2395.0,0.1434374840372265
150,2405.0,0.136466024395212
151,2415.0,0.14221856475319747
152,2425.0,0.16088210511118295
153,2435.0,0.1545216454691684
154,2445.0,0.1688401858271539
155,2455.0,0.16633472618513936
156,2465.0,0.16260526654312482
157,2475.0,0.1533688069011103
158,2485.0,0.1530663472590958
159,2495.0,0.15019288761708127
160,2505.0,0.17313742797506673
161,2511.88643,0.14601783362356083
162,2513.0,0.14163206789023172
163,2518.0,0.1426705762975201
164,2525.0,0.1353288880677238
165,2535.0,0.14321990488230052
166,2545.0,0.1416289216968772
167,2555.0,0.16652893851145392
168,2565.0,0.15422995532603065
169,2575.0,0.17099097214060735
170,2585.0,0.16548498895518407
171,2595.0,0.1603460057697608
172,2605.0,0.1508000225843375
173,2615.0,0.1467600393989142
174,2625.0,0.16175005621349092
175,2635.0,0.18493607302806764
176,2645.0,0.21558708984264432
177,2655.0,0.24354510665722107
178,2665.0,0.19331512347179777
179,2675.0,0.20897514028637446
180,2685.0,0.2176621571009512
181,2695.0,0.1906191739155279
182,2705.0,0.20915619073010464
183,2715.0,0.18150120754468133
184,2725.0,0.17110022435925804
185,2735.0,0.19024924117383477
186,2745.0,0.14699325798841145
187,2755.0,0.15922827480298818
188,2765.0,0.1762342916175649
189,2775.0,0.1868193084321416
190,2785.0,0.1587963252467183
191,2795.0,0.11101234206129502
192,2805.0,0.12349335887587173
193,2815.0,0.17990037569044845
194,2825.0,0.20804339250502515
195,2835.0,0.19764140931960186
196,2845.0,0.17506542613417858
197,2855.0,0.1531004429487553
198,2865.0,0.200942459763332
199,2875.0,0.22412847657790871
200,2884.0315,0.21705502096399362
201,2885.0,0.21629658666526405
202,2895.0,0.2336105665441528
203,2910.0,0.2842085363624859
204,2930.0,0.2590614961202634
205,2950.0,0.24707145587804094
206,2970.0,0.25416841563581843
207,2990.0,0.25630937539359594
208,3010.0,0.2585113351513734
209,3030.0,0.2664642949091509
210,3050.0,0.27093025466692844
211,3070.0,0.2850642144247059
212,3090.0,0.28255517418248344
213,3110.0,0.3056811339402609
214,3130.0,0.29063009369803844
215,3150.0,0.2923430534558159
216,3170.0,0.30812901321359343
217,3190.0,0.27674197297137093
218,3210.0,0.29742093272914844
219,3230.0,0.2651178924869259
220,3250.0,0.33015385224470345
221,3270.0,0.36832981200248094
222,3290.0,0.36294577176025844
223,3310.0,0.3468567315180359
224,3311.31121,0.3472417001357357
225,3330.0,0.3527280100375989
226,3350.0,0.34281624076132494
227,3370.0,0.28334847148505093
228,3390.0,0.3061677022087769
229,3410.0,0.31155093293250297
230,3430.0,0.32097116365622896
231,3450.0,0.331860394379955
232,3470.0,0.338528625103681
233,3490.0,0.36807785582740704
234,3510.0,0.387288086551133
235,3530.0,0.35614631727485907
236,3550.0,0.39750354799858506
237,3570.0,0.29943077872231105
238,3590.0,0.3023660094460371
239,3610.0,0.3566332401697631
240,3630.0,0.37229447089348916
241,3640.0,0.38385708625535214
242,3650.0,0.4266227016172151
243,3670.0,0.44485293234094114
244,3690.0,0.3998861630646672
245,3710.0,0.4263753937883932
246,3730.0,0.3208986245121192
247,3750.0,0.3748598552358452
248,3770.0,0.4528020859595712
249,3790.0,0.4873683166832972
250,3801.8939600000003,0.48838717156823563
251,3810.0,0.4890816123720185
252,3830.0,0.3252390033836169
253,3850.0,0.4376273943952153
254,3870.0,0.45500278540681366
255,3890.0,0.43518017641841206
256,3910.0,0.5747935674300104
257,3930.0,0.3567439584416089
258,3950.0,0.5088993494532073
259,3970.0,0.3335547404648056
260,3990.0,0.6743931314764041
261,4010.0,0.7435265224880023
262,4030.0,0.7361849134996008
263,4050.0,0.7129353045111991
264,4070.0,0.6737776955227975
265,4090.0,0.754537086534396
266,4110.0,0.6829554775459944
267,4130.0,0.7263908685575928
268,4150.0,0.7245552595691912
269,4170.0,0.7312856505807896
270,4190.0,0.719659041592388
271,4210.0,0.7257774326039863
272,4230.0,0.6921278236155847
273,4250.0,0.7294472146271831
274,4270.0,0.6902906056387815
275,4290.0,0.65786399665038
276,4310.0,0.5834673876619784
277,4330.0,0.7410697786735767
278,4350.0,0.7202671696851751
279,4365.15832,0.8032683630311191
280,4370.0,0.8297797924481201
281,4390.0,0.7508571407776188
282,4410.0,0.7863414891071174
283,4430.0,0.8328398374366162
284,4450.0,0.840794185766115
285,4470.0,0.8897395340956137
286,4490.0,0.9056458824251123
287,4510.0,1.020672230754611
288,4530.0,0.8976935790841097
289,4550.0,0.9337899274136086
290,4570.0,1.0041532757431073
291,4590.0,0.9515336240726059
292,4610.0,0.9741709724021046
293,4630.0,0.9484753207316032
294,4650.0,0.961323669061102
295,4670.0,1.0004750173906007
296,4690.0,0.9821253657200995
297,4710.0,0.9484767140495981
298,4730.0,0.9827390623790968
299,4750.0,1.0108864107085955
300,4770.0,0.9961977590380944
301,4790.0,0.998035107367593
302,4810.0,0.9943614556970917
303,4830.0,1.0237378040265905
304,4850.0,0.9466441523560891
305,4870.0,0.8536495006855879
306,4890.0,0.9815168490150866
307,4910.0,0.9857991973445853
308,4930.0,0.9643875456740839
309,4950.0,1.0065998940035827
310,4970.0,0.9864132423330814
311,4990.0,0.9178915906625802
312,5010.0,0.8658889389920789
313,5011.87234,0.8709864172516413
314,5030.0,0.920339350765182
315,5050.0,0.9148337690911441
316,5070.0,0.9546021874171062
317,5090.0,0.9013736057430684
318,5110.0,0.9246230240690305
319,5130.0,0.8897514423949926
320,5150.0,0.8548778607209546
321,5170.0,0.7875792790469167
322,5190.0,0.8151116973728788
323,5210.0,0.883634115698841
324,5230.0,0.9515455340248031
325,5250.0,0.9943699523507652
326,5270.0,0.8744583706767274
327,5290.0,1.0060067890026894
328,5310.0,1.0690072073286516
329,5330.0,0.9362526256546136
330,5350.0,1.0274080439805757
331,5370.0,1.0200784623065378
332,5390.0,0.9962098806325
333,5410.0,0.9796932989584621
334,5430.0,0.9949897172844242
335,5450.0,1.0225301356103864
336,5470.0,1.0004905539363484
337,5490.0,1.0072309722623105
338,5510.0,0.9931543905882727
339,5530.0,1.0304718089142348
340,5550.0,1.0451622272401968
341,5570.0,1.021912645566159
342,5590.0,0.994993063892121
343,5610.0,1.032313482218083
344,5630.0,1.0243639005440452
345,5650.0,1.0402643188700074
346,5670.0,1.0133447371959696
347,5690.0,1.0470051555219317
348,5710.0,1.0096755738478937
349,5730.0,1.098385992173856
350,5750.0,1.054336410499818
351,5754.399369999999,1.056760555388352
352,5770.0,1.0653573336113136
353,5790.0,1.0206983990720813
354,5810.0,1.0653594645328495
355,5830.0,1.0977805299936174
356,5850.0,1.0604615954543852
357,5870.0,1.0586326609151533
358,5890.0,0.9307617263759214
359,5910.0,1.0384447918366893
360,5930.0,1.0476258572974573
361,5950.0,1.0476269227582253
362,5970.0,1.0665879882189933
363,5990.0,1.0470190536797612
364,6010.0,1.0323301191405292
365,6030.0,1.0623111846012974
366,6050.0,1.081882250062065
367,6070.0,1.0788233155228333
368,6090.0,1.0378443809836013
369,6110.0,1.042125446444369
370,6130.0,0.9815545119051372
371,6150.0,1.0096975773659052
372,6170.0,0.9521916428266731
373,6190.0,1.015829708287441
374,6210.0,1.006040773748209
375,6230.0,0.9717718392089771
376,6250.0,0.939346904669745
377,6270.0,0.986456970130513
378,6290.0,1.006645035591281
379,6310.0,0.978506101052049
380,6330.0,0.993190166512817
381,6350.0,0.993806231973585
382,6370.0,0.9882982974343529
383,6390.0,1.009710362895121
384,6410.0,0.988912428355889
385,6430.0,0.9993124938166569
386,6450.0,0.991360559277425
387,6470.0,0.9889156247381929
388,6490.0,0.9687256901989608
389,6510.0,1.004826755659729
390,6530.0,1.0029978211204968
391,6550.0,0.9730118865812648
392,6570.0,0.9136679520420329
393,6590.0,0.9852520175028008
394,6606.93448,0.995096932878004
395,6610.0,0.9968789205937947
396,6630.0,0.9858619267251559
397,6650.0,0.9852529328565172
398,6670.0,0.9607789389878785
399,6690.0,0.9742389451192398
400,6710.0,0.9338589512506011
401,6730.0,0.9601679573819623
402,6750.0,0.9424259635133236
403,6770.0,0.9479309696446849
404,6790.0,0.9350829757760463
405,6810.0,0.9405899819074074
406,6830.0,0.9528259880387687
407,6850.0,0.9265189941701301
408,6870.0,0.9430360003014914
409,6890.0,0.9577190064328527
410,6910.0,0.9552740125642138
411,6930.0,0.9473190186955751
412,6950.0,0.9479310248269365
413,6970.0,0.9613910309582978
414,6990.0,0.956498037089659
415,7010.0,0.9424260432210203
416,7030.0,0.9638390493523816
417,7050.0,0.9687320554837429
418,7070.0,0.9356940616151042
419,7090.0,0.9032690677464654
420,7110.0,0.8794080738778267
421,7130.0,0.8598310800091881
422,7150.0,0.8561600861405493
423,7170.0,0.8677840922719106
424,7190.0,0.8463710984032718
425,7210.0,0.8677841045346332
426,7230.0,0.8891981106659944
427,7250.0,0.8965401167973557
428,7270.0,0.903880122928717
429,7290.0,0.8910331290600783
430,7310.0,0.9191771351914395
431,7330.0,0.9228471413228009
432,7350.0,0.9338591474541621
433,7370.0,0.9601681535855233
434,7390.0,0.9412021597168847
435,7410.0,0.941813165848246
436,7430.0,0.9668971719796072
437,7450.0,0.9662861781109685
438,7470.0,0.9840291842423298
439,7490.0,0.9821921903736911
440,7510.0,0.9938201965050524
441,7530.0,1.0115622026364137
442,7550.0,1.0195122087677748
443,7570.0,1.0152322148991362
444,7585.77575,0.9959266456729776
445,7590.0,0.9907573112991562
446,7610.0,0.9705677448136445
447,7630.0,0.9467091783281328
448,7650.0,0.924072611842621
449,7670.0,0.8757400453571094
450,7690.0,0.8983774788715976
451,7710.0,0.8806359123860859
452,7730.0,0.8830833459005741
453,7750.0,0.8769657794150625
454,7770.0,0.8885902129295506
455,7790.0,0.8971556464440389
456,7810.0,0.8959320799585272
457,7830.0,0.8885915134730156
458,7850.0,0.8757439469875038
459,7870.0,0.892263380501992
460,7890.0,0.8800268140164803
461,7910.0,0.8592272475309686
462,7930.0,0.8635096810454569
463,7950.0,0.8567791145599452
464,7970.0,0.8873715480744335
465,7990.0,0.8885949815889217
466,8010.0,0.8983844151034099
467,8030.0,0.9026658486178983
468,8050.0,0.9038902821323865
469,8070.0,0.9179637156468748
470,8090.0,0.9093991491613631
471,8110.0,0.9210245826758514
472,8130.0,0.9510020161903396
473,8150.0,0.963851449704828
474,8170.0,0.9742518832193162
475,8190.0,0.9418263167338045
476,8210.0,0.9289777502482928
477,8230.0,0.934485183762781
478,8250.0,0.9332616172772692
479,8270.0,0.9430510507917576
480,8290.0,0.9320394843062458
481,8310.0,0.8977789178207342
482,8330.0,0.8910493513352223
483,8350.0,0.8904377848497107
484,8370.0,0.896557218364199
485,8390.0,0.8641316518786871
486,8410.0,0.8947220853931754
487,8430.0,0.8482255189076637
488,8450.0,0.826812952422152
489,8470.0,0.8280373859366402
490,8490.0,0.8341558194511286
491,8510.0,0.7974472529656169
492,8530.0,0.833544686480105
493,8550.0,0.7674681199945934
494,8570.0,0.8623005535090817
495,8590.0,0.85067598702357
496,8610.0,0.8616894205380582
497,8630.0,0.8824908540525465
498,8650.0,0.8837142875670349
499,8670.0,0.7950037210815231
500,8690.0,0.8635261545960113
501,8709.6359,0.8977647172533672
502,8710.0,0.898399602820852
503,8730.0,0.9057418443744695
504,8750.0,0.894119085928087
505,8770.0,0.9149223274817044
506,8790.0,0.928382569035322
507,8810.0,0.9100298105889395
508,8830.0,0.920432052142557
509,8850.0,0.9161492936961745
510,8870.0,0.875772535249792
511,8890.0,0.8922927768034095
512,8910.0,0.9045300183570271
513,8930.0,0.8874012599106446
514,8950.0,0.890460501464262
515,8970.0,0.8941327430178796
516,8990.0,0.8953579845714971
517,9010.0,0.8641572261251145
518,9030.0,0.9008654676787321
519,9050.0,0.9339047092323496
520,9070.0,0.934517950785967
521,9090.0,0.9167761923395846
522,9110.0,0.9290134338932021
523,9130.0,0.9473696754468195
524,9150.0,0.9400289170004371
525,9170.0,0.9394191585540546
526,9190.0,0.9504334001076721
527,9210.0,0.9094436416612897
528,9230.0,0.8800768832149071
529,9250.0,0.8800781247685245
530,9270.0,0.8874223663221422
531,9290.0,0.8745746078757597
532,9310.0,0.8806948494293771
533,9330.0,0.8825310909829946
534,9350.0,0.8788603325366121
535,9370.0,0.8635675740902297
536,9390.0,0.8806998156438473
537,9410.0,0.8629590571974647
538,9430.0,0.8868192987510821
539,9450.0,0.8733605403046997
540,9470.0,0.8959987818583172
541,9490.0,0.8978360234119347
542,9510.0,0.8800942649655521
543,9530.0,0.8849915065191697
544,9550.0,0.8660267480727872
545,9570.0,0.8788739896264046
546,9590.0,0.8978422311800223
547,9610.0,0.8843844727336397
548,9630.0,0.8905027142872572
549,9650.0,0.8727619558408748
550,9670.0,0.8733741973944923
551,9690.0,0.8886714389481097
552,9710.0,0.8739886805017273
553,9730.0,0.8648129220553448
554,9750.0,0.8617561636089622
555,9770.0,0.8666514051625798
556,9790.0,0.8531916467161973
557,9810.0,0.8764418882698147
558,9830.0,0.8666551298234323
559,9850.0,0.8739973713770498
560,9870.0,0.8672696129306673
561,9890.0,0.8666588544842848
562,9910.0,0.8574840960379023
563,9930.0,0.8636023375915198
564,9950.0,0.8660515791451374
565,9970.0,0.8666638206987548
566,9990.0,0.8636060622523724
567,10000.0,0.863147933029181
568,10030.0,0.8617735502852959
569,10070.0,0.8501510399601155
570,10130.0,0.8617797744723451
571,10170.0,0.8513802641471647
572,10220.0,0.8538313762406894
573,10280.0,0.8562821107529189
574,10320.0,0.8452726004277387
575,10380.0,0.8391573349399681
576,10430.0,0.8422204470334927
577,10480.0,0.8299865591270174
578,10520.0,0.821423048801837
579,10580.0,0.8042967833140666
580,10630.0,0.7969578954075912
581,10680.0,0.7883960075011158
582,10720.0,0.7932934971759356
583,10780.0,0.787790231688165
584,10820.0,0.7755567213629848
585,10870.0,0.7725018334565094
586,10920.0,0.7700579455500339
587,10980.0,0.7602726800622636
588,11020.0,0.7553791697370832
589,11080.0,0.7425359042493127
590,11130.0,0.7400910163428374
591,11170.0,0.734588506017657
592,11220.0,0.7345916181111816
593,11280.0,0.7241943526234111
594,11330.0,0.7229744647169358
595,11380.0,0.7174705768104603
596,11430.0,0.7095196889039851
597,11470.0,0.7186981785788047
598,11481.5362,0.718111127223471
599,11530.0,0.7156476915067326
600,11570.0,0.7070864743700338
601,11620.0,0.6954674529491603
602,11670.0,0.694862431528287
603,11730.0,0.6973156058232388
604,11770.0,0.68080238868654
605,11830.0,0.6734685629814919
606,11870.0,0.6612363458447931
607,11920.0,0.6716443244239197
608,11980.0,0.6490134987188715
609,12030.0,0.661255477297998
610,12070.0,0.6551422601612994
611,12120.0,0.6557612387404259
612,12180.0,0.6563804130353779
613,12230.0,0.6521033916145044
614,12270.0,0.6472121744778055
615,12320.0,0.6417121530569322
616,12370.0,0.6398841316360587
617,12430.0,0.6294903059310106
618,12480.0,0.6276602845101372
619,12530.0,0.6215492630892637
620,12580.0,0.6191082416683903
621,12620.0,0.6148300245316914
622,12670.0,0.6090230031108181
623,12720.0,0.6090289816899447
624,12780.0,0.6084851559848964
625,12830.0,0.5870781345640231
626,12880.0,0.5971171131431496
627,12920.0,0.5901488960064508
628,12980.0,0.5957840703014027
629,13020.0,0.587651853164704
630,13080.0,0.5891270274596558
631,13130.0,0.5754900060387823
632,13180.0,0.573843984617909
633,13182.5674,0.57382539554199
634,13230.0,0.5734846670877843
635,13280.0,0.562911495912047
636,13320.0,0.5624275589714572
637,13380.0,0.5557701535605725
638,13430.0,0.5573699823848351
639,13470.0,0.5522990454442455
640,13520.0,0.5476578742685081
641,13570.0,0.5397737030927708
642,13630.0,0.5367252976818861
643,13670.0,0.5391183607412963
644,13730.0,0.5400459553304116
645,13770.0,0.5384010183898217
646,13820.0,0.5387158472140844
647,13880.0,0.5330984418031997
648,13930.0,0.5091242706274623
649,13970.0,0.5054603336868725
650,14020.0,0.5000861625111352
651,14080.0,0.5037667571002505
652,14120.0,0.49698282015966067
653,14180.0,0.501764414748776
654,14230.0,0.49651324357303867
655,14280.0,0.4882630723973014
656,14330.0,0.49647090122156406
657,14380.0,0.5003347300458267
658,14420.0,0.48810479310523697
