,lambda (Angstroms),Total Flux (erg/s/cm^2/Angstrom)
0,1005.0,2.1795239936181394
1,1015.0,2.14326623006344
2,1025.0,2.03652826650874
3,1035.0,2.0435857029540405
4,1045.0,2.114210939399341
5,1055.0,2.0980811758446407
6,1065.0,2.033618412289941
7,1075.0,2.0387796487352414
8,1085.0,1.968566885180542
9,1095.0,1.9937341216258422
10,1096.4782,1.9914584676771865
11,1105.0,1.9822008845521406
12,1115.0,1.9551854717461068
13,1125.0,1.929882058940073
14,1135.0,1.9524836461340391
15,1145.0,1.9077262333280058
16,1155.0,1.9090368205219717
17,1165.0,1.9036174077159378
18,1175.0,1.831449994909904
19,1185.0,1.8459155821038702
20,1195.0,1.7092631692978364
21,1205.0,1.666280756491803
22,1215.0,1.6049418436857692
23,1225.0,1.6516499308797352
24,1235.0,1.7491365180737017
25,1245.0,1.7769381052676676
26,1255.0,1.739827692461634
27,1258.92541,1.7030452610953404
28,1265.0,1.6496943825052113
29,1275.0,1.7552610788532292
30,1285.0,1.771197775201247
31,1295.0,1.676826471549265
32,1305.0,1.6358651678972824
33,1315.0,1.7081498642453006
34,1325.0,1.6874385605933186
35,1335.0,1.6150312569413363
36,1345.0,1.685112953289354
37,1355.0,1.6552866496373722
38,1365.0,1.5949923459853899
39,1375.0,1.6121530423334078
40,1385.0,1.6034337386814257
41,1395.0,1.5751364350294434
42,1405.0,1.5639711313774614
43,1415.0,1.5304128277254792
44,1425.0,1.533133524073497
45,1435.0,1.5029402204215145
46,1442.0,1.5175656078651272
47,1445.43977,1.5223536632558297
48,1447.0,1.5252130031255098
49,1455.0,1.5033585229331294
50,1465.0,1.4635619226926537
51,1475.0,1.4452393224521787
52,1485.0,1.447411722211703
53,1495.0,1.4489741219712275
54,1505.0,1.424960521730752
55,1512.0,1.3805716015624192
56,1517.0,1.4012968014421814
57,1525.0,1.367697321249801
58,1535.0,1.3219047210093255
59,1545.0,1.3584011207688502
60,1555.0,1.3239875205283744
61,1565.0,1.305603920287899
62,1575.0,1.3097343200474234
63,1585.0,1.3183917198069481
64,1595.0,1.3170161195664725
65,1605.0,1.293432519325997
66,1615.0,1.2847769190855216
67,1625.0,1.251771318845046
68,1635.0,1.2570027186045707
69,1645.0,1.252445118364095
70,1655.0,1.2092225181236198
71,1659.58691,1.2183011137617157
72,1665.0,1.2306668655547017
73,1672.0,1.1776461806421845
74,1677.0,1.218007262847529
75,1685.0,1.2347531943760808
76,1695.0,1.2060833587867705
77,1705.0,1.18249252319746
78,1715.0,1.1602476876081496
79,1725.0,1.1505438520188391
80,1735.0,1.1601740164295284
81,1745.0,1.1468601808402181
82,1755.0,1.1629753452509077
83,1765.0,1.1198055096615973
84,1775.0,1.1281506740722869
85,1785.0,1.1221798384829764
86,1795.0,1.137315002893666
87,1805.0,1.1225341673043556
88,1815.0,1.097719331715045
89,1825.0,1.0899114961257348
90,1835.0,1.0699916605364244
91,1845.0,1.0416898249471138
92,1855.0,1.0350449893578035
93,1865.0,1.0348251537684932
94,1875.0,1.0467783181791825
95,1885.0,1.0225754825898723
96,1895.0,1.0092626470005617
97,1905.0,1.0073288114112513
98,1905.46072,1.0067887630019807
99,1915.0,0.9974252011685876
100,1925.0,0.9896884060211621
101,1935.0,0.9835436108737371
102,1945.0,0.9895738157263118
103,1955.0,0.9727820205788866
104,1967.0,0.9862076664019762
105,1976.0,0.9851736507692935
106,1984.0,0.9682054146513532
107,1995.0,0.9533998399891855
108,2005.0,0.9510480448417602
109,2015.0,0.934501249694335
110,2025.0,0.9385734545469097
111,2035.0,0.9251466593994845
112,2045.0,0.9297078642520591
113,2055.0,0.9128560691046339
114,2065.0,0.9062822739572085
115,2074.0,0.9162612583245259
116,2078.0,0.9128851402655558
117,2085.0,0.9154656836623581
118,2095.0,0.8966558885149329
119,2105.0,0.8875120933675076
120,2115.0,0.8845472982200824
121,2125.0,0.8809725030726571
122,2135.0,0.853046707925232
123,2145.0,0.8618289127778066
124,2155.0,0.8624131176303814
125,2165.0,0.845317322482956
126,2175.0,0.8372135273355308
127,2185.0,0.8322307321881056
128,2187.7616199999998,0.8335237792446022
129,2195.0,0.8381369020185819
130,2205.0,0.825546044591892
131,2215.0,0.8062851871652023
132,2225.0,0.7976093297385123
133,2235.0,0.8151194723118224
134,2245.0,0.7976326148851324
135,2255.0,0.7821047574584425
136,2265.0,0.7818719000317527
137,2275.0,0.7864110426050627
138,2285.0,0.7933981851783727
139,2295.0,0.7775013277516829
140,2305.0,0.7735974703249929
141,2315.0,0.758376612898303
142,2325.0,0.7136037554716131
143,2335.0,0.7338658980449231
144,2345.0,0.7197430406182334
145,2355.0,0.7392731831915433
146,2365.0,0.7123033257648534
147,2375.0,0.7180044683381636
148,2385.0,0.6959306109114736
149,2395.0,0.7068317534847838
150,2405.0,0.6963208960580939
151,2415.0,0.698534038631404
152,2425.0,0.713658181204714
153,2435.0,0.703758323778024
154,2445.0,0.7145374663513342
155,2455.0,0.7084926089246443
156,2465.0,0.7012237514979544
157,2475.0,0.6884478940712644
158,2485.0,0.6846060366445746
159,2495.0,0.6781931792178847
160,2505.0,0.6975983217911947
161,2511.88643,0.6680413459310566
162,2513.0,0.663362235162044
163,2518.0,0.6630836057347845
164,2525.0,0.6538979245366212
165,2535.0,0.6591546656821019
166,2545.0,0.6549294068275829
167,2555.0,0.6771951479730638
168,2565.0,0.6622618891185447
169,2575.0,0.6763886302640255
170,2585.0,0.6682483714095064
171,2595.0,0.6604751125549874
172,2605.0,0.6482948537004682
173,2615.0,0.6416205948459491
174,2625.0,0.6539763359914301
175,2635.0,0.6745280771369109
176,2645.0,0.7025448182823919
177,2655.0,0.7278685594278728
178,2665.0,0.6750043005733536
179,2675.0,0.6880300417188345
180,2685.0,0.6940827828643154
181,2695.0,0.6644055240097964
182,2705.0,0.6803082651552772
183,2715.0,0.650019006300758
184,2725.0,0.6369837474462389
185,2735.0,0.6534984885917198
186,2745.0,0.6076082297372007
187,2755.0,0.6172089708826816
188,2765.0,0.6315807120281625
189,2775.0,0.6395314531736433
190,2785.0,0.6088741943191243
191,2795.0,0.5584559354646053
192,2805.0,0.568302676610086
193,2815.0,0.6220754177555671
194,2825.0,0.6475841589010478
195,2835.0,0.6345479000465287
196,2845.0,0.6093376411920097
197,2855.0,0.5847383823374905
198,2865.0,0.6299461234829715
199,2875.0,0.6504978646284524
200,2884.0315,0.6410452629439933
201,2885.0,0.6401065805589646
202,2895.0,0.6555594547455543
203,2910.0,0.7033657660254389
204,2930.0,0.6744965143986184
205,2950.0,0.6587842627717978
206,2970.0,0.6621590111449771
207,2990.0,0.6605777595181567
208,3010.0,0.6590575078913361
209,3030.0,0.6632882562645156
210,3050.0,0.664032004637695
211,3070.0,0.6744437530108744
212,3090.0,0.6682125013840539
213,3110.0,0.6876162497572332
214,3130.0,0.6688429981304127
215,3150.0,0.6668337465035921
216,3170.0,0.6788974948767716
217,3190.0,0.643788243249951
218,3210.0,0.6607449916231305
219,3230.0,0.6247197399963098
220,3250.0,0.6860334883694894
221,3270.0,0.7204872367426688
222,3290.0,0.7113809851158481
223,3310.0,0.6915697334890276
224,3311.31121,0.6917106720672475
225,3330.0,0.6947340183308691
226,3350.0,0.6821864832952907
227,3370.0,0.6200829482597123
228,3390.0,0.640266413224134
229,3410.0,0.6430138781885555
230,3430.0,0.6497983431529772
231,3450.0,0.6580518081173987
232,3470.0,0.6620842730818204
233,3490.0,0.688997738046242
234,3510.0,0.7055722030106636
235,3530.0,0.6717946679750852
236,3550.0,0.7105161329395069
237,3570.0,0.6098075979039284
238,3590.0,0.61010706286835
239,3610.0,0.6617385278327717
240,3630.0,0.6747639927971932
241,3640.0,0.6850087252794039
242,3650.0,0.7264564577616148
243,3670.0,0.7420509227260363
244,3690.0,0.694448387690458
245,3710.0,0.7183018526548796
246,3730.0,0.6101893176193012
247,3750.0,0.6615147825837229
248,3770.0,0.7368212475481444
249,3790.0,0.768751712512566
250,3801.8939600000003,0.7682030827719777
251,3810.0,0.7681391012571335
252,3830.0,0.60242523992202
253,3850.0,0.7129423785869065
254,3870.0,0.7284465172517931
255,3890.0,0.7067526559166797
256,3910.0,0.8444947945815662
257,3930.0,0.6245739332464526
258,3950.0,0.7748580719113392
259,3970.0,0.5976422105762258
260,3990.0,0.9366093492411123
261,4010.0,1.0038714879059987
262,4030.0,0.9946586265708854
263,4050.0,0.9695377652357718
264,4070.0,0.9285089039006584
265,4090.0,1.007397042565545
266,4110.0,0.9339441812304314
267,4130.0,0.975508319895318
268,4150.0,0.9718014585602046
269,4170.0,0.9766605972250911
270,4190.0,0.9631627358899777
271,4210.0,0.9674098745548642
272,4230.0,0.9318890132197507
273,4250.0,0.9673371518846372
274,4270.0,0.9263092905495237
275,4290.0,0.8920114292144103
276,4310.0,0.8157435678792968
277,4330.0,0.9714747065441833
278,4350.0,0.9488008452090699
279,4365.15832,1.0303837864614036
280,4370.0,1.0565758500497764
281,4390.0,0.9763339627890342
282,4410.0,1.0104990755282919
283,4430.0,1.0556781882675494
284,4450.0,1.062313301006807
285,4470.0,1.109939413746065
286,4490.0,1.1245265264853226
287,4510.0,1.2382336392245803
288,4530.0,1.113935751963838
289,4550.0,1.1487128647030955
290,4570.0,1.2177569774423533
291,4590.0,1.1638180901816109
292,4610.0,1.1851362029208685
293,4630.0,1.1581213156601262
294,4650.0,1.169650428399384
295,4670.0,1.2074825411386416
296,4690.0,1.1878136538778992
297,4710.0,1.152845766617157
298,4730.0,1.1857888793564146
299,4750.0,1.2126169920956724
300,4770.0,1.19660910483493
301,4790.0,1.1971272175741876
302,4810.0,1.1921343303134453
303,4830.0,1.220191443052703
304,4850.0,1.1417785557919609
305,4870.0,1.0474646685312183
306,4890.0,1.1740127812704761
307,4910.0,1.176975894009734
308,4930.0,1.1542450067489913
309,4950.0,1.195138119488249
310,4970.0,1.1736322322275068
311,4990.0,1.1037913449667645
312,5010.0,1.050469457706022
313,5011.87234,1.055443433087333
314,5030.0,1.1039509925130877
315,5050.0,1.0975127211396776
316,5070.0,1.1363484497662675
317,5090.0,1.0821871783928574
318,5110.0,1.1045039070194473
319,5130.0,1.0686996356460372
320,5150.0,1.032893364272627
321,5170.0,0.9646620928992169
322,5190.0,0.9912618215258069
323,5210.0,1.0588515501523967
324,5230.0,1.1258302787789867
325,5250.0,1.1677220074055765
326,5270.0,1.0468777360321666
327,5290.0,1.1774934646587565
328,5310.0,1.2395611932853465
329,5330.0,1.1058739219119362
330,5350.0,1.1960966505385262
331,5370.0,1.187834379165116
332,5390.0,1.163033107791706
333,5410.0,1.145583836418296
334,5430.0,1.1599475650448858
335,5450.0,1.1865552936714758
336,5470.0,1.1635830222980657
337,5490.0,1.1693907509246555
338,5510.0,1.1543814795512455
339,5530.0,1.1907662081778354
340,5550.0,1.2045239368044252
341,5570.0,1.180341665431015
342,5590.0,1.152489394057605
343,5610.0,1.188877122684195
344,5630.0,1.1799948513107847
345,5650.0,1.1949625799373749
346,5670.0,1.1671103085639647
347,5690.0,1.1998380371905546
348,5710.0,1.1615757658171444
349,5730.0,1.2493534944437343
350,5750.0,1.2043712230703243
351,5754.399369999999,1.206590205604722
352,5770.0,1.2146702795428945
353,5790.0,1.169348930364268
354,5810.0,1.2133475811856416
355,5830.0,1.245106232007015
356,5850.0,1.2071248828283885
357,5870.0,1.204633533649762
358,5890.0,1.0761001844711353
359,5910.0,1.1831208352925089
360,5930.0,1.1916394861138824
361,5950.0,1.190978136935256
362,5970.0,1.2092767877566295
363,5990.0,1.189045438578003
364,6010.0,1.1736940893993761
365,6030.0,1.2030127402207498
366,6050.0,1.2219213910421232
367,6070.0,1.2182000418634968
368,6090.0,1.1765586926848703
369,6110.0,1.1801773435062437
370,6130.0,1.1189439943276174
371,6150.0,1.1464246451489906
372,6170.0,1.088256295970364
373,6190.0,1.1512319467917376
374,6210.0,1.1407805976131111
375,6230.0,1.1058492484344846
376,6250.0,1.072761899255858
377,6270.0,1.1192095500772317
378,6290.0,1.1387352008986051
379,6310.0,1.1099338517199786
380,6330.0,1.1239555025413521
381,6350.0,1.1239091533627255
382,6370.0,1.117738804184099
383,6390.0,1.1384884550054724
384,6410.0,1.117028105826846
385,6430.0,1.1267657566482194
386,6450.0,1.1181514074695929
387,6470.0,1.1150440582909664
388,6490.0,1.0941917091123399
389,6510.0,1.1296303599337134
390,6530.0,1.127139010755087
391,6550.0,1.0964906615764605
392,6570.0,1.0364843123978338
393,6590.0,1.1074059632192073
394,6606.93448,1.116689996221284
395,6610.0,1.1184013333085592
396,6630.0,1.106923402120867
397,6650.0,1.1058534709331747
398,6670.0,1.0809185397454824
399,6690.0,1.0939176085577902
400,6710.0,1.053076677370098
401,6730.0,1.0789247461824056
402,6750.0,1.0607218149947133
403,6770.0,1.065765883807021
404,6790.0,1.0524569526193288
405,6810.0,1.0575030214316365
406,6830.0,1.0692780902439443
407,6850.0,1.042510159056252
408,6870.0,1.0585662278685597
409,6890.0,1.0727882966808675
410,6910.0,1.069882365493175
411,6930.0,1.061466434305483
412,6950.0,1.0616175031177906
413,6970.0,1.0746165719300984
414,6990.0,1.069262640742406
415,7010.0,1.054729709554714
416,7030.0,1.0756817783670216
417,7050.0,1.0801138471793292
418,7070.0,1.046614915991637
419,7090.0,1.0137289848039448
420,7110.0,0.9894070536162525
421,7130.0,0.9693691224285602
422,7150.0,0.9652371912408678
423,7170.0,0.9764002600531756
424,7190.0,0.9545263288654834
425,7210.0,0.9754783976777911
426,7230.0,0.9964314664900987
427,7250.0,1.0033125353024066
428,7270.0,1.0101916041147143
429,7290.0,0.996883672927022
430,7310.0,1.0245667417393296
431,7330.0,1.0277758105516375
432,7350.0,1.0383268793639453
433,7370.0,1.0641749481762528
434,7390.0,1.0447480169885606
435,7410.0,1.0448980858008683
436,7430.0,1.069521154613176
437,7450.0,1.0684492234254839
438,7470.0,1.0857312922377915
439,7490.0,1.0834333610500992
440,7510.0,1.094600429862407
441,7530.0,1.1118814986747148
442,7550.0,1.1193705674870222
443,7570.0,1.1146296362993302
444,7585.77575,1.0949604854776187
445,7590.0,1.08972354189178
446,7610.0,1.0692138749765245
447,7630.0,1.045035208061269
448,7650.0,1.0220785411460134
449,7670.0,0.973425874230758
450,7690.0,0.9957432073155024
451,7710.0,0.977681540400247
452,7730.0,0.9798088734849915
453,7750.0,0.973371206569736
454,7770.0,0.9846755396544804
455,7790.0,0.9929208727392249
456,7810.0,0.9913772058239694
457,7830.0,0.9837165389087139
458,7850.0,0.9705488719934584
459,7870.0,0.9867482050782028
460,7890.0,0.9741915381629473
461,7910.0,0.9530718712476919
462,7930.0,0.9570342043324365
463,7950.0,0.9499835374171809
464,7970.0,0.9802558705019254
465,7990.0,0.9811592035866699
466,8010.0,0.9906285366714144
467,8030.0,0.9945898697561589
468,8050.0,0.9954942028409034
469,8070.0,1.0092475359256479
470,8090.0,1.0003628690103923
471,8110.0,1.0116682020951369
472,8130.0,1.0413255351798814
473,8150.0,1.0538548682646258
474,8170.0,1.0639352013493704
475,8190.0,1.0311895344341149
476,8210.0,1.0180208675188593
477,8230.0,1.0232082006036038
478,8250.0,1.0216645336883483
479,8270.0,1.031133866773093
480,8290.0,1.0198021998578373
481,8310.0,0.9852215329425819
482,8330.0,0.9781718660273263
483,8350.0,0.9772401991120709
484,8370.0,0.9830395321968154
485,8390.0,0.9502938652815598
486,8410.0,0.9805641983663043
487,8430.0,0.9337475314510488
488,8450.0,0.9120148645357933
489,8470.0,0.9129191976205377
490,8490.0,0.9187175307052824
491,8510.0,0.8816888637900269
492,8530.0,0.9174661968747713
493,8550.0,0.8510695299595159
494,8570.0,0.9455818630442604
495,8590.0,0.9336371961290048
496,8610.0,0.9443305292137493
497,8630.0,0.9648118622984938
498,8650.0,0.9657151953832384
499,8670.0,0.8766845284679828
500,8690.0,0.9448868615527273
501,8709.6359,0.9788111512086628
502,8710.0,0.9794421857757896
503,8730.0,0.9865728920172373
504,8750.0,0.974738598258685
505,8770.0,0.9953303045001327
506,8790.0,1.0085790107415804
507,8810.0,0.9900147169830282
508,8830.0,1.000205423224476
509,8850.0,0.9957111294659236
510,8870.0,0.9551228357073714
511,8890.0,0.9714315419488191
512,8910.0,0.9834572481902668
513,8930.0,0.9661169544317145
514,8950.0,0.9689646606731623
515,8970.0,0.97242536691461
516,8990.0,0.9734390731560577
517,9010.0,0.9420267793975053
518,9030.0,0.9785234856389531
519,9050.0,1.0113511918804008
520,9070.0,1.0117528981218484
521,9090.0,0.9937996043632963
522,9110.0,1.0058253106047441
523,9130.0,1.0239700168461916
524,9150.0,1.0164177230876394
525,9170.0,1.0155964293290871
526,9190.0,1.0263991355705349
527,9210.0,0.9851978418119827
528,9230.0,0.9556195480534303
529,9250.0,0.955409254294878
530,9270.0,0.9625419605363258
531,9290.0,0.9494826667777736
532,9310.0,0.9553913730192213
533,9330.0,0.9570160792606689
534,9350.0,0.9531337855021166
535,9370.0,0.9376294917435644
536,9390.0,0.9545501979850122
537,9410.0,0.9365979042264598
538,9430.0,0.9602466104679075
539,9450.0,0.9465763167093553
540,9470.0,0.969003022950803
541,9490.0,0.9706287291922507
542,9510.0,0.9526754354336984
543,9530.0,0.9573611416751461
544,9550.0,0.938184847916594
545,9570.0,0.9508205541580416
546,9590.0,0.9695772603994893
547,9610.0,0.955907966640937
548,9630.0,0.9618146728823849
549,9650.0,0.9438623791238325
550,9670.0,0.9442630853652803
551,9690.0,0.9593487916067279
552,9710.0,0.9444544978481757
553,9730.0,0.9350672040896234
554,9750.0,0.9317989103310711
555,9770.0,0.9364826165725187
556,9790.0,0.9228113228139666
557,9810.0,0.9458500290554143
558,9830.0,0.9358517352968619
559,9850.0,0.9429824415383097
560,9870.0,0.9360431477797575
561,9890.0,0.9352208540212051
562,9910.0,0.9258345602626529
563,9930.0,0.9317412665041006
564,9950.0,0.9339789727455483
565,9970.0,0.934379678986996
566,9990.0,0.9311103852284438
567,10000.0,0.9305464883491676
568,10030.0,0.928977132300057
569,10070.0,0.9170946575679093
570,10130.0,0.928333445469688
571,10170.0,0.9176739707375404
572,10220.0,0.9198001273223559
573,10280.0,0.9218609152241345
574,10320.0,0.910591440491987
575,10380.0,0.9040862283937656
576,10430.0,0.9068243849785812
577,10480.0,0.8942655415633967
578,10520.0,0.8854420668312492
579,10580.0,0.8679258547330277
580,10630.0,0.8602620113178432
581,10680.0,0.8513751679026588
582,10720.0,0.8560126931705112
583,10780.0,0.8501194810722899
584,10820.0,0.8376260063401423
585,10870.0,0.8342461629249578
586,10920.0,0.8314773195097733
587,10980.0,0.821302107411552
588,11020.0,0.8161486326794044
589,11080.0,0.8029154205811829
590,11130.0,0.8001455771659987
591,11170.0,0.7943831024338509
592,11220.0,0.7940612590186664
593,11280.0,0.7832740469204451
594,11330.0,0.7817292035052607
595,11380.0,0.7759003600900761
596,11430.0,0.7676245166748917
597,11470.0,0.7765430419427441
598,11481.5362,0.775881015552619
599,11530.0,0.7732491693926672
600,11570.0,0.7645489532973945
601,11620.0,0.7527561831783036
602,11670.0,0.7519774130592128
603,11730.0,0.7542220889163038
604,11770.0,0.737569872821031
605,11830.0,0.7300275486781221
606,11870.0,0.7176563325828493
607,11920.0,0.7278905624637586
608,11980.0,0.7050512383208495
609,12030.0,0.7171194682017586
610,12070.0,0.710867252106486
611,12120.0,0.7113124819873952
612,12180.0,0.7117231578444861
613,12230.0,0.7072723877253952
614,12270.0,0.7022421716301226
615,12320.0,0.6965684015110317
616,12370.0,0.6945666313919409
617,12430.0,0.6839643072490319
618,12480.0,0.6819605371299411
619,12530.0,0.6756757670108502
620,12580.0,0.6730609968917594
621,12620.0,0.6686437807964867
622,12670.0,0.6626630106773959
623,12720.0,0.662495240558305
624,12780.0,0.6617429164153958
625,12830.0,0.6401621462963051
626,12880.0,0.6500273761772142
627,12920.0,0.6429201600819415
628,12980.0,0.6483468359390325
629,13020.0,0.6400756198437598
630,13080.0,0.6413422957008509
631,13130.0,0.62753152558176
632,13180.0,0.6257117554626691
633,13182.5674,0.6256842447385941
634,13230.0,0.625280541581503
635,13280.0,0.6146409870503463
636,13320.0,0.6141039434254209
637,13380.0,0.6073668779880328
638,13430.0,0.608900323456876
639,13470.0,0.6037762798319506
640,13520.0,0.5990687253007938
641,13570.0,0.591118170769637
642,13630.0,0.5879901053322489
643,13670.0,0.5903300617073235
644,13730.0,0.5911779962699354
645,13770.0,0.58947995264501
646,13820.0,0.5897283981138532
647,13880.0,0.584031332676465
648,13930.0,0.5599907781453083
649,13970.0,0.5562737345203829
650,14020.0,0.5508331799892261
651,14080.0,0.554434114551838
652,14120.0,0.5475970709269126
653,14180.0,0.5522990054895245
654,14230.0,0.5469814509583677
655,14280.0,0.5386648964272109
656,14330.0,0.5468063418960541
657,14380.0,0.5506037873648973
658,14420.0,0.538320743739972
659,14480.0,0.5464486783025838
660,14520.0,0.5422436346776585
661,14570.0,0.5445710801465017
662,14620.0,0.5336235256153449
663,14670.0,0.5303229710841881
664,14720.0,0.5259834165530313
665,14770.0,0.5288618620218746
