,lambda (Angstroms),Total Flux (erg/s/cm^2/Angstrom)
0,1005.0,0.6709739984045349
1,1015.0,0.65346680751586
2,1025.0,0.565479416627185
3,1035.0,0.5912874257385101
4,1045.0,0.6806632348498352
5,1055.0,0.6832840439611603
6,1065.0,0.6375718530724853
7,1075.0,0.6614836621838104
8,1085.0,0.6100214712951355
9,1095.0,0.6539392804064605
10,1096.4782,0.6544353361092966
11,1105.0,0.6582604711380351
12,1115.0,0.6465971179365266
13,1125.0,0.6366457647350182
14,1135.0,0.6745994115335098
15,1145.0,0.6451940583320015
16,1155.0,0.6618567051304929
17,1165.0,0.6717893519289845
18,1175.0,0.614973998727476
19,1185.0,0.6447916455259676
20,1195.0,0.5234912923244591
21,1205.0,0.49586093912295076
22,1215.0,0.4498740859214423
23,1225.0,0.5119342327199339
24,1235.0,0.6247728795184254
25,1245.0,0.667926526316917
26,1255.0,0.6461681731154085
27,1258.92541,0.6154120545783348
28,1265.0,0.5687093456263028
29,1275.0,0.6852202697133073
30,1285.0,0.7121011938003118
31,1295.0,0.6286741178873162
32,1305.0,0.5986570419743207
33,1315.0,0.6818859660613251
34,1325.0,0.6721188901483297
35,1335.0,0.610655814235334
36,1345.0,0.6916817383223386
37,1355.0,0.6727996624093431
38,1365.0,0.6234495864963474
39,1375.0,0.651554510583352
40,1385.0,0.6537794346703565
41,1395.0,0.6364263587573609
42,1405.0,0.6362052828443654
43,1415.0,0.6135912069313698
44,1425.0,0.6272561310183742
45,1435.0,0.6080070551053787
46,1442.0,0.6302934019662818
47,1445.43977,0.6388460199819572
48,1447.0,0.6428972507813775
49,1455.0,0.6271541307332824
50,1465.0,0.5949967306731634
51,1475.0,0.5843133306130446
52,1485.0,0.5941249305529257
53,1495.0,0.6033265304928068
54,1505.0,0.5869521304326879
55,1512.0,0.5479106503906048
56,1517.0,0.5724554503605453
57,1525.0,0.5449673303124503
58,1535.0,0.5068139302523313
59,1545.0,0.5509495301922125
60,1555.0,0.5241751301320936
61,1565.0,0.5134307300719747
62,1575.0,0.5252003300118558
63,1585.0,0.541496929951737
64,1595.0,0.5477605298916182
65,1605.0,0.5318161298314993
66,1615.0,0.5307997297713805
67,1625.0,0.5054333297112615
68,1635.0,0.5183039296511427
69,1645.0,0.5213855295910237
70,1655.0,0.48580212953090496
71,1659.58691,0.49838475753892886
72,1665.0,0.5136467163886754
73,1672.0,0.4643712951605461
74,1677.0,0.5074075657118822
75,1685.0,0.5284337985940202
76,1695.0,0.5051143396966926
77,1705.0,0.486873880799365
78,1715.0,0.4699794219020374
79,1725.0,0.4656259630047098
80,1735.0,0.48060650410738215
81,1745.0,0.4726430452100545
82,1755.0,0.4941085863127269
83,1765.0,0.4562891274153993
84,1775.0,0.4699846685180717
85,1785.0,0.4693642096207441
86,1795.0,0.4898497507234165
87,1805.0,0.4804192918260889
88,1815.0,0.46095483292876127
89,1825.0,0.45849737403143365
90,1835.0,0.4439279151341061
91,1845.0,0.4209764562367785
92,1855.0,0.4196819973394509
93,1865.0,0.4248125384421233
94,1875.0,0.44211607954479565
95,1885.0,0.42326362064746803
96,1895.0,0.4153011617501404
97,1905.0,0.41871770285281285
98,1905.46072,0.4184241569984951
99,1915.0,0.4128008002921469
100,1925.0,0.4089848515052905
101,1935.0,0.40676090271843424
102,1945.0,0.4167119539315779
103,1955.0,0.40384100514472165
104,1967.0,0.421971666600494
105,1976.0,0.4244664126923234
106,1984.0,0.4106348536628383
107,1995.0,0.4001422099972964
108,2005.0,0.40171126121044004
109,2015.0,0.38908531242358374
110,2025.0,0.39707836363672744
111,2035.0,0.38757241484987115
112,2045.0,0.39605446606301475
113,2055.0,0.38312351727615845
114,2065.0,0.38047056848930216
115,2074.0,0.3939783145811315
116,2078.0,0.39217053506638894
117,2085.0,0.39749567091558957
118,2095.0,0.38260672212873326
119,2105.0,0.3773837733418769
120,2115.0,0.3783398245550206
121,2125.0,0.37868587576816426
122,2135.0,0.354680926981308
123,2145.0,0.3673839781944517
124,2155.0,0.3718890294075954
125,2165.0,0.358714080620739
126,2175.0,0.35453113183388274
127,2185.0,0.3534691830470264
128,2187.7616199999998,0.3558450188761504
129,2195.0,0.3623782255046455
130,2205.0,0.35244001114797296
131,2215.0,0.3358317967913006
132,2225.0,0.3298085824346281
133,2235.0,0.3499713680779556
134,2245.0,0.33513715372128305
135,2255.0,0.3222619393646106
136,2265.0,0.3246817250079381
137,2275.0,0.3318735106512657
138,2285.0,0.34151329629459315
139,2295.0,0.3282690819379207
140,2305.0,0.32701786758124823
141,2315.0,0.31444965322457574
142,2325.0,0.2723294388679033
143,2335.0,0.2952442245112308
144,2345.0,0.28377401015455833
145,2355.0,0.3059567957978858
146,2365.0,0.28163958144121337
147,2375.0,0.28999336708454093
148,2385.0,0.2705721527278684
149,2395.0,0.28412593837119593
150,2405.0,0.2762677240145235
151,2415.0,0.281133509657851
152,2425.0,0.2989102953011785
153,2435.0,0.291663080944506
154,2445.0,0.3050948665878336
155,2455.0,0.3017026522311611
156,2465.0,0.2970864378744886
157,2475.0,0.2869632235178161
158,2485.0,0.28577400916114365
159,2495.0,0.2820137948044712
160,2505.0,0.3040715804477987
161,2511.88643,0.2763413286693266
162,2513.0,0.271882308790511
163,2518.0,0.27259190143369616
164,2525.0,0.26478973113415527
165,2535.0,0.27202291642052545
166,2545.0,0.26977410170689575
167,2555.0,0.29401628699326593
168,2565.0,0.2810594722796361
169,2575.0,0.29716265756600635
170,2585.0,0.29099884285237665
171,2595.0,0.28520202813874684
172,2605.0,0.2749982134251171
173,2615.0,0.27030039871148726
174,2625.0,0.2846325839978575
175,2635.0,0.30716076928422775
176,2645.0,0.33715395457059794
177,2655.0,0.3644541398569682
178,2665.0,0.3135663251433384
179,2675.0,0.32856851042970864
180,2685.0,0.33659769571607884
181,2695.0,0.3088968810024491
182,2705.0,0.3267760662888193
183,2715.0,0.2984632515751895
184,2725.0,0.2874044368615597
185,2735.0,0.30589562214793
186,2745.0,0.26198180743430016
187,2755.0,0.2735589927206704
188,2765.0,0.28990717800704063
189,2775.0,0.29983436329341084
190,2785.0,0.2711535485797811
191,2795.0,0.2227117338661513
192,2805.0,0.2345349191525215
193,2815.0,0.29028410443889174
194,2825.0,0.31776928972526197
195,2835.0,0.30670947501163215
196,2845.0,0.2834756602980024
197,2855.0,0.2608528455843726
198,2865.0,0.30803703087074286
199,2875.0,0.3305652161571131
200,2884.0315,0.3228976399984983
201,2885.0,0.32209414513974116
202,2895.0,0.3389428636863886
203,2910.0,0.3888429415063597
204,2930.0,0.36276537859965463
205,2950.0,0.34984481569294945
206,2970.0,0.3560112527862443
207,2990.0,0.3572216898795392
208,3010.0,0.35849312697283403
209,3030.0,0.3655155640661289
210,3050.0,0.36905100115942374
211,3070.0,0.3822544382527186
212,3090.0,0.3788148753460135
213,3110.0,0.4010103124393083
214,3130.0,0.3850287495326032
215,3150.0,0.38581118662589803
216,3170.0,0.4006666237191929
217,3190.0,0.36834906081248775
218,3210.0,0.38809749790578263
219,3230.0,0.3548639349990774
220,3250.0,0.4189693720923724
221,3270.0,0.4562148091856672
222,3290.0,0.4499002462789621
223,3310.0,0.43288068337225694
224,3311.31121,0.43320464645881185
225,3330.0,0.43807575458271725
226,3350.0,0.4275056208238227
227,3370.0,0.36737948706492807
228,3390.0,0.3895403533060335
229,3410.0,0.3942652195471389
230,3430.0,0.4030270857882443
231,3450.0,0.4132579520293497
232,3470.0,0.4192678182704551
233,3490.0,0.4481586845115605
234,3510.0,0.4667105507526659
235,3530.0,0.4349104169937713
236,3550.0,0.4756092832348767
237,3570.0,0.3768781494759821
238,3590.0,0.37915501571708754
239,3610.0,0.43276388195819293
240,3630.0,0.4477667481992983
241,3640.0,0.459000181319851
242,3650.0,0.5014366144404037
243,3670.0,0.5190084806815091
244,3690.0,0.4733833469226145
245,3710.0,0.4992142131637199
246,3730.0,0.39307907940482534
247,3750.0,0.4463819456459307
248,3770.0,0.5236658118870361
249,3790.0,0.5575736781281415
250,3801.8939600000003,0.5582010049719944
251,3810.0,0.5587060253142834
252,3830.0,0.394396059980505
253,3850.0,0.5063170946467266
254,3870.0,0.5232251293129483
255,3890.0,0.5029351639791699
256,3910.0,0.6420811986453915
257,3930.0,0.4235642333116132
258,3950.0,0.5752522679778348
259,3970.0,0.3994403026440564
260,3990.0,0.7398113373102781
261,4010.0,0.8084773719764996
262,4030.0,0.8006684066427213
263,4050.0,0.7769514413089429
264,4070.0,0.7373264759751645
265,4090.0,0.8176185106413862
266,4110.0,0.7455695453076079
267,4130.0,0.7885375799738296
268,4150.0,0.7862346146400512
269,4170.0,0.7924976493062728
270,4190.0,0.7804036839724944
271,4210.0,0.786054718638716
272,4230.0,0.7519377533049376
273,4250.0,0.7887897879711593
274,4270.0,0.749165822637381
275,4290.0,0.7162718573036027
276,4310.0,0.6414078919698243
277,4330.0,0.7985429266360458
278,4350.0,0.7772729613022674
279,4365.15832,0.859919937796349
280,4370.0,0.8863514625124441
281,4390.0,0.8070987406972585
282,4410.0,0.8422530188820729
283,4430.0,0.8884212970668873
284,4450.0,0.8960455752517018
285,4470.0,0.9446608534365163
286,4490.0,0.9602371316213306
287,4510.0,1.074933409806145
288,4530.0,0.9516246879909595
289,4550.0,0.9873909661757739
290,4570.0,1.0574242443605884
291,4590.0,1.0044745225454028
292,4610.0,1.0267818007302172
293,4630.0,1.0007560789150316
294,4650.0,1.013274357099846
295,4670.0,1.0520956352846604
296,4690.0,1.033415913469475
297,4710.0,0.9994371916542892
298,4730.0,1.0333694698391036
299,4750.0,1.061186748023918
300,4770.0,1.0461680262087325
301,4790.0,1.047675304393547
302,4810.0,1.0436715825783613
303,4830.0,1.0727178607631758
304,4850.0,0.9952941389479902
305,4870.0,0.9019694171328045
306,4890.0,1.029506695317619
307,4910.0,1.0334589735024335
308,4930.0,1.011717251687248
309,4950.0,1.0535995298720624
310,4970.0,1.0330828080568768
311,4990.0,0.9642310862416912
312,5010.0,0.9118983644265055
313,5011.87234,0.916964942509333
314,5030.0,0.966106248128272
315,5050.0,0.9603671802849194
316,5070.0,0.9999021124415669
317,5090.0,0.9464400445982143
318,5110.0,0.9694559767548618
319,5130.0,0.9343509089115093
320,5150.0,0.8992438410681567
321,5170.0,0.8317117732248042
322,5190.0,0.8590107053814516
323,5210.0,0.9272996375380992
324,5230.0,0.9949775696947467
325,5250.0,1.037568501851394
326,5270.0,0.9174234340080417
327,5290.0,1.048738366164689
328,5310.0,1.1115052983213367
329,5330.0,0.9785172304779841
330,5350.0,1.0694391626346316
331,5370.0,1.061876094791279
332,5390.0,1.0377740269479265
333,5410.0,1.021023959104574
334,5430.0,1.0360868912612216
335,5450.0,1.063393823417869
336,5470.0,1.0411207555745163
337,5490.0,1.0476276877311639
338,5510.0,1.0333176198878113
339,5530.0,1.070401552044459
340,5550.0,1.0848584842011062
341,5570.0,1.0613754163577538
342,5590.0,1.0342223485144013
343,5610.0,1.0713092806710487
344,5630.0,1.0631262128276961
345,5650.0,1.0787931449843438
346,5670.0,1.051640077140991
347,5690.0,1.0850670092976387
348,5710.0,1.047503941454286
349,5730.0,1.1359808736109336
350,5750.0,1.0916978057675812
351,5754.399369999999,1.09407059105368
352,5770.0,1.1025375698857238
353,5790.0,1.057712232591067
354,5810.0,1.1022068952964106
355,5830.0,1.1344615580017536
356,5850.0,1.096976220707097
357,5870.0,1.0949808834124404
358,5890.0,0.9669435461177839
359,5910.0,1.0744602088231272
360,5930.0,1.0834748715284706
361,5950.0,1.083309534233814
362,5970.0,1.1021041969391574
363,5990.0,1.0823688596445007
364,6010.0,1.067513522349844
365,6030.0,1.0973281850551875
366,6050.0,1.1167328477605307
367,6070.0,1.1135075104658743
368,6090.0,1.0723621731712176
369,6110.0,1.0764768358765608
370,6130.0,1.0157394985819044
371,6150.0,1.0437161612872476
372,6170.0,0.986043823992591
373,6190.0,1.0495154866979344
374,6210.0,1.0395601494032778
375,6230.0,1.0051248121086211
376,6250.0,0.9725334748139645
377,6270.0,1.019477137519308
378,6290.0,1.0394988002246515
379,6310.0,1.0111934629299948
380,6330.0,1.025711125635338
381,6350.0,1.0261607883406814
382,6370.0,1.0204864510460248
383,6390.0,1.041732113751368
384,6410.0,1.0207677764567116
385,6430.0,1.0310014391620548
386,6450.0,1.0228831018673983
387,6470.0,1.0202717645727417
388,6490.0,0.9999154272780849
389,6510.0,1.0358500899834284
390,6530.0,1.0338547526887718
391,6550.0,1.0037024153941152
392,6570.0,0.9441920780994585
393,6590.0,1.0156097408048017
394,6606.93448,1.025313758973321
395,6610.0,1.0270780833271398
396,6630.0,1.0159458505302168
397,6650.0,1.0152216177332936
398,6670.0,0.9906323849363706
399,6690.0,1.0039771521394476
400,6710.0,0.9634819193425245
401,6730.0,0.9896756865456013
402,6750.0,0.9718184537486784
403,6770.0,0.9772082209517553
404,6790.0,0.9642449881548323
405,6810.0,0.969636755357909
406,6830.0,0.981757522560986
407,6850.0,0.955335289764063
408,6870.0,0.97173705696714
409,6890.0,0.9863048241702169
410,6910.0,0.9837445913732937
411,6930.0,0.9756743585763706
412,6950.0,0.9761711257794476
413,6970.0,0.9895158929825246
414,6990.0,0.9845076601856015
415,7010.0,0.9703204273886785
416,7030.0,0.9916181945917554
417,7050.0,0.9963959617948323
418,7070.0,0.9632427289979092
419,7090.0,0.9307024962009862
420,7110.0,0.9067262634040631
421,7130.0,0.88703403060714
422,7150.0,0.8832477978102169
423,7170.0,0.8947565650132939
424,7190.0,0.8732283322163709
425,7210.0,0.8945260994194478
426,7230.0,0.9158248666225247
427,7250.0,0.9230516338256016
428,7270.0,0.9302764010286786
429,7290.0,0.9173141682317555
430,7310.0,0.9453429354348324
431,7330.0,0.9488977026379094
432,7350.0,0.9597944698409864
433,7370.0,0.9859882370440631
434,7390.0,0.9669070042471402
435,7410.0,0.9674027714502171
436,7430.0,0.9923715386532941
437,7450.0,0.991645305856371
438,7470.0,1.009273073059448
439,7490.0,1.0073208402625249
440,7510.0,1.0188336074656017
441,7530.0,1.0364603746686787
442,7550.0,1.0442951418717554
443,7570.0,1.0398999090748327
444,7585.77575,1.02050344082253
445,7590.0,1.015317135472945
446,7610.0,0.995047218744131
447,7630.0,0.9711083020153173
448,7650.0,0.9483913852865034
449,7670.0,0.8999784685576895
450,7690.0,0.9225355518288756
451,7710.0,0.9047136351000618
452,7730.0,0.9070807183712478
453,7750.0,0.9008828016424341
454,7770.0,0.9124268849136201
455,7790.0,0.9209119681848061
456,7810.0,0.9196080514559923
457,7830.0,0.9121871347271785
458,7850.0,0.8992592179983646
459,7870.0,0.9156983012695508
460,7890.0,0.9033813845407368
461,7910.0,0.882501467811923
462,7930.0,0.8867035510831092
463,7950.0,0.8798926343542952
464,7970.0,0.9104047176254814
465,7990.0,0.9115478008966675
466,8010.0,0.9212568841678536
467,8030.0,0.9254579674390397
468,8050.0,0.9266020507102259
469,8070.0,0.940595133981412
470,8090.0,0.9319502172525981
471,8110.0,0.9434953005237843
472,8130.0,0.9733923837949704
473,8150.0,0.9861614670661565
474,8170.0,0.9964815503373425
475,8190.0,0.9639756336085288
476,8210.0,0.9510467168797149
477,8230.0,0.9564738001509009
478,8250.0,0.9551698834220871
479,8270.0,0.9648789666932732
480,8290.0,0.9537870499644593
481,8310.0,0.9194461332356455
482,8330.0,0.9126362165068316
483,8350.0,0.9119442997780177
484,8370.0,0.9179833830492039
485,8390.0,0.8854774663203899
486,8410.0,0.915987549591576
487,8430.0,0.8694106328627622
488,8450.0,0.8479177161339483
489,8470.0,0.8490617994051344
490,8490.0,0.8550998826763206
491,8510.0,0.8183109659475067
492,8530.0,0.8543280492186928
493,8550.0,0.788171132489879
494,8570.0,0.8829232157610651
495,8590.0,0.8712182990322511
496,8610.0,0.8821513823034374
497,8630.0,0.9028724655746234
498,8650.0,0.9040155488458096
499,8670.0,0.8152246321169958
500,8690.0,0.8836667153881819
501,8709.6359,0.9178263905784149
502,8710.0,0.9184602964439473
503,8730.0,0.9257487230043093
504,8750.0,0.9140721495646713
505,8770.0,0.9348215761250332
506,8790.0,0.9482280026853951
507,8810.0,0.9298214292457571
508,8830.0,0.940169855806119
509,8850.0,0.9358332823664809
510,8870.0,0.8954027089268429
511,8890.0,0.9118691354872047
512,8910.0,0.9240525620475667
513,8930.0,0.9068699886079287
514,8950.0,0.9098754151682906
515,8970.0,0.9134938417286526
516,8990.0,0.9146652682890144
517,9010.0,0.8834106948493763
518,9030.0,0.9200651214097383
519,9050.0,0.9530505479701002
520,9070.0,0.9536099745304621
521,9090.0,0.9358144010908241
522,9110.0,0.947997827651186
523,9130.0,0.9663002542115479
524,9150.0,0.9589056807719099
525,9170.0,0.9582421073322718
526,9190.0,0.9692025338926338
527,9210.0,0.9281589604529956
528,9230.0,0.8987383870133575
529,9250.0,0.8986858135737195
530,9270.0,0.9059762401340815
531,9290.0,0.8930746666944435
532,9310.0,0.8991410932548053
533,9330.0,0.9009235198151672
534,9350.0,0.8971989463755291
535,9370.0,0.8818523729358911
536,9390.0,0.8989307994962531
537,9410.0,0.8811362260566149
538,9430.0,0.9049426526169768
539,9450.0,0.8914300791773389
540,9470.0,0.9140145057377007
541,9490.0,0.9157979322980627
542,9510.0,0.8980023588584246
543,9530.0,0.9028457854187865
544,9550.0,0.8838272119791485
545,9570.0,0.8966206385395104
546,9590.0,0.9155350650998724
547,9610.0,0.9020234916602343
548,9630.0,0.9080879182205962
549,9650.0,0.8902933447809581
550,9670.0,0.8908517713413201
551,9690.0,0.906095197901682
552,9710.0,0.891358624462044
553,9730.0,0.8821290510224058
554,9750.0,0.8790184775827677
555,9770.0,0.8838599041431296
556,9790.0,0.8703463307034917
557,9810.0,0.8935427572638536
558,9830.0,0.8837021838242155
559,9850.0,0.8909906103845774
560,9870.0,0.8842090369449394
561,9890.0,0.8835444635053012
562,9910.0,0.8743158900656632
563,9930.0,0.8803803166260252
564,9950.0,0.8827757431863871
565,9970.0,0.8833341697467489
566,9990.0,0.880222596307111
567,10000.0,0.8797375595872918
568,10030.0,0.8783130330750142
569,10070.0,0.8666236643919774
570,10130.0,0.878152111367422
571,10170.0,0.867685742684385
572,10220.0,0.8700532818305889
573,10280.0,0.8724037288060336
574,10320.0,0.8613273601229968
575,10380.0,0.8551118070984414
576,10430.0,0.8580913462446453
577,10480.0,0.8457738853908491
578,10520.0,0.8371435167078123
579,10580.0,0.819916963683257
580,10630.0,0.8124945028294608
581,10680.0,0.8038490419756648
582,10720.0,0.8086796732926278
583,10780.0,0.8030761202680724
584,10820.0,0.7907757515850357
585,10870.0,0.7876372907312394
586,10920.0,0.7851098298774433
587,10980.0,0.775224276852888
588,11020.0,0.7702639081698511
589,11080.0,0.7573203551452957
590,11130.0,0.7547918942914997
591,11170.0,0.7492225256084627
592,11220.0,0.7491420647546666
593,11280.0,0.7386445117301113
594,11330.0,0.7373410508763152
595,11380.0,0.731753590022519
596,11430.0,0.7237191291687229
597,11470.0,0.7328307604856861
598,11481.5362,0.7322244268456547
599,11530.0,0.7297145423481668
600,11570.0,0.7211149883243486
601,11620.0,0.7094480457945759
602,11670.0,0.7087951032648032
603,11730.0,0.7111907722290759
604,11770.0,0.6946392182052578
605,11830.0,0.6872478871695306
606,11870.0,0.6749773331457123
607,11920.0,0.6853373906159397
608,11980.0,0.6626490595802124
609,12030.0,0.6748431170504396
610,12070.0,0.6686915630266215
611,12120.0,0.6692626204968488
612,12180.0,0.6698242894611216
613,12230.0,0.6654993469313488
614,12270.0,0.6605697929075307
615,12320.0,0.655021850377758
616,12370.0,0.6531459078479852
617,12430.0,0.642694576812258
618,12480.0,0.6408166342824853
619,12530.0,0.6346576917527126
620,12580.0,0.6321687492229399
621,12620.0,0.6278521951991216
622,12670.0,0.621997252669349
623,12720.0,0.6219553101395763
624,12780.0,0.6213539791038489
625,12830.0,0.5998990365740763
626,12880.0,0.6098900940443036
627,12920.0,0.6028835400204854
628,12980.0,0.6084612089847581
629,13020.0,0.60029065496094
630,13080.0,0.6017083239252128
631,13130.0,0.58802338139544
632,13180.0,0.5863294388656672
633,13182.5674,0.5863083891366485
634,13230.0,0.5859456353953757
635,13280.0,0.5753492467625866
636,13320.0,0.5748467358563552
637,13380.0,0.5681614694970082
638,13430.0,0.569738080864219
639,13470.0,0.5646485699579877
640,13520.0,0.5599841813251984
641,13570.0,0.5520767926924093
642,13630.0,0.5490005263330623
643,13670.0,0.5513750154268309
644,13730.0,0.5522747490674839
645,13770.0,0.5506112381612525
646,13820.0,0.5509028495284634
647,13880.0,0.5452575831691162
648,13930.0,0.521260194536327
649,13970.0,0.5175776836300957
650,14020.0,0.5121802949973066
651,14080.0,0.5158330286379595
652,14120.0,0.5090305177317281
653,14180.0,0.5137842513723812
654,14230.0,0.508509862739592
655,14280.0,0.5002364741068027
656,14330.0,0.5084210854740135
657,14380.0,0.5122616968412244
658,14420.0,0.500013185934993
659,14480.0,0.5081929195756459
660,14520.0,0.5040224086694146
661,14570.0,0.5063930200366255
662,14620.0,0.49548863140383625
