,lambda (Angstroms),Total Flux (erg/s/cm^2/Angstrom)
0,1005.0,3.688073988831744
1,1015.0,3.63306565261102
2,1025.0,3.5075771163902956
3,1035.0,3.495883980169571
4,1045.0,3.5477586439488467
5,1055.0,3.512878307728122
6,1065.0,3.429664971507397
7,1075.0,3.416075635286673
8,1085.0,3.3271122990659485
9,1095.0,3.3335289628452243
10,1096.4782,3.3284815992450767
11,1105.0,3.3061412979662466
12,1115.0,3.263773825555687
13,1125.0,3.2231183531451273
14,1135.0,3.230367880734569
15,1145.0,3.1702584083240097
16,1155.0,3.156216935913451
17,1165.0,3.1354454635028914
18,1175.0,3.047925991092332
19,1185.0,3.0470395186817734
20,1195.0,2.895035046271214
21,1205.0,2.836700573860655
22,1215.0,2.760009601450096
23,1225.0,2.7913656290395368
24,1235.0,2.8735001566289777
25,1245.0,2.8859496842184185
26,1255.0,2.8334872118078596
27,1258.92541,2.790678467612346
28,1265.0,2.73067941938412
29,1275.0,2.825301887993151
30,1285.0,2.8302943566021823
31,1295.0,2.7249788252112137
32,1305.0,2.6730732938202446
33,1315.0,2.734413762429276
34,1325.0,2.7027582310383074
35,1335.0,2.6194066996473384
36,1345.0,2.6785441682563698
37,1355.0,2.637773636865401
38,1365.0,2.5665351054744323
39,1375.0,2.572751574083463
40,1385.0,2.5530880426924947
41,1395.0,2.5138465113015265
42,1405.0,2.491736979910557
43,1415.0,2.4472344485195885
44,1425.0,2.43901091712862
45,1435.0,2.397873385737651
46,1442.0,2.4048378137639728
47,1445.43977,2.405861306529702
48,1447.0,2.4075287554696425
49,1455.0,2.3795629151329765
50,1465.0,2.332127114712144
51,1475.0,2.3061653142913126
52,1485.0,2.3006985138704805
53,1495.0,2.294621713449648
54,1505.0,2.262968913028816
55,1512.0,2.2132325527342336
56,1517.0,2.2301381525238173
57,1525.0,2.190427312187152
58,1535.0,2.1369955117663197
59,1545.0,2.1658527113454875
60,1555.0,2.1237999109246557
61,1565.0,2.097777110503823
62,1575.0,2.094268310082991
63,1585.0,2.0952865096621593
64,1595.0,2.086271709241327
65,1605.0,2.055048908820495
66,1615.0,2.0387541083996625
67,1625.0,1.9981093079788308
68,1635.0,1.9957015075579987
69,1645.0,1.9835047071371665
70,1655.0,1.9326429067163347
71,1659.58691,1.9382174699845023
72,1665.0,1.9476870147207281
73,1672.0,1.8909210661238227
74,1677.0,1.9286069599831759
75,1685.0,1.9410725901581416
76,1695.0,1.9070523778768482
77,1705.0,1.8781111655955551
78,1715.0,1.8505159533142617
79,1725.0,1.8354617410329686
80,1735.0,1.839741528751675
81,1745.0,1.8210773164703817
82,1755.0,1.8318421041890884
83,1765.0,1.7833218919077953
84,1775.0,1.7863166796265022
85,1785.0,1.7749954673452089
86,1795.0,1.7847802550639156
87,1805.0,1.7646490427826227
88,1815.0,1.734483830501329
89,1825.0,1.721325618220036
90,1835.0,1.6960554059387425
91,1845.0,1.6624031936574495
92,1855.0,1.650407981376156
93,1865.0,1.644837769094863
94,1875.0,1.6514405568135697
95,1885.0,1.6218873445322763
96,1895.0,1.603224132250983
97,1905.0,1.5959399199696898
98,1905.46072,1.5951533690054662
99,1915.0,1.5820496020450283
100,1925.0,1.570391960537034
101,1935.0,1.5603263190290397
102,1945.0,1.5624356775210455
103,1955.0,1.5417230360130516
104,1967.0,1.5504436662034582
105,1976.0,1.5458808888462636
106,1984.0,1.525775975639868
107,1995.0,1.5066574699810746
108,2005.0,1.5003848284730803
109,2015.0,1.4799171869650862
110,2025.0,1.4800685454570919
111,2035.0,1.4627209039490978
112,2045.0,1.4633612624411036
113,2055.0,1.4425886209331096
114,2065.0,1.432093979425115
115,2074.0,1.4385442020679204
116,2078.0,1.4335997454647227
117,2085.0,1.4334356964091268
118,2095.0,1.4107050549011328
119,2105.0,1.3976404133931384
120,2115.0,1.390754771885144
121,2125.0,1.38325913037715
122,2135.0,1.3514124888691559
123,2145.0,1.3562738473611615
124,2155.0,1.3529372058531672
125,2165.0,1.331920564345173
126,2175.0,1.3198959228371792
127,2185.0,1.310992281329185
128,2187.7616199999998,1.311202539613054
129,2195.0,1.3138955785325184
130,2205.0,1.298652078035811
131,2215.0,1.276738577539104
132,2225.0,1.2654100770423964
133,2235.0,1.2802675765456892
134,2245.0,1.2601280760489815
135,2255.0,1.2419475755522744
136,2265.0,1.2390620750555672
137,2275.0,1.2409485745588598
138,2285.0,1.2452830740621523
139,2295.0,1.226733573565445
140,2305.0,1.2201770730687378
141,2315.0,1.2023035725720304
142,2325.0,1.1548780720753231
143,2335.0,1.1724875715786156
144,2345.0,1.1557120710819082
145,2355.0,1.1725895705852012
146,2365.0,1.1429670700884935
147,2375.0,1.1460155695917864
148,2385.0,1.121289069095079
149,2395.0,1.1295375685983715
150,2405.0,1.1163740681016643
151,2415.0,1.115934567604957
152,2425.0,1.1284060671082494
153,2435.0,1.1158535666115421
154,2445.0,1.123980066114835
155,2455.0,1.1152825656181276
156,2465.0,1.10536106512142
157,2475.0,1.0899325646247127
158,2485.0,1.0834380641280055
159,2495.0,1.0743725636312982
160,2505.0,1.0911250631345908
161,2511.88643,1.0597413631927868
162,2513.0,1.054842161533577
163,2518.0,1.053575310035873
164,2525.0,1.043006117939087
165,2535.0,1.0462864149436786
166,2545.0,1.0400847119482701
167,2555.0,1.0603740089528617
168,2565.0,1.043464305957453
169,2575.0,1.0556146029620448
170,2585.0,1.0454978999666364
171,2595.0,1.035748196971228
172,2605.0,1.0215914939758195
173,2615.0,1.012940790980411
174,2625.0,1.0233200879850026
175,2635.0,1.0418953849895942
176,2645.0,1.0679356819941859
177,2655.0,1.0912829789987772
178,2665.0,1.0364422760033687
179,2675.0,1.0474915730079604
180,2685.0,1.051567870012552
181,2695.0,1.0199141670171437
182,2705.0,1.0338404640217351
183,2715.0,1.0015747610263266
184,2725.0,0.9865630580309181
185,2735.0,1.0011013550355097
186,2745.0,0.9532346520401014
187,2755.0,0.9608589490446928
188,2765.0,0.9732542460492846
189,2775.0,0.9792285430538759
190,2785.0,0.9465948400584674
191,2795.0,0.8942001370630591
192,2805.0,0.9020704340676506
193,2815.0,0.9538667310722423
194,2825.0,0.9773990280768338
195,2835.0,0.9623863250814253
196,2845.0,0.9351996220860169
197,2855.0,0.9086239190906085
198,2865.0,0.9518552160952001
199,2875.0,0.9704305130997917
200,2884.0315,0.9591928858894885
201,2885.0,0.958119015978188
202,2895.0,0.9721760458047202
203,2910.0,1.017888590544518
204,2930.0,0.9862276501975822
205,2950.0,0.9677237098506463
206,2970.0,0.9683067695037101
207,2990.0,0.9639338291567743
208,3010.0,0.9596218888098381
209,3030.0,0.9610609484629022
210,3050.0,0.9590130081159662
211,3070.0,0.9666330677690302
212,3090.0,0.9576101274220943
213,3110.0,0.9742221870751582
214,3130.0,0.9526572467282224
215,3150.0,0.9478563063812863
216,3170.0,0.9571283660343504
217,3190.0,0.9192274256874143
218,3210.0,0.9333924853404785
219,3230.0,0.8945755449935422
220,3250.0,0.9530976046466064
221,3270.0,0.9847596642996704
222,3290.0,0.9728617239527344
223,3310.0,0.9502587836057985
224,3311.31121,0.9502166976756831
225,3330.0,0.951392282079021
226,3350.0,0.9368673457667589
227,3370.0,0.8727864094544967
228,3390.0,0.8909924731422345
229,3410.0,0.8917625368299722
230,3430.0,0.8965696005177101
231,3450.0,0.9028456642054479
232,3470.0,0.9049007278931857
233,3490.0,0.9298367915809236
234,3510.0,0.9444338552686613
235,3530.0,0.9086789189563991
236,3550.0,0.9454229826441369
237,3570.0,0.8427370463318746
238,3590.0,0.8410591100196125
239,3610.0,0.8907131737073504
240,3630.0,0.9017612373950882
241,3640.0,0.911017269238957
242,3650.0,0.951476301082826
243,3670.0,0.9650933647705636
244,3690.0,0.9155134284583015
245,3710.0,0.9373894921460393
246,3730.0,0.8272995558337772
247,3750.0,0.8766476195215149
248,3770.0,0.9499766832092528
249,3790.0,0.9799297468969905
250,3801.8939600000003,0.9782051605719608
251,3810.0,0.9775721771999836
252,3830.0,0.8104544198635351
253,3850.0,0.9195676625270864
254,3870.0,0.9336679051906379
255,3890.0,0.9105701478541894
256,3910.0,1.0469083905177408
257,3930.0,0.8255836331812922
258,3950.0,0.9744638758448436
259,3970.0,0.7958441185083951
260,3990.0,1.1334073611719466
261,4010.0,1.1992656038354979
262,4030.0,1.1886488464990494
263,4050.0,1.1621240891626008
264,4070.0,1.1196913318261523
265,4090.0,1.1971755744897037
266,4110.0,1.1223188171532552
267,4130.0,1.1624790598168067
268,4150.0,1.157368302480358
269,4170.0,1.1608235451439095
270,4190.0,1.145921787807461
271,4210.0,1.1487650304710124
272,4230.0,1.1118402731345638
273,4250.0,1.1458845157981152
274,4270.0,1.1034527584616667
275,4290.0,1.067751001125218
276,4310.0,0.9900792437887695
277,4330.0,1.144406486452321
278,4350.0,1.1203287291158723
279,4365.15832,1.200847635126458
280,4370.0,1.226800237587109
281,4390.0,1.1455691848808098
282,4410.0,1.1787451321745106
283,4430.0,1.2229350794682117
284,4450.0,1.2285810267619126
285,4470.0,1.2752179740556135
286,4490.0,1.2888159213493144
287,4510.0,1.4015338686430154
288,4530.0,1.2762468159367164
289,4550.0,1.3100347632304172
290,4570.0,1.3780897105241183
291,4590.0,1.3231616578178191
292,4610.0,1.34349060511152
293,4630.0,1.315486552405221
294,4650.0,1.326026499698922
295,4670.0,1.3628694469926228
296,4690.0,1.3422113942863239
297,4710.0,1.3062543415800247
298,4730.0,1.3382082888737257
299,4750.0,1.3640472361674265
300,4770.0,1.3470501834611275
301,4790.0,1.3465791307548285
302,4810.0,1.3405970780485292
303,4830.0,1.3676650253422302
304,4850.0,1.2882629726359314
305,4870.0,1.1929599199296321
306,4890.0,1.3185188672233332
307,4910.0,1.320492814517034
308,4930.0,1.296772761810735
309,4950.0,1.3366767091044358
310,4970.0,1.3141816563981368
311,4990.0,1.243351603691838
312,5010.0,1.1890405509855386
313,5011.87234,1.193921923665333
314,5030.0,1.2417957368979033
315,5050.0,1.2346582619944357
316,5070.0,1.2727947870909682
317,5090.0,1.2179343121875004
318,5110.0,1.2395518372840328
319,5130.0,1.203048362380565
320,5150.0,1.1665428874770973
321,5170.0,1.0976124125736297
322,5190.0,1.123512937670162
323,5210.0,1.1904034627666944
324,5230.0,1.2566829878632269
325,5250.0,1.297875512959759
326,5270.0,1.1763320380562914
327,5290.0,1.3062485631528236
328,5310.0,1.3676170882493561
329,5330.0,1.2332306133458886
330,5350.0,1.3227541384424208
331,5370.0,1.313792663538953
332,5390.0,1.2882921886354854
333,5410.0,1.2701437137320177
334,5430.0,1.28380823882855
335,5450.0,1.3097167639250824
336,5470.0,1.2860452890216147
337,5490.0,1.2911538141181471
338,5510.0,1.2754453392146794
339,5530.0,1.3111308643112118
340,5550.0,1.324189389407744
341,5570.0,1.2993079145042765
342,5590.0,1.2707564396008089
343,5610.0,1.306444964697341
344,5630.0,1.2968634897938736
345,5650.0,1.311132014890406
346,5670.0,1.282580539986938
347,5690.0,1.3146090650834705
348,5710.0,1.2756475901800028
349,5730.0,1.362726115276535
350,5750.0,1.3170446403730676
351,5754.399369999999,1.3191098201557636
352,5770.0,1.3268029892000657
353,5790.0,1.280985628137469
354,5810.0,1.3244882670748728
355,5830.0,1.3557509060122763
356,5850.0,1.3172735449496797
357,5870.0,1.3142861838870834
358,5890.0,1.185256822824487
359,5910.0,1.2917814617618908
360,5930.0,1.2998041006992942
361,5950.0,1.2986467396366979
362,5970.0,1.3164493785741014
363,5990.0,1.295722017511505
364,6010.0,1.2798746564489085
365,6030.0,1.3086972953863123
366,6050.0,1.3271099343237158
367,6070.0,1.3228925732611194
368,6090.0,1.280755212198523
369,6110.0,1.2838778511359266
370,6130.0,1.2221484900733302
371,6150.0,1.2491331290107337
372,6170.0,1.1904687679481374
373,6190.0,1.2529484068855408
374,6210.0,1.2420010458229445
375,6230.0,1.206573684760348
376,6250.0,1.1729903236977517
377,6270.0,1.2189419626351554
378,6290.0,1.237971601572559
379,6310.0,1.2086742405099626
380,6330.0,1.222199879447366
381,6350.0,1.2216575183847695
382,6370.0,1.2149911573221732
383,6390.0,1.2352447962595767
384,6410.0,1.2132884351969806
385,6430.0,1.222530074134384
386,6450.0,1.2134197130717876
387,6470.0,1.2098163520091914
388,6490.0,1.1884679909465947
389,6510.0,1.2234106298839986
390,6530.0,1.220423268821402
391,6550.0,1.1892789077588057
392,6570.0,1.1287765466962092
393,6590.0,1.1992021856336128
394,6606.93448,1.208066233469247
395,6610.0,1.2097245832899788
396,6630.0,1.1979009537115173
397,6650.0,1.1964853241330557
398,6670.0,1.1712046945545942
399,6690.0,1.1838580649761328
400,6710.0,1.1426714353976712
401,6730.0,1.1681738058192097
402,6750.0,1.1496251762407483
403,6770.0,1.1543235466622868
404,6790.0,1.1406689170838256
405,6810.0,1.1453692875053638
406,6830.0,1.1567986579269025
407,6850.0,1.129685028348441
408,6870.0,1.1453953987699794
409,6890.0,1.159271769191518
410,6910.0,1.1560201396130565
411,6930.0,1.1472585100345951
412,6950.0,1.1470638804561335
413,6970.0,1.159717250877672
414,6990.0,1.1540176212992106
415,7010.0,1.139138991720749
416,7030.0,1.1597453621422877
417,7050.0,1.163831732563826
418,7070.0,1.1299871029853648
419,7090.0,1.0967554734069032
420,7110.0,1.0720878438284418
421,7130.0,1.0517042142499804
422,7150.0,1.0472265846715187
423,7170.0,1.0580439550930574
424,7190.0,1.0358243255145958
425,7210.0,1.0564306959361345
426,7230.0,1.0770380663576729
427,7250.0,1.0835734367792114
428,7270.0,1.09010680720075
429,7290.0,1.0764531776222885
430,7310.0,1.1037905480438268
431,7330.0,1.1066539184653654
432,7350.0,1.116859288886904
433,7370.0,1.1423616593084425
434,7390.0,1.122589029729981
435,7410.0,1.1223934001515197
436,7430.0,1.146670770573058
437,7450.0,1.1452531409945967
438,7470.0,1.1621895114161351
439,7490.0,1.1595458818376736
440,7510.0,1.1703672522592121
441,7530.0,1.1873026226807508
442,7550.0,1.194445993102289
443,7570.0,1.1893593635238278
444,7585.77575,1.1694175301327074
445,7590.0,1.164129948310615
446,7610.0,1.1433805312089178
447,7630.0,1.1189621141072206
448,7650.0,1.0957656970055234
449,7670.0,1.0468732799038265
450,7690.0,1.0689508628021291
451,7710.0,1.050649445700432
452,7730.0,1.052537028598735
453,7750.0,1.045859611497038
454,7770.0,1.0569241943953407
455,7790.0,1.0649297772936435
456,7810.0,1.0631463601919464
457,7830.0,1.0552459430902494
458,7850.0,1.0418385259885523
459,7870.0,1.057798108886855
460,7890.0,1.045001691785158
461,7910.0,1.0236422746834608
462,7930.0,1.0273648575817638
463,7950.0,1.0200744404800666
464,7970.0,1.0501070233783696
465,7990.0,1.0507706062766724
466,8010.0,1.060000189174975
467,8030.0,1.0637217720732781
468,8050.0,1.0643863549715809
469,8070.0,1.077899937869884
470,8090.0,1.0687755207681866
471,8110.0,1.0798411036664894
472,8130.0,1.1092586865647924
473,8150.0,1.1215482694630954
474,8170.0,1.1313888523613982
475,8190.0,1.098403435259701
476,8210.0,1.084995018158004
477,8230.0,1.0899426010563067
478,8250.0,1.0881591839546096
479,8270.0,1.0973887668529125
480,8290.0,1.0858173497512154
481,8310.0,1.0509969326495183
482,8330.0,1.043707515547821
483,8350.0,1.042536098446124
484,8370.0,1.0480956813444269
485,8390.0,1.0151102642427297
486,8410.0,1.0451408471410326
487,8430.0,0.9980844300393354
488,8450.0,0.9761120129376383
489,8470.0,0.9767765958359411
490,8490.0,0.982335178734244
491,8510.0,0.945066761632547
492,8530.0,0.9806043445308498
493,8550.0,0.9139679274291527
494,8570.0,1.0082405103274557
495,8590.0,0.9960560932257584
496,8610.0,1.0065096761240613
497,8630.0,1.026751259022364
498,8650.0,1.027414841920667
499,8670.0,0.9381444248189699
500,8690.0,1.0061070077172727
501,8709.6359,1.0397959118389108
502,8710.0,1.0404240751076317
503,8730.0,1.0473970610301653
504,8750.0,1.0354050469526987
505,8770.0,1.0558390328752323
506,8790.0,1.068930018797766
507,8810.0,1.0502080047202993
508,8830.0,1.060240990642833
509,8850.0,1.0555889765653663
510,8870.0,1.0148429624878998
511,8890.0,1.0309939484104333
512,8910.0,1.0428619343329668
513,8930.0,1.0253639202555005
514,8950.0,1.028053906178034
515,8970.0,1.0313568921005674
516,8990.0,1.032212878023101
517,9010.0,1.0006428639456344
518,9030.0,1.036981849868168
519,9050.0,1.0696518357907014
520,9070.0,1.069895821713235
521,9090.0,1.0517848076357685
522,9110.0,1.063652793558302
523,9130.0,1.0816397794808355
524,9150.0,1.073929765403369
525,9170.0,1.0729507513259025
526,9190.0,1.0835957372484362
527,9210.0,1.0422367231709697
528,9230.0,1.012500709093503
529,9250.0,1.0121326950160365
530,9270.0,1.0191076809385702
531,9290.0,1.0058906668611036
532,9310.0,1.0116416527836372
533,9330.0,1.0131086387061705
534,9350.0,1.0090686246287042
535,9370.0,0.9934066105512377
536,9390.0,1.0101695964737711
537,9410.0,0.9920595823963048
538,9430.0,1.0155505683188382
539,9450.0,1.001722554241372
540,9470.0,1.0239915401639053
541,9490.0,1.0254595260864388
542,9510.0,1.0073485120089722
543,9530.0,1.0118764979315058
544,9550.0,0.9925424838540393
545,9570.0,1.0050204697765728
546,9590.0,1.0236194556991063
547,9610.0,1.00979244162164
548,9630.0,1.0155414275441734
549,9650.0,0.9974314134667069
550,9670.0,0.9976743993892404
551,9690.0,1.0126023853117738
552,9710.0,0.9975503712343075
553,9730.0,0.9880053571568409
554,9750.0,0.9845793430793744
555,9770.0,0.989105329001908
556,9790.0,0.9752763149244414
557,9810.0,0.998157300846975
558,9830.0,0.9880012867695085
559,9850.0,0.994974272692042
560,9870.0,0.9878772586145755
561,9890.0,0.986897244537109
562,9910.0,0.9773532304596425
563,9930.0,0.9831022163821761
564,9950.0,0.9851822023047097
565,9970.0,0.985425188227243
566,9990.0,0.9819981741497766
567,10000.0,0.9813554171110433
568,10030.0,0.9796412315250996
569,10070.0,0.9675656507438414
570,10130.0,0.978514779571954
571,10170.0,0.9676621987906957
572,10220.0,0.9695469728141229
573,10280.0,0.9713181016422354
574,10320.0,0.9598555208609774
575,10380.0,0.9530606496890899
576,10430.0,0.9555574237125171
577,10480.0,0.9427571977359441
578,10520.0,0.9337406169546859
579,10580.0,0.9159347457827987
580,10630.0,0.9080295198062257
581,10680.0,0.8989012938296529
582,10720.0,0.9033457130483946
583,10780.0,0.8971628418765072
584,10820.0,0.884476261095249
585,10870.0,0.8808550351186762
586,10920.0,0.8778448091421033
587,10980.0,0.867379937970216
588,11020.0,0.8620333571889577
589,11080.0,0.8485104860170702
590,11130.0,0.8454992600404976
591,11170.0,0.8395436792592392
592,11220.0,0.8389804532826663
593,11280.0,0.827903582110779
594,11330.0,0.8261173561342061
595,11380.0,0.8200471301576333
596,11430.0,0.8115299041810605
597,11470.0,0.8202553233998022
598,11481.5362,0.8195376042595834
599,11530.0,0.8167837964371676
600,11570.0,0.8079829182704403
601,11620.0,0.7960643205620314
602,11670.0,0.7951597228536225
603,11730.0,0.7972534056035316
604,11770.0,0.7805005274368044
605,11830.0,0.7728072101867137
606,11870.0,0.7603353320199865
607,11920.0,0.7704437343115775
608,11980.0,0.7474534170614866
609,12030.0,0.7593958193530777
610,12070.0,0.7530429411863505
611,12120.0,0.7533623434779415
612,12180.0,0.7536220262278508
613,12230.0,0.7490454285194418
614,12270.0,0.7439145503527146
615,12320.0,0.7381149526443056
616,12370.0,0.7359873549358966
617,12430.0,0.7252340376858057
618,12480.0,0.7231044399773968
619,12530.0,0.7166938422689878
620,12580.0,0.7139532445605788
621,12620.0,0.7094353663938516
622,12670.0,0.7033287686854427
623,12720.0,0.7030351709770337
624,12780.0,0.7021318537269429
625,12830.0,0.680425256018534
626,12880.0,0.6901646583101249
627,12920.0,0.6829567801433977
628,12980.0,0.6882324628933069
629,13020.0,0.6798605847265797
630,13080.0,0.680976267476489
631,13130.0,0.6670396697680799
632,13180.0,0.665094072059671
633,13182.5674,0.6650601003405396
634,13230.0,0.6646154477676304
635,13280.0,0.653932727338106
636,13320.0,0.6533611509944866
637,13380.0,0.6465722864790573
638,13430.0,0.648062566049533
639,13470.0,0.6429039897059137
640,13520.0,0.6381532692763892
641,13570.0,0.6301595488468649
642,13630.0,0.6269796843314357
643,13670.0,0.6292851079878162
644,13730.0,0.6300812434723869
645,13770.0,0.6283486671287675
646,13820.0,0.6285539466992431
647,13880.0,0.6228050821838138
648,13930.0,0.5987213617542895
649,13970.0,0.59496978541067
650,14020.0,0.5894860649811458
651,14080.0,0.5930352004657166
652,14120.0,0.586163624122097
653,14180.0,0.5908137596066678
654,14230.0,0.5854530391771435
655,14280.0,0.577093318747619
656,14330.0,0.5851915983180948
657,14380.0,0.5889458778885704
658,14420.0,0.5766283015449509
659,14480.0,0.5847044370295217
660,14520.0,0.5804648606859022
661,14570.0,0.5827491402563779
662,14620.0,0.5717584198268535
663,14670.0,0.5684146993973291
664,14720.0,0.5640319789678048
665,14770.0,0.5668672585382805
666,14830.0,0.5690713940228513
