,lambda (Angstroms),Total Flux (erg/s/cm^2/Angstrom)
0,1005.0,5.196623984045348
1,1015.0,5.122865075158599
2,1025.0,4.97862596627185
3,1035.0,4.948182257385101
4,1045.0,4.981306348498352
5,1055.0,4.927675439611602
6,1065.0,4.825711530724853
7,1075.0,4.793371621838103
8,1085.0,4.685657712951355
9,1095.0,4.673323804064605
10,1096.4782,4.665504730812966
11,1105.0,4.630081711380352
12,1115.0,4.572362179365267
13,1125.0,4.516354647350182
14,1135.0,4.508252115335098
15,1145.0,4.432790583320014
16,1155.0,4.403397051304929
17,1165.0,4.367273519289845
18,1175.0,4.26440198727476
19,1185.0,4.248163455259676
20,1195.0,4.080806923244591
21,1205.0,4.007120391229507
22,1215.0,3.915077359214423
23,1225.0,3.931081327199338
24,1235.0,3.9978637951842537
25,1245.0,3.9949612631691687
26,1255.0,3.927146731154085
27,1258.92541,3.878311674129351
28,1265.0,3.811664456263028
29,1275.0,3.8953426971330725
30,1285.0,3.889390938003117
31,1295.0,3.773131178873162
32,1305.0,3.710281419743206
33,1315.0,3.760677660613251
34,1325.0,3.718077901483296
35,1335.0,3.62378214235334
36,1345.0,3.671975383223385
37,1355.0,3.62026062409343
38,1365.0,3.5380778649634745
39,1375.0,3.533350105833519
40,1385.0,3.5027423467035637
41,1395.0,3.452556587573609
42,1405.0,3.419502828443653
43,1415.0,3.3640560693136976
44,1425.0,3.3448883101837423
45,1435.0,3.2928065510537867
46,1442.0,3.292110019662818
47,1445.43977,3.2893689498035736
48,1447.0,3.2898445078137746
49,1455.0,3.2557673073328233
50,1465.0,3.2006923067316344
51,1475.0,3.167091306130446
52,1485.0,3.1539853055292575
53,1495.0,3.1402693049280685
54,1505.0,3.1009773043268796
55,1512.0,3.045893503906048
56,1517.0,3.0589795036054532
57,1525.0,3.0131573031245025
58,1535.0,2.9520863025233135
59,1545.0,2.973304301922125
60,1555.0,2.923612301320936
61,1565.0,2.889950300719747
62,1575.0,2.8788023001185583
63,1585.0,2.8721812995173703
64,1595.0,2.855527298916181
65,1605.0,2.8166652983149927
66,1615.0,2.7927312977138037
67,1625.0,2.7444472971126155
68,1635.0,2.7344002965114265
69,1645.0,2.714564295910238
70,1655.0,2.6560632953090493
71,1659.58691,2.658133826207289
72,1665.0,2.664707163886754
73,1672.0,2.604195951605461
74,1677.0,2.6392066571188226
75,1685.0,2.647391985940202
76,1695.0,2.608021396966926
77,1705.0,2.57372980799365
78,1715.0,2.5407842190203738
79,1725.0,2.5203796300470978
80,1735.0,2.5193090410738215
81,1745.0,2.4952944521005453
82,1755.0,2.500708863127269
83,1765.0,2.446838274153993
84,1775.0,2.444482685180717
85,1785.0,2.427811096207441
86,1795.0,2.432245507234165
87,1805.0,2.4067639182608893
88,1815.0,2.3712483292876128
89,1825.0,2.3527397403143366
90,1835.0,2.322119151341061
91,1845.0,2.2831165623677845
92,1855.0,2.265770973394509
93,1865.0,2.2548503844212324
94,1875.0,2.2561027954479567
95,1885.0,2.2211992064746804
96,1895.0,2.197185617501404
97,1905.0,2.184551028528128
98,1905.46072,2.1835179750089515
99,1915.0,2.166674002921469
100,1925.0,2.1510955150529054
101,1935.0,2.1371090271843425
102,1945.0,2.135297539315779
103,1955.0,2.110664051447216
104,1967.0,2.1146796660049403
105,1976.0,2.1065881269232336
106,1984.0,2.0833465366283828
107,1995.0,2.059915099972964
108,2005.0,2.0497216121044004
109,2015.0,2.0253331242358374
110,2025.0,2.021563636367274
111,2035.0,2.000295148498711
112,2045.0,1.9970146606301478
113,2055.0,1.9723211727615846
114,2065.0,1.9579056848930214
115,2074.0,1.9608271458113147
116,2078.0,1.9543143506638894
117,2085.0,1.9514057091558952
118,2095.0,1.9247542212873323
119,2105.0,1.907768733418769
120,2115.0,1.8969622455502058
121,2125.0,1.8855457576816426
122,2135.0,1.8497782698130796
123,2145.0,1.8507187819445163
124,2155.0,1.8434612940759532
125,2165.0,1.8185238062073898
126,2175.0,1.802578318338827
127,2185.0,1.7897538304702638
128,2187.7616199999998,1.7888812999815058
129,2195.0,1.7896542550464547
130,2205.0,1.77175811147973
131,2215.0,1.7471919679130055
132,2225.0,1.7332108243462805
133,2235.0,1.7454156807795558
134,2245.0,1.7226235372128307
135,2255.0,1.7017903936461063
136,2265.0,1.6962522500793815
137,2275.0,1.6954861065126565
138,2285.0,1.6971679629459318
139,2295.0,1.675965819379207
140,2305.0,1.6667566758124823
141,2315.0,1.6462305322457575
142,2325.0,1.5961523886790328
143,2335.0,1.611109245112308
144,2345.0,1.5916811015455834
145,2355.0,1.6059059579788586
146,2365.0,1.5736308144121336
147,2375.0,1.574026670845409
148,2385.0,1.5466475272786842
149,2395.0,1.5522433837119594
150,2405.0,1.5364272401452346
151,2415.0,1.5333350965785097
152,2425.0,1.5431539530117848
153,2435.0,1.5279488094450602
154,2445.0,1.5334226658783354
155,2455.0,1.5220725223116107
156,2465.0,1.509498378744886
157,2475.0,1.491417235178161
158,2485.0,1.4822700916114364
159,2495.0,1.4705519480447116
160,2505.0,1.4846518044779866
161,2511.88643,1.4514413804545165
162,2513.0,1.44632208790511
163,2518.0,1.4440670143369612
164,2525.0,1.4321143113415526
165,2535.0,1.4334181642052548
166,2545.0,1.4252400170689572
167,2555.0,1.4435528699326594
168,2565.0,1.4246667227963614
169,2575.0,1.434840575660064
170,2585.0,1.422747428523766
171,2595.0,1.4110212813874683
172,2605.0,1.3948881342511705
173,2615.0,1.3842609871148728
174,2625.0,1.3926638399785751
175,2635.0,1.4092626928422773
176,2645.0,1.4333265457059796
177,2655.0,1.4546973985696818
178,2665.0,1.397880251433384
179,2675.0,1.4069531042970862
180,2685.0,1.4090529571607884
181,2695.0,1.3754228100244907
182,2705.0,1.3873726628881928
183,2715.0,1.3531305157518951
184,2725.0,1.3361423686155973
185,2735.0,1.3487042214792995
186,2745.0,1.2988610743430018
187,2755.0,1.3045089272067039
188,2765.0,1.3149277800704062
189,2775.0,1.3189256329341084
190,2785.0,1.2843154857978105
191,2795.0,1.229944338661513
192,2805.0,1.235838191525215
193,2815.0,1.2856580443889174
194,2825.0,1.3072138972526197
195,2835.0,1.2902247501163218
196,2845.0,1.2610616029800241
197,2855.0,1.2325094558437262
198,2865.0,1.2737643087074286
199,2875.0,1.2903631615711308
200,2884.0315,1.2773405088349834
201,2885.0,1.2761314513974114
202,2895.0,1.2887926368638858
203,2910.0,1.3324114150635973
204,2930.0,1.297958785996546
205,2950.0,1.2766631569294944
206,2970.0,1.2744545278624428
207,2990.0,1.2672898987953916
208,3010.0,1.2601862697283401
209,3030.0,1.258833640661289
210,3050.0,1.2539940115942374
211,3070.0,1.258822382527186
212,3090.0,1.2470077534601345
213,3110.0,1.260828124393083
214,3130.0,1.2364714953260318
215,3150.0,1.2288788662589802
216,3170.0,1.235359237191929
217,3190.0,1.1946666081248773
218,3210.0,1.2060399790578262
219,3230.0,1.1644313499907746
220,3250.0,1.2201617209237234
221,3270.0,1.249032091856672
222,3290.0,1.2343424627896205
223,3310.0,1.2089478337225692
224,3311.31121,1.2087227232841187
225,3330.0,1.2080505458271729
226,3350.0,1.1915482082382267
227,3370.0,1.1254898706492809
228,3390.0,1.1417185330603348
229,3410.0,1.140511195471389
230,3430.0,1.1433408578824429
231,3450.0,1.1476395202934968
232,3470.0,1.147717182704551
233,3490.0,1.170675845115605
234,3510.0,1.183295507526659
235,3530.0,1.145563169937713
236,3550.0,1.180329832348767
237,3570.0,1.075666494759821
238,3590.0,1.072011157170875
239,3610.0,1.119687819581929
240,3630.0,1.128758481992983
241,3640.0,1.1370258131985098
242,3650.0,1.176496144404037
243,3670.0,1.188135806815091
244,3690.0,1.1365784692261451
245,3710.0,1.156477131637199
246,3730.0,1.044409794048253
247,3750.0,1.091780456459307
248,3770.0,1.163132118870361
249,3790.0,1.191107781281415
250,3801.8939600000003,1.188207238371944
251,3810.0,1.1870052531428337
252,3830.0,1.0184835998050499
253,3850.0,1.1261929464672664
254,3870.0,1.1388892931294827
255,3890.0,1.114387639791699
256,3910.0,1.2493219864539153
257,3930.0,1.0265933331161317
258,3950.0,1.174069679778348
259,3970.0,0.9940460264405644
260,3990.0,1.3302053731027805
261,4010.0,1.3946597197649968
262,4030.0,1.3826390664272132
263,4050.0,1.3547104130894296
264,4070.0,1.310873759751646
265,4090.0,1.3869541064138624
266,4110.0,1.3106934530760785
267,4130.0,1.349449799738295
268,4150.0,1.3429351464005115
269,4170.0,1.3449864930627278
270,4190.0,1.328680839724944
271,4210.0,1.3301201863871603
272,4230.0,1.2917915330493768
273,4250.0,1.324431879711593
274,4270.0,1.2805962263738093
275,4290.0,1.2434905730360257
276,4310.0,1.164414919698242
277,4330.0,1.3173382663604585
278,4350.0,1.2918566130226747
279,4365.15832,1.3713114837915126
280,4370.0,1.3970246251244411
281,4390.0,1.3148044069725855
282,4410.0,1.3469911888207295
283,4430.0,1.390191970668874
284,4450.0,1.3948487525170181
285,4470.0,1.4404965343651623
286,4490.0,1.4531053162133065
287,4510.0,1.5648340980614506
288,4530.0,1.4385578799095948
289,4550.0,1.471356661757739
290,4570.0,1.5384224436058833
291,4590.0,1.4825052254540272
292,4610.0,1.5018450073021714
293,4630.0,1.4728517891503157
294,4650.0,1.48240257099846
295,4670.0,1.518256352846604
296,4690.0,1.496609134694748
297,4710.0,1.4596629165428925
298,4730.0,1.4906276983910365
299,4750.0,1.5154774802391806
300,4770.0,1.4974912620873249
301,4790.0,1.4960310439354692
302,4810.0,1.4890598257836134
303,4830.0,1.5151386076317577
304,4850.0,1.4347473894799019
305,4870.0,1.3384551713280457
306,4890.0,1.46302495317619
307,4910.0,1.4640097350243344
308,4930.0,1.4393005168724784
309,4950.0,1.4782152987206227
310,4970.0,1.454731080568767
311,4990.0,1.3829118624169112
312,5010.0,1.3276116442650552
313,5011.87234,1.3324004142433328
314,5030.0,1.379640481282719
315,5050.0,1.371803802849194
316,5070.0,1.4092411244156686
317,5090.0,1.3536814459821433
318,5110.0,1.3745997675486181
319,5130.0,1.3373970891150928
320,5150.0,1.3001924106815674
321,5170.0,1.2305627322480424
322,5190.0,1.2557640538145172
323,5210.0,1.321955375380992
324,5230.0,1.3875356969474668
325,5250.0,1.4280290185139415
326,5270.0,1.3057863400804162
327,5290.0,1.435003661646891
328,5310.0,1.495672983213366
329,5330.0,1.3605873047798407
330,5350.0,1.4494116263463153
331,5370.0,1.4397509479127901
332,5390.0,1.413551269479265
333,5410.0,1.3947035910457397
334,5430.0,1.4076689126122144
335,5450.0,1.4328782341786892
336,5470.0,1.4085075557451638
337,5490.0,1.4129168773116387
338,5510.0,1.3965091988781135
339,5530.0,1.4314955204445883
340,5550.0,1.443854842011063
341,5570.0,1.4182741635775378
342,5590.0,1.3890234851440126
343,5610.0,1.4240128067104874
344,5630.0,1.4137321282769622
345,5650.0,1.4273014498434369
346,5670.0,1.3980507714099115
347,5690.0,1.4293800929763865
348,5710.0,1.389719414542861
349,5730.0,1.4760987361093358
350,5750.0,1.4297180576758108
351,5754.399369999999,1.4316294347068055
352,5770.0,1.4389356988572364
353,5790.0,1.39262232591067
354,5810.0,1.4356289529641038
355,5830.0,1.4663955800175374
356,5850.0,1.427422207070971
357,5870.0,1.4239388341244048
358,5890.0,1.2944134611778386
359,5910.0,1.4004420882312723
360,5930.0,1.407968715284706
361,5950.0,1.4063153423381398
362,5970.0,1.4236219693915735
363,5990.0,1.402398596445007
364,6010.0,1.3860552234984407
365,6030.0,1.4143818505518746
366,6050.0,1.432298477605308
367,6070.0,1.427585104658742
368,6090.0,1.3849517317121758
369,6110.0,1.3875783587656092
370,6130.0,1.3253529858190432
371,6150.0,1.3518416128724766
372,6170.0,1.2926812399259104
373,6190.0,1.354664866979344
374,6210.0,1.3432214940327778
375,6230.0,1.3072981210862116
376,6250.0,1.2732187481396453
377,6270.0,1.318674375193079
378,6290.0,1.3372080022465127
379,6310.0,1.3074146292999465
380,6330.0,1.32044425635338
381,6350.0,1.3194058834068136
382,6370.0,1.3122435104602475
383,6390.0,1.332001137513681
384,6410.0,1.3095487645671149
385,6430.0,1.3182943916205487
386,6450.0,1.3086880186739824
387,6470.0,1.304588645727416
388,6490.0,1.2827442727808498
389,6510.0,1.3171908998342836
390,6530.0,1.3137075268877172
391,6550.0,1.282067153941151
392,6570.0,1.2210687809945846
393,6590.0,1.2909984080480184
394,6606.93448,1.2994424707172099
395,6610.0,1.3010478332713982
396,6630.0,1.2888785053021674
397,6650.0,1.2871171773329366
398,6670.0,1.261490849363706
399,6690.0,1.2737985213944754
400,6710.0,1.2322661934252448
401,6730.0,1.257422865456014
402,6750.0,1.2385285374867834
403,6770.0,1.2428812095175528
404,6790.0,1.228880881548322
405,6810.0,1.2332355535790913
406,6830.0,1.2443192256098605
407,6850.0,1.21685989764063
408,6870.0,1.2322245696713994
409,6890.0,1.2457552417021684
410,6910.0,1.242157913732938
411,6930.0,1.2330505857637073
412,6950.0,1.2325102577944764
413,6970.0,1.244817929825246
414,6990.0,1.2387726018560152
415,7010.0,1.2235482738867844
416,7030.0,1.2438089459175539
417,7050.0,1.247549617948323
418,7070.0,1.2133592899790924
419,7090.0,1.1797819620098617
420,7110.0,1.1547686340406311
421,7130.0,1.1340393060714005
422,7150.0,1.1292159781021698
423,7170.0,1.139687650132939
424,7190.0,1.1171223221637083
425,7210.0,1.1373829941944777
426,7230.0,1.1576446662252469
427,7250.0,1.1638343382560163
428,7270.0,1.1700220102867855
429,7290.0,1.156022682317555
430,7310.0,1.1830143543483242
431,7330.0,1.1855320263790936
432,7350.0,1.195391698409863
433,7370.0,1.2205483704406321
434,7390.0,1.2004300424714014
435,7410.0,1.1998887145021708
436,7430.0,1.2238203865329402
437,7450.0,1.2220570585637094
438,7470.0,1.2386477305944787
439,7490.0,1.2356584026252482
440,7510.0,1.2461340746560174
441,7530.0,1.2627237466867867
442,7550.0,1.2695214187175559
443,7570.0,1.2640890907483253
444,7585.77575,1.2438745747877962
445,7590.0,1.23853635472945
446,7610.0,1.217547187441311
447,7630.0,1.1928890201531723
448,7650.0,1.1694528528650334
449,7670.0,1.1203206855768948
450,7690.0,1.142158518288756
451,7710.0,1.1236173510006173
452,7730.0,1.1252651837124785
453,7750.0,1.1183480164243398
454,7770.0,1.129172849136201
455,7790.0,1.1369386818480622
456,7810.0,1.1349155145599235
457,7830.0,1.1267753472717847
458,7850.0,1.113128179983646
459,7870.0,1.1288480126955072
460,7890.0,1.1158118454073684
461,7910.0,1.0942126781192298
462,7930.0,1.097695510831091
463,7950.0,1.0901653435429521
464,7970.0,1.1199581762548134
465,7990.0,1.1203820089666747
466,8010.0,1.1293718416785359
467,8030.0,1.1328536743903972
468,8050.0,1.1332785071022584
469,8070.0,1.1465523398141197
470,8090.0,1.137188172525981
471,8110.0,1.1480140052378422
472,8130.0,1.1771918379497035
473,8150.0,1.1892416706615647
474,8170.0,1.1988425033734258
475,8190.0,1.1656173360852873
476,8210.0,1.1519691687971485
477,8230.0,1.1566770015090095
478,8250.0,1.1546538342208708
479,8270.0,1.1636436669327321
480,8290.0,1.1518324996445934
481,8310.0,1.1167723323564547
482,8330.0,1.1092431650683159
483,8350.0,1.1078319977801772
484,8370.0,1.1131518304920385
485,8390.0,1.0799266632038995
486,8410.0,1.1097174959157607
487,8430.0,1.062421328627622
488,8450.0,1.0402091613394833
489,8470.0,1.0406339940513445
490,8490.0,1.045952826763206
491,8510.0,1.0084446594750671
492,8530.0,1.0437424921869283
493,8550.0,0.9768663248987896
494,8570.0,1.0708991576106508
495,8590.0,1.058474990322512
496,8610.0,1.0686888230343732
497,8630.0,1.0886906557462344
498,8650.0,1.0891144884580957
499,8670.0,0.999604321169957
500,8690.0,1.0673271538818183
501,8709.6359,1.100780672469159
502,8710.0,1.1014059644394738
503,8730.0,1.1082212300430931
504,8750.0,1.0960714956467126
505,8770.0,1.1163477612503319
506,8790.0,1.1292810268539513
507,8810.0,1.1104012924575706
508,8830.0,1.1202765580611898
509,8850.0,1.115466823664809
510,8870.0,1.0745630892684284
511,8890.0,1.0905563548720476
512,8910.0,1.102266620475667
513,8930.0,1.0846108860792862
514,8950.0,1.0871431516829055
515,8970.0,1.090288417286525
516,8990.0,1.0909866828901442
517,9010.0,1.0592589484937636
518,9030.0,1.095440214097383
519,9050.0,1.127952479701002
520,9070.0,1.1280387453046214
521,9090.0,1.1097700109082407
522,9110.0,1.12148027651186
523,9130.0,1.1393095421154793
524,9150.0,1.1314418077190986
525,9170.0,1.1303050733227178
526,9190.0,1.1407923389263372
527,9210.0,1.0992756045299565
528,9230.0,1.0693818701335758
529,9250.0,1.068856135737195
530,9270.0,1.0756734013408145
531,9290.0,1.0622986669444339
532,9310.0,1.0678919325480531
533,9330.0,1.0692011981516722
534,9350.0,1.0650034637552916
535,9370.0,1.049183729358911
536,9390.0,1.0657889949625303
537,9410.0,1.0475212605661497
538,9430.0,1.0708545261697688
539,9450.0,1.0568687917733883
540,9470.0,1.0789800573770074
541,9490.0,1.0802903229806269
542,9510.0,1.0620215885842461
543,9530.0,1.0663918541878654
544,9550.0,1.0469001197914847
545,9570.0,1.059220385395104
546,9590.0,1.0776616509987234
547,9610.0,1.0636769166023425
548,9630.0,1.069268182205962
549,9650.0,1.0510004478095814
550,9670.0,1.0510857134132006
551,9690.0,1.0658559790168198
552,9710.0,1.0506462446204392
553,9730.0,1.0409435102240585
554,9750.0,1.0373597758276778
555,9770.0,1.041728041431297
556,9790.0,1.0277413070349164
557,9810.0,1.0504645726385355
558,9830.0,1.040150838242155
559,9850.0,1.0469661038457743
560,9870.0,1.0397113694493936
561,9890.0,1.0385736350530128
562,9910.0,1.0288719006566323
563,9930.0,1.0344631662602515
564,9950.0,1.0363854318638708
565,9970.0,1.03647069746749
566,9990.0,1.0328859630711094
567,10000.0,1.032164345872919
568,10030.0,1.0303053307501424
569,10070.0,1.0180366439197734
570,10130.0,1.02869611367422
571,10170.0,1.017650426843851
572,10220.0,1.01929381830589
573,10280.0,1.0207752880603365
574,10320.0,1.0091196012299675
575,10380.0,1.0020350709844141
576,10430.0,1.0042904624464528
577,10480.0,0.9912488539084917
578,10520.0,0.9820391670781228
579,10580.0,0.9639436368325693
580,10630.0,0.9557970282946081
581,10680.0,0.946427419756647
582,10720.0,0.950678732926278
583,10780.0,0.9442062026807246
584,10820.0,0.9313265158503558
585,10870.0,0.9274639073123946
586,10920.0,0.9242122987744332
587,10980.0,0.9134577685288799
588,11020.0,0.907918081698511
589,11080.0,0.8941055514529574
590,11130.0,0.8908529429149964
591,11170.0,0.8847042560846274
592,11220.0,0.8838996475466662
593,11280.0,0.8725331173011128
594,11330.0,0.8705055087631516
595,11380.0,0.8641939002251904
596,11430.0,0.8554352916872293
597,11470.0,0.8639676048568603
598,11481.5362,0.8631941929665478
599,11530.0,0.8603184234816681
600,11570.0,0.8514168832434863
601,11620.0,0.8393724579457591
602,11670.0,0.8383420326480321
603,11730.0,0.8402847222907595
604,11770.0,0.8234311820525777
605,11830.0,0.8155868716953053
606,11870.0,0.8030143314571235
607,11920.0,0.8129969061593965
608,11980.0,0.7898555958021238
609,12030.0,0.8016721705043968
610,12070.0,0.795218630266215
611,12120.0,0.7954122049684879
612,12180.0,0.7955208946112153
613,12230.0,0.7908184693134882
614,12270.0,0.7855869290753066
615,12320.0,0.7796615037775794
616,12370.0,0.7774080784798523
617,12430.0,0.7665037681225797
618,12480.0,0.7642483428248527
619,12530.0,0.7577119175271254
620,12580.0,0.7548454922293983
621,12620.0,0.7502269519912166
622,12670.0,0.7439945266934895
623,12720.0,0.7435751013957623
624,12780.0,0.7425207910384898
625,12830.0,0.7206883657407628
626,12880.0,0.7303019404430355
627,12920.0,0.7229934002048539
628,12980.0,0.7281180898475813
629,13020.0,0.7196455496093996
630,13080.0,0.7206102392521271
631,13130.0,0.7065478139543999
632,13180.0,0.7044763886566727
633,13182.5674,0.7044359559424851
634,13230.0,0.7039503539537577
635,13280.0,0.6932244676258659
636,13320.0,0.6926183585635522
637,13380.0,0.6857776949700819
638,13430.0,0.68722480864219
639,13470.0,0.6820316995798765
640,13520.0,0.6772378132519845
641,13570.0,0.6692009269240926
642,13630.0,0.6659692633306225
643,13670.0,0.6682401542683089
644,13730.0,0.6689844906748385
645,13770.0,0.667217381612525
646,13820.0,0.667379495284633
647,13880.0,0.6615788316911626
648,13930.0,0.6374519453632708
649,13970.0,0.6336658363009572
650,14020.0,0.6281389499730653
651,14080.0,0.631636286379595
652,14120.0,0.6247301773172814
653,14180.0,0.6293285137238112
654,14230.0,0.6239246273959193
655,14280.0,0.6155217410680273
656,14330.0,0.6235768547401354
657,14380.0,0.6272879684122434
658,14420.0,0.6149358593499299
659,14480.0,0.6229601957564596
660,14520.0,0.618686086694146
661,14570.0,0.6209272003662542
662,14620.0,0.6098933140383622
663,14670.0,0.6065064277104703
664,14720.0,0.6020805413825783
665,14770.0,0.6048726550546863
666,14830.0,0.6070249914612161
667,14880.0,0.6012521051333242
668,14920.0,0.6138019960710106
