,lambda (Angstroms),Total Flux (erg/s/cm^2/Angstrom)
0,1005.0,0.16821863855093477
1,1015.0,0.15696103470076125
2,1025.0,0.0752232308505877
3,1035.0,0.10728082700041416
4,1045.0,0.20290622315024062
5,1055.0,0.21177661930006708
6,1065.0,0.17231401544989353
7,1075.0,0.20247541159972
8,1085.0,0.15726280774954646
9,1095.0,0.2074302038993729
10,1096.4782,0.20885007355824026
11,1105.0,0.21703450406770125
12,1115.0,0.21048661412597652
13,1125.0,0.2056507241842518
14,1135.0,0.24871983424252703
15,1145.0,0.2244299443008023
16,1155.0,0.24620805435907755
17,1165.0,0.26125616441735283
18,1175.0,0.20955627447562808
19,1185.0,0.24448938453390334
20,1195.0,0.12830449459217858
21,1205.0,0.10578960465045385
22,1215.0,0.06491821470872912
23,1225.0,0.13209382476700438
24,1235.0,0.25004793482527965
25,1245.0,0.2983170448835549
26,1255.0,0.2816741549418302
27,1258.92541,0.2529260654682152
28,1265.0,0.20843949472312345
29,1275.0,0.3285986291534436
30,1285.0,0.35912776358376386
31,1295.0,0.279348898014084
32,1305.0,0.2529800324444042
33,1315.0,0.3398571668747244
34,1325.0,0.3337383013050446
35,1335.0,0.27592343573536476
36,1345.0,0.360597570165685
37,1355.0,0.3453637045960052
38,1365.0,0.2996618390263253
39,1375.0,0.33141497345664556
40,1385.0,0.3372881078869658
41,1395.0,0.3235832423172859
42,1405.0,0.32701037674760614
43,1415.0,0.3080445111779263
44,1425.0,0.3253576456082465
45,1435.0,0.3097567800385667
46,1442.0,0.33459687413979083
47,1445.43977,0.34440439260472894
48,1447.0,0.34885293798417816
49,1455.0,0.3351470282449685
50,1465.0,0.30553614107095645
51,1475.0,0.2973992538969444
52,1485.0,0.30975736672293236
53,1495.0,0.3215054795489203
54,1505.0,0.3076775923749082
55,1512.0,0.27041867135309977
56,1517.0,0.2962367277660937
57,1525.0,0.2707858180268841
58,1535.0,0.235178930852872
59,1545.0,0.28186104367885995
60,1555.0,0.25763315650484786
61,1565.0,0.24943526933083582
62,1575.0,0.26375138215682375
63,1585.0,0.2825944949828117
64,1595.0,0.2914046078087996
65,1605.0,0.2780067206347876
66,1615.0,0.2795368334607755
67,1625.0,0.2567169462867634
68,1635.0,0.27213405911275135
69,1645.0,0.27776217193873926
70,1655.0,0.2447252847647272
71,1659.58691,0.25847597531499245
72,1665.0,0.27470378252695477
73,1672.0,0.2266773592899009
74,1677.0,0.2706057712634338
75,1685.0,0.29305943042108656
76,1695.0,0.2715242543681525
77,1705.0,0.2550680783152184
78,1715.0,0.2399579022622843
79,1725.0,0.23738872620935023
80,1735.0,0.2541535501564161
81,1745.0,0.24797437410348205
82,1755.0,0.2712241980505479
83,1765.0,0.23518902199761385
84,1775.0,0.25066884594467975
85,1785.0,0.2518326698917457
86,1795.0,0.2741024938388116
87,1805.0,0.2664563177858775
88,1815.0,0.24877614173294343
89,1825.0,0.24810296568000934
90,1835.0,0.23531778962707525
91,1845.0,0.21415061357414117
92,1855.0,0.21464043752120707
93,1865.0,0.22155526146827298
94,1875.0,0.24064308541533888
95,1885.0,0.2235749093624048
96,1895.0,0.2173967333094707
97,1905.0,0.2225975572565366
98,1905.46072,0.22238621688142582
99,1915.0,0.21800858207249918
100,1925.0,0.21549851999556396
101,1935.0,0.21458045791862876
102,1945.0,0.22583739584169352
103,1955.0,0.21427233376475832
104,1967.0,0.23397005927243605
105,1976.0,0.23764010340319439
106,1984.0,0.22485325374164622
107,1995.0,0.21579708545701748
108,2005.0,0.21867202338008226
109,2015.0,0.20735196130314704
110,2025.0,0.21665089922621183
111,2035.0,0.20845083714927665
112,2045.0,0.2182387750723414
113,2055.0,0.2066137129954062
114,2065.0,0.205266650918471
115,2074.0,0.2199496950492293
116,2078.0,0.2186642702184552
117,2085.0,0.22490352676460057
118,2095.0,0.21132046468766535
119,2105.0,0.20740340261073012
120,2115.0,0.20966534053379493
121,2125.0,0.21131727845685971
122,2135.0,0.1886182163799245
123,2145.0,0.20262715430298928
124,2155.0,0.20843809222605408
125,2165.0,0.19656903014911886
126,2175.0,0.19369196807218364
127,2185.0,0.19393590599524843
128,2187.7616199999998,0.1966723781099576
129,2195.0,0.203846225625839
130,2205.0,0.19479307241183416
131,2215.0,0.17906991919782933
132,2225.0,0.17393176598382448
133,2235.0,0.19497961276981965
134,2245.0,0.1810304595558148
135,2255.0,0.16904030634180994
136,2265.0,0.1723451531278051
137,2275.0,0.18042199991380026
138,2285.0,0.19094684669979545
139,2295.0,0.1785876934857906
140,2305.0,0.17822154027178577
141,2315.0,0.16653838705778093
142,2325.0,0.12530323384377606
143,2335.0,0.14910308062977123
144,2345.0,0.13851792741576638
145,2355.0,0.16158577420176154
146,2365.0,0.13815362098775671
147,2375.0,0.14739246777375187
148,2385.0,0.12885631455974703
149,2395.0,0.14329516134574216
150,2405.0,0.13632200813173734
151,2415.0,0.14207285491773247
152,2425.0,0.16073470170372764
153,2435.0,0.1543725484897228
154,2445.0,0.16868939527571797
155,2455.0,0.16618224206171311
156,2465.0,0.16245108884770826
157,2475.0,0.15321293563370342
158,2485.0,0.1529087824196986
159,2495.0,0.15003362920569377
160,2505.0,0.17297647599168892
161,2511.88643,0.14585571537368688
162,2513.0,0.14147002263007724
163,2518.0,0.14250885876584005
164,2525.0,0.13516762935590795
165,2535.0,0.1430593016274335
166,2545.0,0.14146897389895907
167,2555.0,0.16636964617048464
168,2565.0,0.15407131844201022
169,2575.0,0.17083299071353578
170,2585.0,0.16532766298506135
171,2595.0,0.16018933525658693
172,2605.0,0.1506440075281125
173,2615.0,0.14660467979963807
174,2625.0,0.16159535207116363
175,2635.0,0.18478202434268923
176,2645.0,0.21543369661421477
177,2655.0,0.24339236888574037
178,2665.0,0.19316304115726593
179,2675.0,0.20882371342879147
180,2685.0,0.21751138570031706
181,2695.0,0.19046905797184263
182,2705.0,0.20900673024336822
183,2715.0,0.18135240251489376
184,2725.0,0.17095207478641936
185,2735.0,0.19010174705794491
186,2745.0,0.14684641932947048
187,2755.0,0.15908209160099607
188,2765.0,0.17608876387252165
189,2775.0,0.1866744361440472
190,2785.0,0.15865210841557276
191,2795.0,0.11086878068709835
192,2805.0,0.12335045295862392
193,2815.0,0.1797581252301495
194,2825.0,0.20790179750167503
195,2835.0,0.19750046977320063
196,2845.0,0.1749251420447262
197,2855.0,0.15296081431625178
198,2865.0,0.20080348658777733
199,2875.0,0.2239901588593029
200,2884.0315,0.21691729522133119
201,2885.0,0.21615886222175468
202,2895.0,0.2334728555147176
203,2910.0,0.28407084545416195
204,2930.0,0.2589238320400878
205,2950.0,0.24693381862601366
206,2970.0,0.2540308052119395
207,2990.0,0.2561717917978653
208,3010.0,0.25837377838379116
209,3030.0,0.26632676496971697
210,3050.0,0.2707927515556428
211,3070.0,0.28492673814156866
212,3090.0,0.2824177247274945
213,3110.0,0.3055437113134203
214,3130.0,0.2904926978993462
215,3150.0,0.29220568448527195
216,3170.0,0.3079916710711978
217,3190.0,0.27660465765712366
218,3210.0,0.2972836442430495
219,3230.0,0.26498063082897527
220,3250.0,0.3300166174149012
221,3270.0,0.368192604000827
222,3290.0,0.3628085905867528
223,3310.0,0.34671957717267865
224,3311.31121,0.3471045475492452
225,3330.0,0.3525913366791996
226,3350.0,0.342680080253775
227,3370.0,0.2832128238283503
228,3390.0,0.3060325674029256
229,3410.0,0.311416310977501
230,3430.0,0.32083705455207634
231,3450.0,0.3317267981266517
232,3470.0,0.338395541701227
233,3490.0,0.36794528527580234
234,3510.0,0.38715602885037764
235,3530.0,0.35601477242495305
236,3550.0,0.3973725159995284
237,3570.0,0.29930025957410367
238,3590.0,0.30223600314867904
239,3610.0,0.35650374672325436
240,3630.0,0.37216549029782975
241,3640.0,0.3837283620851174
242,3650.0,0.42649423387240504
243,3670.0,0.44472497744698036
244,3690.0,0.39975872102155574
245,3710.0,0.426248464596131
246,3730.0,0.3207722081707064
247,3750.0,0.37473395174528173
248,3770.0,0.4526766953198571
249,3790.0,0.4872434388944324
250,3801.8939600000003,0.48826259877074524
251,3810.0,0.4889572041240062
252,3830.0,0.3251150011278723
253,3850.0,0.43750379813173845
254,3870.0,0.45487959513560455
255,3890.0,0.4350573921394707
256,3910.0,0.5746711891433368
257,3930.0,0.356621986147203
258,3950.0,0.508777783151069
259,3970.0,0.3334335801549352
260,3990.0,0.6742723771588014
261,4010.0,0.7434061741626674
262,4030.0,0.7360649711665336
263,4050.0,0.7128157681703997
264,4070.0,0.6736585651742658
265,4090.0,0.754418362178132
266,4110.0,0.6828371591819982
267,4130.0,0.7262729561858643
268,4150.0,0.7244377531897304
269,4170.0,0.7311685501935966
270,4190.0,0.7195423471974627
271,4210.0,0.7256611442013288
272,4230.0,0.6920119412051948
273,4250.0,0.729331738209061
274,4270.0,0.6901755352129272
275,4290.0,0.6577493322167933
276,4310.0,0.5833531292206595
277,4330.0,0.7409559262245256
278,4350.0,0.7201537232283917
279,4365.15832,0.8031552242823714
280,4370.0,0.8296665974827067
281,4390.0,0.7507437135925396
282,4410.0,0.7862278297023725
283,4430.0,0.8327259458122054
284,4450.0,0.8406800619220384
285,4470.0,0.8896251780318712
286,4490.0,0.9055312941417041
287,4510.0,1.020557410251537
288,4530.0,0.8975785263613699
289,4550.0,0.9336746424712029
290,4570.0,1.0040377585810358
291,4590.0,0.9514178746908686
292,4610.0,0.9740549908007016
293,4630.0,0.9483591069105344
294,4650.0,0.9612072230203673
295,4670.0,1.0003583391302002
296,4690.0,0.9820084552400331
297,4710.0,0.948359571349866
298,4730.0,0.9826216874596989
299,4750.0,1.010768803569532
300,4770.0,0.9960799196793648
301,4790.0,0.9979170357891977
302,4810.0,0.9942431518990306
303,4830.0,1.0236192680088636
304,4850.0,0.9465253841186964
305,4870.0,0.8535305002285293
306,4890.0,0.9813976163383622
307,4910.0,0.9856797324481952
308,4930.0,0.9642678485580279
309,4950.0,1.006479964667861
310,4970.0,0.9862930807776938
311,4990.0,0.9177711968875267
312,5010.0,0.8657683129973597
313,5011.87234,0.8708657695172136
314,5030.0,0.9202184502550607
315,5050.0,0.914712589697048
316,5070.0,0.9544807291390355
317,5090.0,0.9012518685810228
318,5110.0,0.9245010080230102
319,5130.0,0.8896291474649975
320,5150.0,0.8547552869069849
321,5170.0,0.7874564263489722
322,5190.0,0.8149885657909596
323,5210.0,0.8835107052329471
324,5230.0,0.9514218446749344
325,5250.0,0.9942459841169217
326,5270.0,0.8743341235589092
327,5290.0,1.0058822630008963
328,5310.0,1.068882402442884
329,5330.0,0.9361275418848712
330,5350.0,1.0272826813268585
331,5370.0,1.019952820768846
332,5390.0,0.9960839602108333
333,5410.0,0.9795670996528207
334,5430.0,0.9948632390948081
335,5450.0,1.0224033785367954
336,5470.0,1.0003635179787829
337,5490.0,1.0071036574207701
338,5510.0,0.9930267968627576
339,5530.0,1.030343936304745
340,5550.0,1.0450340757467322
341,5570.0,1.0217842151887195
342,5590.0,0.994864354630707
343,5610.0,1.0321844940726943
344,5630.0,1.0242346335146817
345,5650.0,1.0401347729566692
346,5670.0,1.0132149123986565
347,5690.0,1.046875051840644
348,5710.0,1.0095451912826312
349,5730.0,1.0982553307246186
350,5750.0,1.0542054701666062
351,5754.399369999999,1.0566295537094503
352,5770.0,1.065225777870438
353,5790.0,1.020566133024027
354,5810.0,1.0652264881776166
355,5830.0,1.0976468433312059
356,5850.0,1.060327198484795
357,5870.0,1.0584975536383845
358,5890.0,0.9306259087919738
359,5910.0,1.0383082639455632
360,5930.0,1.0474886190991524
361,5950.0,1.0474889742527418
362,5970.0,1.066449329406331
363,5990.0,1.0468796845599204
364,6010.0,1.0321900397135098
365,6030.0,1.062170394867099
366,6050.0,1.0817407500206884
367,6070.0,1.0786811051742777
368,6090.0,1.0377014603278671
369,6110.0,1.0419818154814562
370,6130.0,0.9814101706350458
371,6150.0,1.009552525788635
372,6170.0,0.9520458809422243
373,6190.0,1.0156832360958137
374,6210.0,1.005893591249403
375,6230.0,0.9716239464029924
376,6250.0,0.9391983015565817
377,6270.0,0.9863076567101711
378,6290.0,1.0064950118637603
379,6310.0,0.9783553670173497
380,6330.0,0.993038722170939
381,6350.0,0.9936540773245283
382,6370.0,0.9881454324781176
383,6390.0,1.0095567876317069
384,6410.0,0.9887581427852964
385,6430.0,0.9991574979388856
386,6450.0,0.991204853092475
387,6470.0,0.9887592082460643
388,6490.0,0.9685685633996536
389,6510.0,1.0046689185532431
390,6530.0,1.0028392737068323
391,6550.0,0.9728526288604216
392,6570.0,0.913507984014011
393,6590.0,0.9850913391676003
394,6606.93448,0.9949356531086679
395,6610.0,0.9967176401979315
396,6630.0,0.9857006422417187
397,6650.0,0.9850916442855057
398,6670.0,0.9606176463292928
399,6690.0,0.97407764837308
400,6710.0,0.933697650416867
401,6730.0,0.9600066524606541
402,6750.0,0.9422646545044412
403,6770.0,0.9477696565482283
404,6790.0,0.9349216585920155
405,6810.0,0.9404286606358024
406,6830.0,0.9526646626795896
407,6850.0,0.9263576647233767
408,6870.0,0.9428746667671638
409,6890.0,0.957557668810951
410,6910.0,0.9551126708547379
411,6930.0,0.947157672898525
412,6950.0,0.9477696749423121
413,6970.0,0.9612296769860993
414,6990.0,0.9563366790298863
415,7010.0,0.9422646810736734
416,7030.0,0.9636776831174606
417,7050.0,0.9685706851612476
418,7070.0,0.9355326872050347
419,7090.0,0.9031076892488218
420,7110.0,0.8792466912926089
421,7130.0,0.8596696933363961
422,7150.0,0.855998695380183
423,7170.0,0.8676226974239702
424,7190.0,0.8462096994677573
425,7210.0,0.8676227015115444
426,7230.0,0.8890367035553315
427,7250.0,0.8963787055991186
428,7270.0,0.9037187076429057
429,7290.0,0.8908717096866927
430,7310.0,0.9190157117304798
431,7330.0,0.922685713774267
432,7350.0,0.933697715818054
433,7370.0,0.9600067178618411
434,7390.0,0.9410407199056282
435,7410.0,0.9416517219494154
436,7430.0,0.9667357239932024
437,7450.0,0.9661247260369895
438,7470.0,0.9838677280807766
439,7490.0,0.9820307301245637
440,7510.0,0.9936587321683508
441,7530.0,1.0114007342121378
442,7550.0,1.0193507362559249
443,7570.0,1.0150707382997122
444,7585.77575,0.9957651658493261
445,7590.0,0.9905957704330521
446,7610.0,0.9704059149378815
447,7630.0,0.946547059442711
448,7650.0,0.9239102039475403
449,7670.0,0.8755773484523698
450,7690.0,0.8982144929571991
451,7710.0,0.8804726374620286
452,7730.0,0.882919781966858
453,7750.0,0.8768019264716875
454,7770.0,0.8884260709765169
455,7790.0,0.8969912154813463
456,7810.0,0.8957673599861757
457,7830.0,0.8884265044910052
458,7850.0,0.8755786489958346
459,7870.0,0.892097793500664
460,7890.0,0.8798609380054934
461,7910.0,0.8590610825103229
462,7930.0,0.8633432270151523
463,7950.0,0.8566123715199817
464,7970.0,0.8872045160248112
465,7990.0,0.8884276605296406
466,8010.0,0.89821680503447
467,8030.0,0.9024979495392995
468,8050.0,0.9037220940441288
469,8070.0,0.9177952385489583
470,8090.0,0.9092303830537877
471,8110.0,0.9208555275586171
472,8130.0,0.9508326720634466
473,8150.0,0.963681816568276
474,8170.0,0.9740819610731054
475,8190.0,0.9416561055779349
476,8210.0,0.9288072500827643
477,8230.0,0.9343143945875937
478,8250.0,0.9330905390924231
479,8270.0,0.9428796835972525
480,8290.0,0.9318678281020819
481,8310.0,0.8976069726069114
482,8330.0,0.8908771171117408
483,8350.0,0.8902652616165703
484,8370.0,0.8963844061213997
485,8390.0,0.8639585506262291
486,8410.0,0.8945486951310585
487,8430.0,0.8480518396358879
488,8450.0,0.8266389841407173
489,8470.0,0.8278631286455467
490,8490.0,0.8339812731503762
491,8510.0,0.7972724176552056
492,8530.0,0.833369562160035
493,8550.0,0.7672927066648645
494,8570.0,0.862124851169694
495,8590.0,0.8504999956745233
496,8610.0,0.8615131401793528
497,8630.0,0.8823142846841822
498,8650.0,0.8835374291890117
499,8670.0,0.794826573693841
500,8690.0,0.8633487181986704
501,8709.6359,0.8975869971077882
502,8710.0,0.8982218676069507
503,8730.0,0.9055632814581565
504,8750.0,0.8939396953093623
505,8770.0,0.9147421091605682
506,8790.0,0.928201523011774
507,8810.0,0.9098479368629798
508,8830.0,0.9202493507141857
509,8850.0,0.9159657645653915
510,8870.0,0.8755881784165974
511,8890.0,0.8921075922678031
512,8910.0,0.904344006119009
513,8930.0,0.8872144199702149
514,8950.0,0.8902728338214208
515,8970.0,0.8939442476726266
516,8990.0,0.8951686615238323
517,9010.0,0.8639670753750381
518,9030.0,0.900674489226244
519,9050.0,0.9337129030774499
520,9070.0,0.9343253169286556
521,9090.0,0.9165827307798615
522,9110.0,0.9288191446310674
523,9130.0,0.9471745584822732
524,9150.0,0.9398329723334791
525,9170.0,0.9392223861846848
526,9190.0,0.9502358000358907
527,9210.0,0.9092452138870966
528,9230.0,0.8798776277383024
529,9250.0,0.8798780415895081
530,9270.0,0.8872214554407141
531,9290.0,0.8743728692919199
532,9310.0,0.8804922831431258
533,9330.0,0.8823276969943316
534,9350.0,0.8786561108455373
535,9370.0,0.8633625246967432
536,9390.0,0.8804939385479491
537,9410.0,0.8627523523991549
538,9430.0,0.8866117662503606
539,9450.0,0.8731521801015666
540,9470.0,0.8957895939527724
541,9490.0,0.8976260078039783
542,9510.0,0.879883421655184
543,9530.0,0.8847798355063898
544,9550.0,0.8658142493575958
545,9570.0,0.8786606632088015
546,9590.0,0.8976280770600075
547,9610.0,0.8841694909112132
548,9630.0,0.8902869047624191
549,9650.0,0.8725453186136249
550,9670.0,0.8731567324648308
551,9690.0,0.8884531463160366
552,9710.0,0.8737695601672424
553,9730.0,0.8645929740184483
554,9750.0,0.8615353878696541
555,9770.0,0.8664298017208599
556,9790.0,0.8529692155720657
557,9810.0,0.8762186294232716
558,9830.0,0.8664310432744774
559,9850.0,0.8737724571256833
560,9870.0,0.8670438709768891
561,9890.0,0.8664322848280949
562,9910.0,0.8572566986793008
563,9930.0,0.8633741125305067
564,9950.0,0.8658225263817125
565,9970.0,0.8664339402329182
566,9990.0,0.8633753540841241
567,10000.0,0.862916811009727
568,10030.0,0.861541183428432
569,10070.0,0.8499170133200386
570,10130.0,0.8615432581574484
571,10170.0,0.8511420880490549
572,10220.0,0.8535911254135631
573,10280.0,0.856039370250973
574,10320.0,0.8450282001425796
575,10380.0,0.8389104449799893
576,10430.0,0.8419714823444976
577,10480.0,0.8297355197090057
578,10520.0,0.8211703496006123
579,10580.0,0.8040415944380223
580,10630.0,0.7967006318025304
581,10680.0,0.7881366691670386
582,10720.0,0.7930324990586451
583,10780.0,0.7875267438960549
584,10820.0,0.7752915737876617
585,10870.0,0.7722346111521698
586,10920.0,0.7697886485166779
587,10980.0,0.7600008933540878
588,11020.0,0.7551057232456944
589,11080.0,0.7422599680831042
590,11130.0,0.7398130054476125
591,11170.0,0.734308835339219
592,11220.0,0.7343098727037272
593,11280.0,0.723910117541137
594,11330.0,0.7226881549056453
595,11380.0,0.7171821922701535
596,11430.0,0.7092292296346617
597,11470.0,0.7184060595262682
598,11481.5362,0.717818529481157
599,11530.0,0.7153512305022443
600,11570.0,0.7067868247900112
601,11620.0,0.6951638176497201
602,11670.0,0.694554810509429
603,11730.0,0.6970032019410796
604,11770.0,0.6804867962288467
605,11830.0,0.6731481876604973
606,11870.0,0.6609127819482643
607,11920.0,0.6713167748079732
608,11980.0,0.6486811662396238
609,12030.0,0.6609191590993326
610,12070.0,0.6548027533870998
611,12120.0,0.6554177462468086
612,12180.0,0.6560321376784594
613,12230.0,0.6517511305381681
614,12270.0,0.6468567248259351
615,12320.0,0.6413527176856441
616,12370.0,0.6395207105453529
617,12430.0,0.6291221019770036
618,12480.0,0.6272880948367124
619,12530.0,0.6211730876964212
620,12580.0,0.6187280805561302
621,12620.0,0.6144466748438971
622,12670.0,0.6086356677036061
623,12720.0,0.6086376605633149
624,12780.0,0.6080890519949654
625,12830.0,0.5866780448546745
626,12880.0,0.5967130377143832
627,12920.0,0.5897416320021502
628,12980.0,0.5953720234338009
629,13020.0,0.587236617721568
630,13080.0,0.5887070091532186
631,13130.0,0.5750660020129275
632,13180.0,0.5734159948726363
633,13182.5674,0.5733972011379966
634,13230.0,0.5730508890292614
635,13280.0,0.5624718319706823
636,13320.0,0.561983186323819
637,13380.0,0.5553187178535242
638,13430.0,0.5569126607949451
639,13470.0,0.5518370151480818
640,13520.0,0.5471899580895027
641,13570.0,0.5392999010309236
642,13630.0,0.5362444325606287
643,13670.0,0.5386327869137655
644,13730.0,0.5395533184434705
645,13770.0,0.5379036727966072
646,13820.0,0.5382126157380281
647,13880.0,0.5325881472677332
648,13930.0,0.5086080902091541
649,13970.0,0.5049394445622908
650,14020.0,0.49955938750371176
651,14080.0,0.5032329190334168
652,14120.0,0.49644427338655356
653,14180.0,0.5012188049162587
654,14230.0,0.49596174785767955
655,14280.0,0.4877056907991005
656,14330.0,0.4959076337405214
657,14380.0,0.49976557668194227
658,14420.0,0.487530931035079
