,lambda (Angstroms),Total Flux (erg/s/cm^2/Angstrom)
0,1005.0,1.5375822735027223
1,1015.0,1.50507647588997
2,1025.0,1.2536996782772172
3,1035.0,1.3346688806644649
4,1045.0,1.602305083051712
5,1055.0,1.5891662854389597
6,1065.0,1.449602487826207
7,1075.0,1.5247486902134544
8,1085.0,1.3853028926007018
9,1095.0,1.5199780949879491
10,1096.4782,1.516384916344832
11,1105.0,1.4977546544478653
12,1115.0,1.4597337685822422
13,1125.0,1.4089988827166189
14,1135.0,1.5288909968509954
15,1145.0,1.4558181109853723
16,1155.0,1.490395225119749
17,1165.0,1.5035863392541255
18,1175.0,1.3209594533885025
19,1185.0,1.454277567522879
20,1195.0,1.2105776816572558
21,1205.0,1.1015007957916327
22,1215.0,1.0089409099260092
23,1225.0,1.186700024060386
24,1235.0,1.4174521381947627
25,1245.0,1.4853002523291394
26,1255.0,1.4344463664635163
27,1258.92541,1.3798286490669378
28,1265.0,1.2972345343579432
29,1275.0,1.5027619675460344
30,1285.0,1.5431254007341253
31,1295.0,1.3482248339222165
32,1305.0,1.3130192671103076
33,1315.0,1.4825417002983987
34,1325.0,1.4448421334864898
35,1335.0,1.325986566674581
36,1345.0,1.476855999862672
37,1355.0,1.4378494330507632
38,1365.0,1.334912866238854
39,1375.0,1.3759922994269453
40,1385.0,1.3764327326150365
41,1395.0,1.3030851658031275
42,1405.0,1.311131598991219
43,1415.0,1.28792603217931
44,1425.0,1.307497465367401
45,1435.0,1.280609898555492
46,1442.0,1.3183473017871559
47,1445.43977,1.3284717258348957
48,1447.0,1.3334351393975474
49,1455.0,1.302776790090851
50,1465.0,1.2367988534574803
51,1475.0,1.22286491682411
52,1485.0,1.234595980190739
53,1495.0,1.2449020435573686
54,1505.0,1.2036381069239979
55,1512.0,1.1255275512806384
56,1517.0,1.168642582963953
57,1525.0,1.1301422336572566
58,1535.0,1.049786297023886
59,1545.0,1.1143943603905155
60,1555.0,1.0699224237571447
61,1565.0,1.059789487123774
62,1575.0,1.0836405504904034
63,1585.0,1.1096306138570329
64,1595.0,1.1163706772236623
65,1605.0,1.0929317405902916
66,1615.0,1.089928803956921
67,1625.0,1.0445068673235505
68,1635.0,1.0719229306901799
69,1645.0,1.0743859940568092
70,1655.0,1.0133980574234387
71,1659.58691,1.035402411141141
72,1665.0,1.0622618015359682
73,1672.0,0.9816193331720184
74,1677.0,1.05181799862634
75,1685.0,1.0836724633532548
76,1695.0,1.0384707942618985
77,1705.0,1.0057461251705417
78,1715.0,0.9698134560791852
79,1725.0,0.9610907869878287
80,1735.0,0.9890851178964721
81,1745.0,0.9708574488051156
82,1755.0,1.005504779713759
83,1765.0,0.9420051106224026
84,1775.0,0.956334441531046
85,1785.0,0.9574757724396894
86,1795.0,0.9914091033483328
87,1805.0,0.9774584342569763
88,1815.0,0.9308317651656198
89,1825.0,0.9319720960742632
90,1835.0,0.9036434269829066
91,1845.0,0.85820675789155
92,1855.0,0.8520980888001936
93,1865.0,0.8606044197088369
94,1875.0,0.8951317506174803
95,1885.0,0.8525460815261239
96,1895.0,0.8318234124347673
97,1905.0,0.8461517433434107
98,1905.46072,0.8452408230050337
99,1915.0,0.8273615075996272
100,1925.0,0.8175286722856345
101,1935.0,0.8200538369716419
102,1945.0,0.8346980016576491
103,1955.0,0.8051411663436565
104,1967.0,0.8396599639668652
105,1976.0,0.8460313121842717
106,1984.0,0.8176348439330775
107,1995.0,0.7987258250876856
108,2005.0,0.8049349897736928
109,2015.0,0.7822701544597002
110,2025.0,0.7982213191457073
111,2035.0,0.7736564838317147
112,2045.0,0.7877066485177219
113,2055.0,0.7643288132037291
114,2065.0,0.7596049778897365
115,2074.0,0.7841573261071431
116,2078.0,0.769245591981546
117,2085.0,0.781053307261751
118,2095.0,0.7532784719477583
119,2105.0,0.7476056366337656
120,2115.0,0.7478728013197729
121,2125.0,0.7487349660057802
122,2135.0,0.7101471306917875
123,2145.0,0.7234852953777947
124,2155.0,0.732784460063802
125,2165.0,0.7126136247498093
126,2175.0,0.7045637894358165
127,2185.0,0.6972259541218239
128,2187.7616199999998,0.7011066280258407
129,2195.0,0.7119387850161147
130,2205.0,0.6957696763181379
131,2215.0,0.670097567620161
132,2225.0,0.6571374589221841
133,2235.0,0.6855283502242072
134,2245.0,0.6633002415262302
135,2255.0,0.6429731328282534
136,2265.0,0.6483130241302765
137,2275.0,0.6580489154322995
138,2285.0,0.6698028067343227
139,2295.0,0.6469816980363458
140,2305.0,0.6443605893383688
141,2315.0,0.623677480640392
142,2325.0,0.5489303719424151
143,2335.0,0.5926482632444381
144,2345.0,0.5773121545464612
145,2355.0,0.6070100458484844
146,2365.0,0.5718299371505075
147,2375.0,0.5821608284525306
148,2385.0,0.5538737197545537
149,2395.0,0.5739456110565768
150,2405.0,0.5593235023585998
151,2415.0,0.566087393660623
152,2425.0,0.588656284962646
153,2435.0,0.5747451762646691
154,2445.0,0.5941050675666921
155,2455.0,0.5874439588687154
156,2465.0,0.5811388501707384
157,2475.0,0.5653267414727615
158,2485.0,0.5674576327747847
159,2495.0,0.5548545240768077
160,2505.0,0.5875224153788308
161,2511.88643,0.5480560380339798
162,2513.0,0.5417283215012185
163,2518.0,0.5462450975255759
164,2525.0,0.5320623839596763
165,2535.0,0.539192936008391
166,2545.0,0.5333754880571058
167,2555.0,0.5629650401058206
168,2565.0,0.5470465921545353
169,2575.0,0.5680811442032501
170,2585.0,0.5598856962519648
171,2595.0,0.5518092483006796
172,2605.0,0.5367218003493943
173,2615.0,0.5298333523981091
174,2625.0,0.5470669044468239
175,2635.0,0.5694074564955386
176,2645.0,0.6061270085442534
177,2655.0,0.631084560592968
178,2665.0,0.5715571126416829
179,2675.0,0.5903356646903977
180,2685.0,0.5952112167391124
181,2695.0,0.5637257687878271
182,2705.0,0.5819083208365419
183,2715.0,0.5492368728852566
184,2725.0,0.5385464249339713
185,2735.0,0.5602929769826861
186,2745.0,0.5021935290314008
187,2755.0,0.5137220810801155
188,2765.0,0.5314306331288303
189,2775.0,0.544978185177545
190,2785.0,0.5121877372262599
191,2795.0,0.4452942892749746
192,2805.0,0.46217084132368935
193,2815.0,0.5310913933724042
194,2825.0,0.5603249454211189
195,2835.0,0.5440484974698336
196,2845.0,0.5195760495185484
197,2855.0,0.49438860156726316
198,2865.0,0.5466731536159779
199,2875.0,0.5643827056646926
200,2884.0315,0.5559071414974893
201,2885.0,0.5550387272593812
202,2895.0,0.5672231372944032
203,2910.0,0.619303252346936
204,2930.0,0.5897290724169799
205,2950.0,0.5747678924870236
206,2970.0,0.5808387125570675
207,2990.0,0.5802555326271113
208,3010.0,0.5816923526971551
209,3030.0,0.585267172767199
210,3050.0,0.5862299928372428
211,3070.0,0.5953888129072866
212,3090.0,0.5917146329773304
213,3110.0,0.6074104530473743
214,3130.0,0.590786273117418
215,3150.0,0.5896100931874619
216,3170.0,0.6001949132575057
217,3190.0,0.5647977333275496
218,3210.0,0.5845315533975934
219,3230.0,0.5488963734676372
220,3250.0,0.6076061935376811
221,3270.0,0.6408870136077248
222,3290.0,0.6325788336777687
223,3310.0,0.6169056537478126
224,3311.31121,0.6169765128520146
225,3330.0,0.618534095664901
226,3350.0,0.6066539588624502
227,3370.0,0.5497408220599995
228,3390.0,0.5686356852575488
229,3410.0,0.571847548455098
230,3430.0,0.5773164116526474
231,3450.0,0.5858742748501966
232,3470.0,0.589204138047746
233,3490.0,0.6135650012452952
234,3510.0,0.6294898644428445
235,3530.0,0.5987177276403938
236,3550.0,0.6359115908379431
237,3570.0,0.5427584540354923
238,3590.0,0.5420483172330417
239,3610.0,0.5893411804305909
240,3630.0,0.6015830436281402
241,3640.0,0.6107334752269148
242,3650.0,0.6512529068256895
243,3670.0,0.6625427700232387
244,3690.0,0.6146626332207881
245,3710.0,0.6447254964183373
246,3730.0,0.5493143596158866
247,3750.0,0.6140752228134359
248,3770.0,0.6862030860109851
249,3790.0,0.7327819492085345
250,3801.8939600000003,0.7424653353863909
251,3810.0,0.7492321016442423
252,3830.0,0.572127716908543
253,3850.0,0.7090693321728438
254,3870.0,0.7353879474371448
255,3890.0,0.6623715627014455
256,3910.0,0.8379301779657463
257,3930.0,0.6141297932300471
258,3950.0,0.7663974084943479
259,3970.0,0.5494900237586487
260,3990.0,0.9182526390229496
261,4010.0,0.9909112542872504
262,4030.0,0.9824138695515512
263,4050.0,0.9597774848158521
264,4070.0,0.9182491000801528
265,4090.0,0.9676187153444537
266,4110.0,0.8771363306087545
267,4130.0,0.9552609458730553
268,4150.0,0.9597175611373562
269,4170.0,0.962509176401657
270,4190.0,0.9503297916659578
271,4210.0,0.9545464069302586
272,4230.0,0.9206240221945594
273,4250.0,0.9525256374588602
274,4270.0,0.910523252723161
275,4290.0,0.8794498679874618
276,4310.0,0.8010864832517627
277,4330.0,0.9241270985160636
278,4350.0,0.8892527137803643
279,4365.15832,0.9915096909870191
280,4370.0,1.024243586715753
281,4390.0,0.9521216837925159
282,4410.0,0.9834917808692786
283,4430.0,1.0223468779460412
284,4450.0,1.029594975022804
285,4470.0,1.0707080720995665
286,4490.0,1.0834241691763293
287,4510.0,1.189767266253092
288,4530.0,1.0730903633298547
289,4550.0,1.1026764604066175
290,4570.0,1.1686215574833803
291,4590.0,1.1159796545601428
292,4610.0,1.1365377516369055
293,4630.0,1.1089758487136683
294,4650.0,1.1207339457904308
295,4670.0,1.1544820428671938
296,4690.0,1.1338101399439564
297,4710.0,1.0982892370207191
298,4730.0,1.1325063340974817
299,4750.0,1.1573444311742445
300,4770.0,1.143202528251007
301,4790.0,1.14225062532777
302,4810.0,1.1348787224045325
303,4830.0,1.1577068194812952
304,4850.0,1.0684719165580578
305,4870.0,0.9669990136348207
306,4890.0,1.1111211107115833
307,4910.0,1.1163492077883461
308,4930.0,1.0948543048651087
309,4950.0,1.1347754019418714
310,4970.0,1.115523499018634
311,4990.0,1.0486365960953967
312,5010.0,0.9970686931721595
313,5011.87234,1.0018407352181946
314,5030.0,1.0482319394672557
315,5050.0,1.0410757222964357
316,5070.0,1.0788315051256159
317,5090.0,1.027355287954796
318,5110.0,1.047646070783976
319,5130.0,1.0133968536131563
320,5150.0,0.9793876364423365
321,5170.0,0.9172144192715166
322,5190.0,0.9409512021006968
323,5210.0,1.000807984929877
324,5230.0,1.059954767759057
325,5250.0,1.0981815505882373
326,5270.0,0.9849233334174173
327,5290.0,1.1060851162465974
328,5310.0,1.1613118990757778
329,5330.0,1.0375946819049577
330,5350.0,1.121935464734138
331,5370.0,1.1142922475633181
332,5390.0,1.0900320303924982
333,5410.0,1.0730108132216785
334,5430.0,1.0866515960508585
335,5450.0,1.1127593788800385
336,5470.0,1.0892061617092188
337,5490.0,1.094162944538399
338,5510.0,1.080594727367579
339,5530.0,1.1126465101967593
340,5550.0,1.1252132930259395
341,5570.0,1.1026100758551196
342,5590.0,1.0769188586842997
343,5610.0,1.1103936415134799
344,5630.0,1.10122042434266
345,5650.0,1.1141472071718401
346,5670.0,1.0874939900010203
347,5690.0,1.1180107728302004
348,5710.0,1.0826875556593807
349,5730.0,1.1639343384885608
350,5750.0,1.120891121317741
351,5754.399369999999,1.1230285074615012
352,5770.0,1.1307219737234444
353,5790.0,1.0885349936937185
354,5810.0,1.1289480136639927
355,5830.0,1.157931033634267
356,5850.0,1.1226340536045412
357,5870.0,1.1199070735748153
358,5890.0,1.0034650935450893
359,5910.0,1.1004131135153636
360,5930.0,1.1074261334856377
361,5950.0,1.105999153455912
362,5970.0,1.122642173426186
363,5990.0,1.1032651933964601
364,6010.0,1.0885382133667343
365,6030.0,1.1149112333370086
366,6050.0,1.1325042533072829
367,6070.0,1.128697273277557
368,6090.0,1.0894802932478311
369,6110.0,1.0923333132181055
370,6130.0,1.0356583331883795
371,6150.0,1.0598973531586537
372,6170.0,1.008330373128928
373,6190.0,1.066433393099202
374,6210.0,1.0563324130694762
375,6230.0,1.0240134330397503
376,6250.0,0.9921674530100246
377,6270.0,1.0361304729802987
378,6290.0,1.053596492950573
379,6310.0,1.0260305129208471
380,6330.0,1.0389815328911214
381,6350.0,1.0375555528613956
382,6370.0,1.0317315728316696
383,6390.0,1.0514555928019438
384,6410.0,1.031017612772218
385,6430.0,1.039810632742492
386,6450.0,1.0313736527127664
387,6470.0,1.0288766726830405
388,6490.0,1.0084406926533147
389,6510.0,1.0409967126235888
390,6530.0,1.037194732593863
391,6550.0,1.0043977525641372
392,6570.0,0.9411847725344115
393,6590.0,1.0181807925046855
394,6606.93448,1.0280400636699958
395,6610.0,1.0298413939806914
396,6630.0,1.0198475946559147
397,6650.0,1.0190067953311381
398,6670.0,0.9958259960063612
399,6690.0,1.0085271966815845
400,6710.0,0.9708503973568077
401,6730.0,0.9944845980320309
402,6750.0,0.9772437987072541
403,6770.0,0.9817489993824774
404,6790.0,0.9692612000577007
405,6810.0,0.9738844007329238
406,6830.0,0.9840916014081471
407,6850.0,0.9592458020833704
408,6870.0,0.9742060027585936
409,6890.0,0.9869102034338169
410,6910.0,0.9835714041090401
411,6930.0,0.9755986047842633
412,6950.0,0.9749948054594865
413,6970.0,0.9863900061347097
414,6990.0,0.981506206809933
415,7010.0,0.9665244074851562
416,7030.0,0.9863566081603794
417,7050.0,0.9903858088356027
418,7070.0,0.960193009510826
419,7090.0,0.9309502101860491
420,7110.0,0.9081274108612724
421,7130.0,0.8896976115364956
422,7150.0,0.8865978122117188
423,7170.0,0.896330012886942
424,7190.0,0.8755252135621654
425,7210.0,0.8952384142373885
426,7230.0,0.9135256149126117
427,7250.0,0.9195738155878349
428,7270.0,0.9252670162630582
429,7290.0,0.9120682169382814
430,7310.0,0.9372464176135047
431,7330.0,0.9399686182887279
432,7350.0,0.9493448189639512
433,7370.0,0.9722650196391743
434,7390.0,0.9541942203143976
435,7410.0,0.9537064209896209
436,7430.0,0.975796621664844
437,7450.0,0.9753088223400673
438,7470.0,0.9902690230152906
439,7490.0,0.9880012236905138
440,7510.0,0.998326424365737
441,7530.0,1.0137626250409602
442,7550.0,1.0202858257161835
443,7570.0,1.0156400263914067
444,7585.77575,0.9985739783315146
445,7590.0,0.9940203322271205
446,7610.0,0.9754317838841298
447,7630.0,0.953988235541139
448,7650.0,0.9334976871981484
449,7670.0,0.8894811388551576
450,7690.0,0.9099835905121668
451,7710.0,0.8934130421691763
452,7730.0,0.8949034938261855
453,7750.0,0.8886719454831947
454,7770.0,0.8987193971402041
455,7790.0,0.9068628487972134
456,7810.0,0.9050263004542226
457,7830.0,0.8976067521112319
458,7850.0,0.8855512037682413
459,7870.0,0.9004696554252505
460,7890.0,0.8878191070822598
461,7910.0,0.8681615587392691
462,7930.0,0.8715540103962784
463,7950.0,0.8646084620532877
464,7970.0,0.8928329137102969
465,7990.0,0.8934933653673063
466,8010.0,0.9019938170243156
467,8030.0,0.9050312686813248
468,8050.0,0.9055707203383342
469,8070.0,0.9173971719953434
470,8090.0,0.9086706236523527
471,8110.0,0.9183610753093621
472,8130.0,0.9449235269663714
473,8150.0,0.9556819786233806
474,8170.0,0.9646584302803899
475,8190.0,0.9356118819373992
476,8210.0,0.9229633335944085
477,8230.0,0.9284937852514178
478,8250.0,0.9268952369084271
479,8270.0,0.9362286885654364
480,8290.0,0.9256011402224457
481,8310.0,0.893821591879455
482,8330.0,0.8875890435364643
483,8350.0,0.8869404951934735
484,8370.0,0.8923529468504827
485,8390.0,0.8625943985074921
486,8410.0,0.8897508501645014
487,8430.0,0.8471593018215107
488,8450.0,0.82749875347852
489,8470.0,0.8280382051355293
490,8490.0,0.8339266567925385
491,8510.0,0.7982261084495479
492,8530.0,0.8329875601065572
493,8550.0,0.7688900117635664
494,8570.0,0.8593774634205756
495,8590.0,0.846491915077585
496,8610.0,0.8559423667345943
497,8630.0,0.8765648183916036
498,8650.0,0.876392270048613
499,8670.0,0.7907867217056223
500,8690.0,0.8578681733626314
501,8709.6359,0.8890788980522238
502,8710.0,0.8896586997871597
503,8730.0,0.8956041883856107
504,8750.0,0.8807586769840617
505,8770.0,0.9028631655825129
506,8790.0,0.9153456541809639
507,8810.0,0.8980021427794149
508,8830.0,0.907157631377866
509,8850.0,0.9021721199763171
510,8870.0,0.8627286085747681
511,8890.0,0.8819820971732192
512,8910.0,0.8939905857716701
513,8930.0,0.8772400743701212
514,8950.0,0.8799795629685723
515,8970.0,0.8829540515670232
516,8990.0,0.8833165401654743
517,9010.0,0.8507660287639254
518,9030.0,0.8853475173623764
519,9050.0,0.9171960059608275
520,9070.0,0.9173204945592786
521,9090.0,0.8993839831577295
522,9110.0,0.9110334717561807
523,9130.0,0.9276739603546316
524,9150.0,0.9209074489530826
525,9170.0,0.9197249375515337
526,9190.0,0.9293544261499848
527,9210.0,0.8908599147484358
528,9230.0,0.8611614033468868
529,9250.0,0.8638998919453379
530,9270.0,0.8713903805437889
531,9290.0,0.86034486914224
532,9310.0,0.866291357740691
533,9330.0,0.8676038463391421
534,9350.0,0.864044334937593
535,9370.0,0.8496728235360441
536,9390.0,0.8648873121344952
537,9410.0,0.8470698007329462
538,9430.0,0.8696492893313973
539,9450.0,0.8565857779298482
540,9470.0,0.8769092665282994
541,9490.0,0.8785767551267505
542,9510.0,0.8618292437252014
543,9530.0,0.8651617323236525
544,9550.0,0.8436612209221036
545,9570.0,0.8585187095205545
546,9590.0,0.8767021981190056
547,9610.0,0.8645886867174566
548,9630.0,0.8693471753159077
549,9650.0,0.8537876639143588
550,9670.0,0.8536741525128098
551,9690.0,0.8678186411112608
552,9710.0,0.8541591297097119
553,9730.0,0.8459656183081629
554,9750.0,0.842526106906614
555,9770.0,0.846688595505065
556,9790.0,0.834575084103516
557,9810.0,0.8554935727019671
558,9830.0,0.846231061300418
559,9850.0,0.8527705498988691
560,9870.0,0.8463590384973203
561,9890.0,0.8452955270957713
562,9910.0,0.8373390156942223
563,9930.0,0.8426925042926734
564,9950.0,0.8443609928911243
565,9970.0,0.8446034814895754
566,9990.0,0.8414009700880264
567,10000.0,0.840542214387252
568,10030.0,0.8380319804887614
569,10070.0,0.8262480019574406
570,10130.0,0.8373285341604595
571,10170.0,0.8274455556291388
572,10220.0,0.8295298324649879
573,10280.0,0.8309833646680068
574,10320.0,0.8203893861366861
575,10380.0,0.8140019183397049
576,10430.0,0.8167991951755541
577,10480.0,0.804862472011403
578,10520.0,0.7978314934800824
579,10580.0,0.7824130256831012
580,10630.0,0.7752273025189503
581,10680.0,0.7663815793547993
582,10720.0,0.7704026008234787
583,10780.0,0.7644881330264977
584,10820.0,0.7529441544951768
585,10870.0,0.7500364313310259
586,10920.0,0.7458227081668749
587,10980.0,0.7375342403698939
588,11020.0,0.7339502618385731
589,11080.0,0.7226907940415921
590,11130.0,0.719666070877441
591,11170.0,0.7142980923461203
592,11220.0,0.7136513691819695
593,11280.0,0.7036969013849883
594,11330.0,0.7023361782208375
595,11380.0,0.6970534550566865
596,11430.0,0.6891557318925355
597,11470.0,0.6972147533612147
598,11481.5362,0.6966263172178893
599,11530.0,0.6942348953813451
600,11570.0,0.685965448832338
601,11620.0,0.6754178906460793
602,11670.0,0.6742583324598205
603,11730.0,0.67652566263631
604,11770.0,0.6616002160873029
605,11830.0,0.6549565462637923
606,11870.0,0.6438330997147853
607,11920.0,0.6530115415285265
608,11980.0,0.6317518717050159
609,12030.0,0.6427123135187572
610,12070.0,0.6369358669697501
611,12120.0,0.6370843087834914
612,12180.0,0.6378056389599809
613,12230.0,0.633320080773722
614,12270.0,0.628494634224715
615,12320.0,0.6235320760384563
616,12370.0,0.6217785178521975
617,12430.0,0.6125198480286869
618,12480.0,0.6104082898424281
619,12530.0,0.6042597316561693
620,12580.0,0.6019121734699105
621,12620.0,0.5982737269209034
622,12670.0,0.5924801687346447
623,12720.0,0.5922706105483859
624,12780.0,0.5913309407248754
625,12830.0,0.5703273825386166
626,12880.0,0.5804558243523578
627,12920.0,0.5739653778033508
628,12980.0,0.5790857079798402
629,13020.0,0.5712892614308333
630,13080.0,0.5726065916073226
631,13130.0,0.5601600334210639
632,13180.0,0.5584054752348051
633,13182.5674,0.5583825453650572
634,13230.0,0.5580153539356382
635,13280.0,0.5483582874144913
636,13320.0,0.548096434197574
637,13380.0,0.5418801543721978
638,13430.0,0.543395087851051
639,13470.0,0.5387352346341336
640,13520.0,0.5345461681129868
641,13570.0,0.52703010159184
642,13630.0,0.5242598217664639
643,13670.0,0.5262539685495465
644,13730.0,0.5269306887241704
645,13770.0,0.525241835507253
646,13820.0,0.5253297689861063
647,13880.0,0.5201824891607301
648,13930.0,0.49923842263958335
649,13970.0,0.4960045694226659
650,14020.0,0.49074650290151917
651,14080.0,0.494036223076143
652,14120.0,0.4875953698592256
653,14180.0,0.4919540900338495
654,14230.0,0.48669402351270274
655,14280.0,0.47905895699155593
656,14330.0,0.48663189047040917
657,14380.0,0.4898088239492624
658,14420.0,0.47814097073234496
659,14480.0,0.48582669090696884
660,14520.0,0.48164283769005145
661,14570.0,0.4838687711689047
662,14620.0,0.4742137046477579
663,14670.0,0.4713306381266111
664,14720.0,0.46690357160546436
