,lambda (Angstroms),Total Flux (erg/s/cm^2/Angstrom)
0,1005.0,0.4519120557089636
1,1015.0,0.4329008384133101
2,1025.0,0.19501862111765667
3,1035.0,0.2894824038220032
4,1045.0,0.5706131865263497
5,1055.0,0.5709689692306963
6,1065.0,0.44489975193504283
7,1075.0,0.5335405346393893
8,1085.0,0.40758931734373594
9,1095.0,0.5557591000480824
10,1096.4782,0.5541606902674389
11,1105.0,0.544945488363181
12,1115.0,0.517972808267124
13,1125.0,0.47828612817106697
14,1135.0,0.6092264480750099
15,1145.0,0.5472017679789528
16,1155.0,0.5928270878828957
17,1165.0,0.6170664077868387
18,1175.0,0.4454877276907817
19,1185.0,0.5898540475947247
20,1195.0,0.35720236749866763
21,1205.0,0.25917368740261054
22,1215.0,0.17766200730655346
23,1225.0,0.3664693272104964
24,1235.0,0.6082696471144393
25,1245.0,0.6871659670183823
26,1255.0,0.6473602869223253
27,1258.92541,0.5970794432667382
28,1265.0,0.5192700493424394
29,1275.0,0.7326740977172277
30,1285.0,0.7809141460920158
31,1295.0,0.5938901944668041
32,1305.0,0.5665612428415924
33,1315.0,0.7439602912163806
34,1325.0,0.7141373395911688
35,1335.0,0.6031583879659571
36,1345.0,0.7619044363407452
37,1355.0,0.7307744847155335
38,1365.0,0.6357145330903218
39,1375.0,0.68467058146511
40,1385.0,0.6929876298398983
41,1395.0,0.6275166782146865
42,1405.0,0.6434397265894748
43,1415.0,0.6281107749642629
44,1425.0,0.6555588233390512
45,1435.0,0.6365478717138394
46,1442.0,0.6797989055761912
47,1445.43977,0.6926327040860055
48,1447.0,0.6984539285506118
49,1455.0,0.6721939610309824
50,1465.0,0.6117140016314456
51,1475.0,0.6032780422319088
52,1485.0,0.6205070828323721
53,1495.0,0.6363111234328354
54,1505.0,0.6005451640332986
55,1512.0,0.5262831924536229
56,1517.0,0.5721472127538545
57,1525.0,0.5380452452342251
58,1535.0,0.4631872858346883
59,1545.0,0.5332933264351516
60,1555.0,0.4943193670356148
61,1565.0,0.48968440763607807
62,1575.0,0.5190334482365413
63,1585.0,0.5505214888370045
64,1595.0,0.5627595294374679
65,1605.0,0.544818570037931
66,1615.0,0.5473136106383942
67,1625.0,0.5073896512388575
68,1635.0,0.5403036918393208
69,1645.0,0.548264732439784
70,1655.0,0.49277477304024725
71,1659.58691,0.5173009994333143
72,1665.0,0.5462449521601237
73,1672.0,0.46829815970843086
74,1677.0,0.5404223079572216
75,1685.0,0.5753575451552869
76,1695.0,0.5340068416528685
77,1705.0,0.5051331381504501
78,1715.0,0.4730514346480317
79,1725.0,0.4681797311456133
80,1735.0,0.5000250276431949
81,1745.0,0.4856483241407765
82,1755.0,0.524146620638358
83,1765.0,0.4644979171359397
84,1775.0,0.4826782136335213
85,1785.0,0.4876705101311029
86,1795.0,0.5254548066286845
87,1805.0,0.5153551031262661
88,1815.0,0.4725793996238477
89,1825.0,0.4775706961214293
90,1835.0,0.45309299261901087
91,1845.0,0.41150728911659246
92,1855.0,0.40924958561417407
93,1865.0,0.4216068821117557
94,1875.0,0.45998517860933724
95,1885.0,0.4212504751069189
96,1895.0,0.4043787716045005
97,1905.0,0.4225580681020821
98,1905.46072,0.4218245694503186
99,1915.0,0.4066367171818341
100,1925.0,0.39962533499315256
101,1935.0,0.404971952804471
102,1945.0,0.42243757061578946
103,1955.0,0.395702188427108
104,1967.0,0.43360672980069015
105,1976.0,0.4425173858308768
106,1984.0,0.4163780800799316
107,1995.0,0.4005726596723819
108,2005.0,0.4096032774837004
109,2015.0,0.3897598952950189
110,2025.0,0.40853251310633737
111,2035.0,0.3867891309176558
112,2045.0,0.40366074872897434
113,2055.0,0.3831043665402928
114,2065.0,0.3812019843516113
115,2074.0,0.40829364038179794
116,2078.0,0.3945104875063253
117,2085.0,0.4082932199742483
118,2095.0,0.38333983778556674
119,2105.0,0.38048845559688527
120,2115.0,0.3835770734082037
121,2125.0,0.38726069121952217
122,2135.0,0.35149430903084067
123,2145.0,0.36765392684215914
124,2155.0,0.3797745446534776
125,2165.0,0.3624251624647961
126,2175.0,0.3571967802761146
127,2185.0,0.35268039808743307
128,2187.7616199999998,0.357340250129442
129,2195.0,0.3695545131065903
130,2205.0,0.35529481782276695
131,2215.0,0.3315321225389436
132,2225.0,0.32048142725512024
133,2235.0,0.3507817319712969
134,2245.0,0.3304630366874736
135,2255.0,0.31204534140365026
136,2265.0,0.3192946461198269
137,2275.0,0.3309399508360036
138,2285.0,0.34460325555218024
139,2295.0,0.3236915602683569
140,2305.0,0.32297986498453357
141,2315.0,0.3042061697007102
142,2325.0,0.23136847441688688
143,2335.0,0.27699577913306356
144,2345.0,0.26356908384924016
145,2355.0,0.2951763885654169
146,2365.0,0.2619056932815935
147,2375.0,0.2741459979977702
148,2385.0,0.24776830271394684
149,2395.0,0.2697496074301235
150,2405.0,0.25703691214630014
151,2415.0,0.2657102168624768
152,2425.0,0.29018852157865344
153,2435.0,0.27818682629483016
154,2445.0,0.2994561310110068
155,2455.0,0.29470443572718347
156,2465.0,0.29030874044336014
157,2475.0,0.2764060451595368
158,2485.0,0.28044634987571343
159,2495.0,0.26975265459189013
160,2505.0,0.3043299593080668
161,2511.88643,0.2661784861449787
162,2513.0,0.26000915601604335
163,2518.0,0.26523709704945186
164,2525.0,0.2520500144962238
165,2535.0,0.26060289656304075
166,2545.0,0.25620777862985783
167,2555.0,0.2872196606966748
168,2565.0,0.27272354276349187
169,2575.0,0.29518042483030893
170,2585.0,0.2884073068971259
171,2595.0,0.2817531889639429
172,2605.0,0.26808807103076
173,2615.0,0.26262195309757697
174,2625.0,0.281277835164394
175,2635.0,0.305040717231211
176,2645.0,0.343182599298028
177,2655.0,0.36956248136484504
178,2665.0,0.3114573634316621
179,2675.0,0.3316582454984791
180,2685.0,0.3379561275652961
181,2695.0,0.30789300963211313
182,2705.0,0.3274978916989302
183,2715.0,0.29624877376574715
184,2725.0,0.2869806558325642
185,2735.0,0.3101495378993812
186,2745.0,0.25347241996619824
187,2755.0,0.2664233020330153
188,2765.0,0.2855541840998323
189,2775.0,0.3005240661666493
190,2785.0,0.26915594823346634
191,2795.0,0.20368483030028336
192,2805.0,0.22198371236710035
193,2815.0,0.2923265944339174
194,2825.0,0.3229824765007344
195,2835.0,0.30812835856755144
196,2845.0,0.2850782406343685
197,2855.0,0.2613131227011855
198,2865.0,0.3150200047680025
199,2875.0,0.3341518868348195
200,2884.0315,0.3269609000234653
201,2885.0,0.326189780089715
202,2895.0,0.33937877767618585
203,2910.0,0.39296577405589206
204,2930.0,0.36540076922883374
205,2950.0,0.35244876440177547
206,2970.0,0.3605287595747171
207,2990.0,0.36195475474765876
208,3010.0,0.3654007499206004
209,3030.0,0.3709847450935421
210,3050.0,0.37395674026648373
211,3070.0,0.38512473543942544
212,3090.0,0.38345973061236716
213,3110.0,0.40116472578530876
214,3130.0,0.38654972095825046
215,3150.0,0.3873827161311921
216,3170.0,0.39997671130413376
217,3190.0,0.3665887064770755
218,3210.0,0.3883317016500171
219,3230.0,0.3547056968229588
220,3250.0,0.41542469199590043
221,3270.0,0.4507146871688421
222,3290.0,0.44441568234178375
223,3310.0,0.4307516775147255
224,3311.31121,0.43095425914326113
225,3330.0,0.43384159097307995
226,3350.0,0.4233844986983193
227,3370.0,0.36789440642355864
228,3390.0,0.38821231414879803
229,3410.0,0.3928472218740374
230,3430.0,0.3997391295992768
231,3450.0,0.4097200373245162
232,3470.0,0.41447294504975557
233,3490.0,0.44025685277499493
234,3510.0,0.45760476050023435
235,3530.0,0.4282556682254737
236,3550.0,0.4668725759507131
237,3570.0,0.37514248367595243
238,3590.0,0.37585539140119184
239,3610.0,0.4245712991264312
240,3630.0,0.4382362068516706
241,3640.0,0.44809816071429026
242,3650.0,0.48932911457691
243,3670.0,0.5020420223021493
244,3690.0,0.45558493002738876
245,3710.0,0.4870708377526281
246,3730.0,0.3930827454778675
247,3750.0,0.45926665320310683
248,3770.0,0.5328175609283462
249,3790.0,0.5808194686535856
250,3801.8939600000003,0.5913491365659703
251,3810.0,0.5985253841713822
252,3830.0,0.4224313111231668
253,3850.0,0.5603832380749514
254,3870.0,0.587712165026736
255,3890.0,0.5157060919785206
256,3910.0,0.6922750189303051
257,3930.0,0.4694849458820897
258,3950.0,0.6227628728338742
259,3970.0,0.40686579978565884
260,3990.0,0.7766387267374434
261,4010.0,0.850307653689228
262,4030.0,0.8428205806410125
263,4050.0,0.8211945075927972
264,4070.0,0.7806764345445817
265,4090.0,0.8310563614963663
266,4110.0,0.7415842884481508
267,4130.0,0.8207192153999355
268,4150.0,0.82618614235172
269,4170.0,0.8299880693035047
270,4190.0,0.8188189962552892
271,4210.0,0.8240459232070738
272,4230.0,0.7911338501588583
273,4250.0,0.824045777110643
274,4270.0,0.7830537040624275
275,4290.0,0.7529906310142122
276,4310.0,0.6756375579659967
277,4330.0,0.7996884849177813
278,4350.0,0.7658244118695658
279,4365.15832,0.8688471204691516
280,4370.0,0.901753366619946
281,4390.0,0.8303434084021019
282,4410.0,0.8624254501842575
283,4430.0,0.9019924919664133
284,4450.0,0.9099525337485691
285,4470.0,0.9517775755307248
286,4490.0,0.9652056173128806
287,4510.0,1.0722606590950365
288,4530.0,0.9562957008771922
289,4550.0,0.986593742659348
290,4570.0,1.0532507844415038
291,4590.0,1.0013208262236595
292,4610.0,1.0225908680058153
293,4630.0,0.9957409097879711
294,4650.0,1.0082109515701267
295,4670.0,1.0426709933522826
296,4690.0,1.0227110351344384
297,4710.0,0.9879020769165942
298,4730.0,1.02283111869875
299,4750.0,1.0483811604809057
300,4770.0,1.0349512022630614
301,4790.0,1.0347112440452173
302,4810.0,1.028051285827373
303,4830.0,1.0515913276095286
304,4850.0,0.9630683693916845
305,4870.0,0.8623074111738404
306,4890.0,1.007141452955996
307,4910.0,1.013081494738152
308,4930.0,0.9922985365203076
309,4950.0,1.0329315783024633
310,4970.0,1.0143916200846192
311,4990.0,0.948216661866775
312,5010.0,0.8973607036489307
313,5011.87234,0.9021993958224506
314,5030.0,0.9490467530411527
315,5050.0,0.9423938032193908
316,5070.0,0.9806528533976289
317,5090.0,0.9296799035758669
318,5110.0,0.9504739537541049
319,5130.0,0.9167280039323431
320,5150.0,0.8832220541105811
321,5170.0,0.8215521042888192
322,5190.0,0.8457921544670574
323,5210.0,0.9061522046452953
324,5230.0,0.9658022548235334
325,5250.0,1.0045323050017716
326,5270.0,0.8917773551800096
327,5290.0,1.0134424053582476
328,5310.0,1.0691724555364857
329,5330.0,0.9459585057147237
330,5350.0,1.0308025558929619
331,5370.0,1.0236626060712
332,5390.0,0.999905656249438
333,5410.0,0.983387706427676
334,5430.0,0.9975317566059141
335,5450.0,1.024142806784152
336,5470.0,1.00109285696239
337,5490.0,1.0065529071406283
338,5510.0,0.9934879573188664
339,5530.0,1.0260430074971043
340,5550.0,1.0391130576753427
341,5570.0,1.0170131078535807
342,5590.0,0.9918251580318186
343,5610.0,1.0258032082100565
344,5630.0,1.0171332583882948
345,5650.0,1.0305633085665329
346,5670.0,1.0044133587447708
347,5690.0,1.0354334089230088
348,5710.0,1.0006134591012472
349,5730.0,1.0823635092794852
350,5750.0,1.0398235594577232
351,5754.399369999999,1.0420716485653545
352,5770.0,1.0500436701850329
353,5790.0,1.008213797987151
354,5810.0,1.0489839257892692
355,5830.0,1.0783240535913876
356,5850.0,1.0433841813935059
357,5870.0,1.041014309195624
358,5890.0,0.9249294369977422
359,5910.0,1.0222345647998605
360,5930.0,1.0296046926019786
361,5950.0,1.028534820404097
362,5970.0,1.045534948206215
363,5990.0,1.0265150760083332
364,6010.0,1.0121452038104515
365,6030.0,1.0388753316125698
366,6050.0,1.056825459414688
367,6070.0,1.0533755872168065
368,6090.0,1.0145157150189246
369,6110.0,1.017725842821043
370,6130.0,0.961407970623161
371,6150.0,0.9860040984252793
372,6170.0,0.9347942262273975
373,6190.0,0.9932543540295157
374,6210.0,0.9835104818316339
375,6230.0,0.9515486096337522
376,6250.0,0.9200597374358704
377,6270.0,0.9643798652379887
378,6290.0,0.9822029930401069
379,6310.0,0.9549941208422251
380,6330.0,0.9683022486443433
381,6350.0,0.9672333764464616
382,6370.0,0.9617665042485798
383,6390.0,0.981847632050698
384,6410.0,0.9617667598528162
385,6430.0,0.9709168876549344
386,6450.0,0.9628370154570527
387,6470.0,0.9606971432591709
388,6490.0,0.9406182710612891
389,6510.0,0.9735313988634073
390,6530.0,0.9700865266655255
391,6550.0,0.9376466544676438
392,6570.0,0.8747907822697621
393,6590.0,0.9521439100718804
394,6606.93448,0.9623055530090009
395,6610.0,0.9641450183977289
396,6630.0,0.9544000191331863
397,6650.0,0.9538080198686437
398,6670.0,0.930876020604101
399,6690.0,0.9438260213395584
400,6710.0,0.9063980220750157
401,6730.0,0.9302810228104731
402,6750.0,0.9132890235459304
403,6770.0,0.9180430242813878
404,6790.0,0.9058040250168452
405,6810.0,0.9106760257523026
406,6830.0,0.9211320264877599
407,6850.0,0.8965350272232173
408,6870.0,0.9117440279586747
409,6890.0,0.9246970286941321
410,6910.0,0.9216070294295894
411,6930.0,0.9138830301650468
412,6950.0,0.913528030900504
413,6970.0,0.9251720316359615
414,6990.0,0.9205370323714188
415,7010.0,0.9058040331068761
416,7030.0,0.9258850338423334
417,7050.0,0.9301630345777908
418,7070.0,0.9002190353132482
419,7090.0,0.8712250360487055
420,7110.0,0.8486510367841629
421,7130.0,0.8304700375196202
422,7150.0,0.8276190382550777
423,7170.0,0.8376000389905349
424,7190.0,0.8170440397259924
425,7210.0,0.8370060404614497
426,7230.0,0.855542041196907
427,7250.0,0.8618390419323644
428,7270.0,0.8677810426678217
429,7290.0,0.8548310434032791
430,7310.0,0.8802580441387365
431,7330.0,0.8832290448741938
432,7350.0,0.8928540456096512
433,7370.0,0.9160230463451086
434,7390.0,0.8982010470805659
435,7410.0,0.8979620478160232
436,7430.0,0.9203010485514805
437,7450.0,0.9200620492869379
438,7470.0,0.9352710500223953
439,7490.0,0.9332520507578527
440,7510.0,0.94382605149331
441,7530.0,0.9595110522287673
442,7550.0,0.9662830529642247
443,7570.0,0.961886053699682
444,7585.77575,0.945016256017302
445,7590.0,0.9404990652628735
446,7610.0,0.9220831172629766
447,7630.0,0.9008121692630798
448,7650.0,0.8804942212631831
449,7670.0,0.8366502732632862
450,7690.0,0.8573253252633893
451,7710.0,0.8409273772634926
452,7730.0,0.8425904292635958
453,7750.0,0.836531481263699
454,7770.0,0.8467515332638021
455,7790.0,0.8550675852639054
456,7810.0,0.8534036372640086
457,7830.0,0.8461566892641118
458,7850.0,0.8342737412642149
459,7870.0,0.8493647932643181
460,7890.0,0.8368868452644214
461,7910.0,0.8174018972645245
462,7930.0,0.8209669492646278
463,7950.0,0.814194001264731
464,7970.0,0.8425910532648342
465,7990.0,0.8434241052649373
466,8010.0,0.8520971572650405
467,8030.0,0.8553072092651437
468,8050.0,0.856019261265247
469,8070.0,0.8680183132653501
470,8090.0,0.8594643652654533
471,8110.0,0.8693274172655565
472,8130.0,0.8960624692656598
473,8150.0,0.9069935212657628
474,8170.0,0.9161425732658661
475,8190.0,0.8872686252659693
476,8210.0,0.8747926772660725
477,8230.0,0.8804957292661757
478,8250.0,0.8790697812662789
479,8270.0,0.8885758332663821
480,8290.0,0.8781208852664852
481,8310.0,0.8465139372665884
482,8330.0,0.8404539892666917
483,8350.0,0.8399780412667949
484,8370.0,0.8455630932668979
485,8390.0,0.8159771452670012
486,8410.0,0.8433061972671044
487,8430.0,0.8008872492672077
488,8450.0,0.7813993012673107
489,8470.0,0.782111353267414
490,8490.0,0.7881724052675172
491,8510.0,0.7526444572676204
492,8530.0,0.7875785092677235
493,8550.0,0.7236535612678268
494,8570.0,0.81431361326793
495,8590.0,0.8016006652680331
496,8610.0,0.8112237172681364
497,8630.0,0.8320187692682396
498,8650.0,0.8320188212683428
499,8670.0,0.7465858732684459
500,8690.0,0.8138399252685491
501,8709.6359,0.8452201081119894
502,8710.0,0.8458019790331605
503,8730.0,0.8518611279576324
504,8750.0,0.8371292768821043
505,8770.0,0.8593474258065762
506,8790.0,0.8719435747310481
507,8810.0,0.85471372365552
508,8830.0,0.863982872579992
509,8850.0,0.8591110215044638
510,8870.0,0.8197811704289357
511,8890.0,0.8391483193534077
512,8910.0,0.8512704682778796
513,8930.0,0.8346336172023514
514,8950.0,0.8374867661268234
515,8970.0,0.8405749150512952
516,8990.0,0.8410510639757672
517,9010.0,0.808614212900239
518,9030.0,0.843309361824711
519,9050.0,0.875271510749183
520,9070.0,0.8755096596736548
521,9090.0,0.8576868085981267
522,9110.0,0.8694499575225987
523,9130.0,0.8862041064470705
524,9150.0,0.8795512553715424
525,9170.0,0.8784824042960143
526,9190.0,0.8882255532204862
527,9210.0,0.8498447021449582
528,9230.0,0.82025985106943
529,9250.0,0.823111999993902
530,9270.0,0.8307161489183739
531,9290.0,0.8197842978428458
532,9310.0,0.8258444467673177
533,9330.0,0.8272705956917896
534,9350.0,0.8238247446162615
535,9370.0,0.8095668935407334
536,9390.0,0.8248950424652053
537,9410.0,0.8071911913896773
538,9430.0,0.8298843403141491
539,9450.0,0.8169344892386211
540,9470.0,0.837371638163093
541,9490.0,0.8391527870875649
542,9510.0,0.8225189360120368
543,9530.0,0.8259650849365087
544,9550.0,0.8045782338609806
545,9570.0,0.8195493827854525
546,9590.0,0.8378465317099244
547,9610.0,0.8258466806343964
548,9630.0,0.8307188295588682
549,9650.0,0.8152729784833401
550,9670.0,0.8152731274078121
551,9690.0,0.829531276332284
552,9710.0,0.8159854252567559
553,9730.0,0.8079055741812278
554,9750.0,0.8045797231056997
555,9770.0,0.8088558720301716
556,9790.0,0.7968560209546435
557,9810.0,0.8178881698791155
558,9830.0,0.8087393188035873
559,9850.0,0.8153924677280592
560,9870.0,0.8090946166525312
561,9890.0,0.8081447655770031
562,9910.0,0.8003019145014749
563,9930.0,0.8057690634259469
564,9950.0,0.8075512123504187
565,9970.0,0.8079073612748907
566,9990.0,0.8048185101993626
567,10000.0,0.8040165846615985
568,10030.0,0.8016108086391432
569,10070.0,0.7899661072758694
570,10130.0,0.8012555552309587
571,10170.0,0.791511853867685
572,10220.0,0.7937702271635927
573,10280.0,0.7954326751186821
574,10320.0,0.7849779737554082
575,10380.0,0.7787994217104975
576,10430.0,0.7817707950064053
577,10480.0,0.770008168302313
578,10520.0,0.7631164669390393
579,10580.0,0.7479069148941286
580,10630.0,0.7408952881900364
581,10680.0,0.7322236614859441
582,10720.0,0.7363839601226704
583,10780.0,0.7306784080777596
584,10820.0,0.7192737067144859
585,10870.0,0.7165400800103936
586,10920.0,0.7125004533063014
587,10980.0,0.7044209012613907
588,11020.0,0.7009761998981169
589,11080.0,0.6899256478532063
590,11130.0,0.687075021149114
591,11170.0,0.6818463197858402
592,11220.0,0.681373693081748
593,11280.0,0.6716281410368372
594,11330.0,0.6704415143327451
595,11380.0,0.6653328876286528
596,11430.0,0.6576092609245605
597,11470.0,0.6658075595612868
598,11481.5362,0.6652592916496118
599,11530.0,0.6629563407875976
600,11570.0,0.6547599144924955
601,11620.0,0.6443036316236177
602,11670.0,0.6432353487547401
603,11730.0,0.645612209312087
604,11770.0,0.6307597830169849
605,11830.0,0.6242256435743316
606,11870.0,0.6131752172792296
607,11920.0,0.6224449344103519
608,11980.0,0.6012947949676987
609,12030.0,0.6123465120988211
610,12070.0,0.606643085803719
611,12120.0,0.6068828029348414
612,12180.0,0.6077136634921882
613,12230.0,0.6033193806233106
614,12270.0,0.5985669543282084
615,12320.0,0.5936956714593308
616,12370.0,0.5920333885904532
617,12430.0,0.5828842491477999
618,12480.0,0.5808639662789223
619,12530.0,0.5748066834100447
620,12580.0,0.572550400541167
621,12620.0,0.5689849742460649
622,12670.0,0.5632826913771872
623,12720.0,0.5631644085083096
624,12780.0,0.5623342690656564
625,12830.0,0.5414219861967788
626,12880.0,0.5516417033279011
627,12920.0,0.5452242770327991
628,12980.0,0.5504541375901458
629,13020.0,0.5427307112950438
630,13080.0,0.5441575718523906
631,13130.0,0.5318022889835129
632,13180.0,0.5301390061146353
633,13182.5674,0.5301207630498842
634,13230.0,0.5297840475777045
635,13280.0,0.5201591065959961
636,13320.0,0.5199229538106294
637,13380.0,0.5137452246325792
638,13430.0,0.5152922836508707
639,13470.0,0.5106581308655039
640,13520.0,0.5065011898837956
641,13570.0,0.4990172489020871
642,13630.0,0.496285519724037
643,13670.0,0.4983053669386702
644,13730.0,0.4990206377606201
645,13770.0,0.49735748497525334
646,13820.0,0.497477543993545
647,13880.0,0.4923688148154948
648,13930.0,0.47145687383378637
649,13970.0,0.46824872104841964
650,14020.0,0.4630227800667112
651,14080.0,0.4663510508886611
652,14120.0,0.4599358981032943
653,14180.0,0.46433316892524423
654,14230.0,0.4591052279435358
655,14280.0,0.45150228696182737
656,14330.0,0.45910734598011893
657,14380.0,0.4623164049984105
658,14420.0,0.45067425221304375
659,14480.0,0.45839852303499357
660,14520.0,0.4542403702496269
661,14570.0,0.45649842926791845
