,lambda (Angstroms),Total Flux (erg/s/cm^2/Angstrom)
0,1005.0,3.708990820508167
1,1015.0,3.6494954276699096
2,1025.0,3.3711290348316516
3,1035.0,3.4251086419933943
4,1045.0,3.665755249155137
5,1055.0,3.625626856316879
6,1065.0,3.4590734634786213
7,1075.0,3.5072300706403636
8,1085.0,3.340794677802106
9,1095.0,3.448480284963848
10,1096.4782,3.4408975043544965
11,1105.0,3.403435963343596
12,1115.0,3.3433173057467265
13,1125.0,3.2704846481498566
14,1135.0,3.3682789905529864
15,1145.0,3.273108332956117
16,1155.0,3.285587675359247
17,1165.0,3.2766810177623773
18,1175.0,3.0719563601655073
19,1185.0,3.1831767025686375
20,1195.0,2.9173790449717676
21,1205.0,2.786204387374898
22,1215.0,2.671546729778028
23,1225.0,2.827208072181158
24,1235.0,3.0358624145842885
25,1245.0,3.0816127569874183
26,1255.0,3.008661099390549
27,1258.92541,2.9453691005808147
28,1265.0,2.85320560307383
29,1275.0,3.0429799026381033
30,1285.0,3.067590202202376
31,1295.0,2.8569365017666497
32,1305.0,2.805977801330923
33,1315.0,2.9597471008951963
34,1325.0,2.90629440045947
35,1335.0,2.7716857000237427
36,1345.0,2.9068019995880165
37,1355.0,2.8520422991522896
38,1365.0,2.7333525987165626
39,1375.0,2.758678898280836
40,1385.0,2.743366197845109
41,1395.0,2.654265497409383
42,1405.0,2.646558796973656
43,1415.0,2.60760009653793
44,1425.0,2.611418396102203
45,1435.0,2.5687776956664763
46,1442.0,2.5954879053614675
47,1445.43977,2.600193613764688
48,1447.0,2.6034414181926424
49,1455.0,2.563986370272553
50,1465.0,2.487012560372441
51,1475.0,2.4620827504723293
52,1485.0,2.4628179405722173
53,1495.0,2.4621281306721055
54,1505.0,2.4098683207719938
55,1512.0,2.3240606538419155
56,1517.0,2.3616777488918594
57,1525.0,2.31438070097177
58,1535.0,2.223028891071658
59,1545.0,2.2766410811715465
60,1555.0,2.2211732712714345
61,1565.0,2.2000444613713226
62,1575.0,2.2128996514712105
63,1585.0,2.227893841571099
64,1595.0,2.223638031670987
65,1605.0,2.189203221770875
66,1615.0,2.175204411870763
67,1625.0,2.1187866019706516
68,1635.0,2.1352067920705395
69,1645.0,2.126673982170428
70,1655.0,2.054690172270316
71,1659.58691,2.0716508178834236
72,1665.0,2.0943414046079045
73,1672.0,2.0083079995160555
74,1677.0,2.074655995879021
75,1685.0,2.1003493900597654
76,1695.0,2.0474463827856955
77,1705.0,2.0070203755116256
78,1715.0,1.9633863682375559
79,1725.0,1.9469623609634863
80,1735.0,1.9672553536894168
81,1745.0,1.9413263464153467
82,1755.0,1.968272339141277
83,1765.0,1.8970713318672077
84,1775.0,1.9036993245931382
85,1785.0,1.897139317319068
86,1795.0,1.9233713100449985
87,1805.0,1.9017193027709292
88,1815.0,1.8473912954968597
89,1825.0,1.8408302882227896
90,1835.0,1.80480028094872
91,1845.0,1.7516622736746503
92,1855.0,1.7378522664005809
93,1865.0,1.7386572591265108
94,1875.0,1.7654832518524413
95,1885.0,1.7151962445783717
96,1895.0,1.6867722373043021
97,1905.0,1.693399230030232
98,1905.46072,1.6921334936391013
99,1915.0,1.668870522798882
100,1925.0,1.6533940168569037
101,1935.0,1.6502755109149256
102,1945.0,1.6592760049729476
103,1955.0,1.6240754990309696
104,1967.0,1.6518218919005956
105,1976.0,1.6531139365528154
106,1984.0,1.6202025317992326
107,1995.0,1.5950854752630568
108,2005.0,1.5956509693210785
109,2015.0,1.5673424633791004
110,2025.0,1.577649957437122
111,2035.0,1.547441451495144
112,2045.0,1.555847945553166
113,2055.0,1.5268264396111877
114,2065.0,1.5164589336692096
115,2074.0,1.5359319783214294
116,2078.0,1.5187627759446378
117,2085.0,1.5266199217852532
118,2095.0,1.4932014158432754
119,2105.0,1.4818849099012967
120,2115.0,1.4765084039593188
121,2125.0,1.4717268980173404
122,2135.0,1.4274953920753626
123,2145.0,1.4351898861333843
124,2155.0,1.438845380191406
125,2165.0,1.413030874249428
126,2175.0,1.39933736830745
127,2185.0,1.386355862365472
128,2187.7616199999998,1.388677968901523
129,2195.0,1.3967463550483445
130,2205.0,1.3767590289544138
131,2215.0,1.3472687028604833
132,2225.0,1.3304903767665524
133,2235.0,1.3550630506726216
134,2245.0,1.3290167245786908
135,2255.0,1.3048713984847602
136,2265.0,1.3063930723908297
137,2275.0,1.3123107462968988
138,2285.0,1.320246420202968
139,2295.0,1.2936070941090374
140,2305.0,1.2871677680151066
141,2315.0,1.262666441921176
142,2325.0,1.1841011158272452
143,2335.0,1.2240007897333145
144,2345.0,1.2048464636393839
145,2355.0,1.2307261375454532
146,2365.0,1.1917278114515224
147,2375.0,1.1982404853575916
148,2385.0,1.166135159263661
149,2395.0,1.1823888331697303
150,2405.0,1.1639485070757996
151,2415.0,1.166894180981869
152,2425.0,1.1856448548879381
153,2435.0,1.1679155287940075
154,2445.0,1.1834572027000767
155,2455.0,1.172977876606146
156,2465.0,1.1628545505122152
157,2475.0,1.1432242244182846
158,2485.0,1.141536898324354
159,2495.0,1.1251155722304234
160,2505.0,1.1539652461364924
161,2511.88643,1.1118694801094398
162,2513.0,1.1052249645036558
163,2518.0,1.108319292576728
164,2525.0,1.092145151879029
165,2535.0,1.0964308080251732
166,2545.0,1.0877684641713175
167,2555.0,1.1145131203174619
168,2565.0,1.0957497764636062
169,2575.0,1.1139394326097503
170,2585.0,1.1028990887558945
171,2595.0,1.0919777449020387
172,2605.0,1.0740454010481832
173,2615.0,1.0643120571943274
174,2625.0,1.0787007133404716
175,2635.0,1.0981963694866157
176,2645.0,1.1320710256327602
177,2655.0,1.1541836817789044
178,2665.0,1.0918113379250487
179,2675.0,1.107744994071193
180,2685.0,1.1097756502173373
181,2695.0,1.0754453063634815
182,2705.0,1.0907829625096257
183,2715.0,1.0552666186557698
184,2725.0,1.041731274801914
185,2735.0,1.0606329309480584
186,2745.0,0.9996885870942025
187,2755.0,1.0083722432403468
188,2765.0,1.0232358993864912
189,2775.0,1.0339385555326355
190,2785.0,0.9983032116787797
191,2795.0,0.928564867824924
192,2805.0,0.9425965239710681
193,2815.0,1.0086721801172125
194,2825.0,1.0350608362633567
195,2835.0,1.015939492409501
196,2845.0,0.9886221485556452
197,2855.0,0.9605898047017896
198,2865.0,1.0100294608479337
199,2875.0,1.024894116994078
200,2884.0315,1.0138491850924682
201,2885.0,1.0127861817781438
202,2895.0,1.0229614118832095
203,2910.0,1.072027757040808
204,2930.0,1.0384352172509397
205,2950.0,1.019455677461071
206,2970.0,1.0215081376712025
207,2990.0,1.0169065978813339
208,3010.0,1.0143250580914653
209,3030.0,1.013881518301597
210,3050.0,1.0108259785117284
211,3070.0,1.0159664387218599
212,3090.0,1.0082738989319915
213,3110.0,1.0199513591421228
214,3130.0,0.9993088193522544
215,3150.0,0.9941142795623857
216,3170.0,1.0006807397725173
217,3190.0,0.9612651999826487
218,3210.0,0.9769806601927802
219,3230.0,0.9373271204029117
220,3250.0,0.9920185806130433
221,3270.0,1.0212810408231747
222,3290.0,1.008954501033306
223,3310.0,0.9892629612434376
224,3311.31121,0.9890703746660441
225,3330.0,0.987968286994703
226,3350.0,0.9732418765873507
227,3370.0,0.9134824661799987
228,3390.0,0.9295310557726465
229,3410.0,0.9298966453652944
230,3430.0,0.9325192349579421
231,3450.0,0.9382308245505899
232,3470.0,0.9387144141432378
233,3490.0,0.9602290037358857
234,3510.0,0.9733075933285336
235,3530.0,0.9396891829211813
236,3550.0,0.9740367725138293
237,3570.0,0.878037362106477
238,3590.0,0.874480951699125
239,3610.0,0.9189275412917728
240,3630.0,0.9283231308844206
241,3640.0,0.9360504256807445
242,3650.0,0.9751467204770685
243,3670.0,0.9835903100697162
244,3690.0,0.9328638996623642
245,3710.0,0.9600804892550119
246,3730.0,0.8618230788476599
247,3750.0,0.9237376684403076
248,3770.0,0.9930192580329554
249,3790.0,1.0367518476256032
250,3801.8939600000003,1.0447425605831722
251,3810.0,1.0506903049327267
252,3830.0,0.8715651507256292
253,3850.0,1.0064859965185318
254,3870.0,1.0307838423114342
255,3890.0,0.9557466881043366
256,3910.0,1.129284533897239
257,3930.0,0.9034633796901415
258,3950.0,1.053710225483044
259,3970.0,0.8347820712759464
260,3990.0,1.2015239170688488
261,4010.0,1.2721617628617512
262,4030.0,1.2616436086546536
263,4050.0,1.2369864544475562
264,4070.0,1.1934373002404586
265,4090.0,1.2407861460333611
266,4110.0,1.1482829918262636
267,4130.0,1.224386837619166
268,4150.0,1.2268226834120686
269,4170.0,1.227593529204971
270,4190.0,1.2133933749978734
271,4210.0,1.215589220790776
272,4230.0,1.1796460665836783
273,4250.0,1.2095269123765806
274,4270.0,1.1655037581694832
275,4290.0,1.1324096039623857
276,4310.0,1.0520254497552881
277,4330.0,1.1730452955481905
278,4350.0,1.136150141341093
279,4365.15832,1.2368755450330635
280,4370.0,1.2692647601472595
281,4390.0,1.1957190513775477
282,4410.0,1.2256653426078357
283,4430.0,1.2630966338381238
284,4450.0,1.268920925068412
285,4470.0,1.3086102162987
286,4490.0,1.319902507528988
287,4510.0,1.4248217987592762
288,4530.0,1.3067210899895643
289,4550.0,1.3348833812198524
290,4570.0,1.3994046724501406
291,4590.0,1.3453389636804287
292,4610.0,1.3644732549107166
293,4630.0,1.3354875461410047
294,4650.0,1.3458218373712927
295,4670.0,1.378146128601581
296,4690.0,1.356050419831869
297,4710.0,1.3191057110621571
298,4730.0,1.3518990022924453
299,4750.0,1.3753132935227332
300,4770.0,1.3597475847530214
301,4790.0,1.3573718759833096
302,4810.0,1.3485761672135976
303,4830.0,1.3699804584438855
304,4850.0,1.2793217496741738
305,4870.0,1.1764250409044619
306,4890.0,1.31912333213475
307,4910.0,1.3229276233650382
308,4930.0,1.3000089145953262
309,4950.0,1.3385062058256143
310,4970.0,1.3178304970559025
311,4990.0,1.2495197882861906
312,5010.0,1.1965280795164785
313,5011.87234,1.2011668291305841
314,5030.0,1.2466458184017668
315,5050.0,1.2384831668893073
316,5070.0,1.2752325153768478
317,5090.0,1.222749863864388
318,5110.0,1.2420342123519286
319,5130.0,1.206778560839469
320,5150.0,1.1717629093270094
321,5170.0,1.10858325781455
322,5190.0,1.1313136063020903
323,5210.0,1.1901639547896308
324,5230.0,1.2483043032771712
325,5250.0,1.2855246517647116
326,5270.0,1.1712600002522522
327,5290.0,1.2914153487397926
328,5310.0,1.3456356972273331
329,5330.0,1.2209120457148734
330,5350.0,1.3042463942024138
331,5370.0,1.2955967426899546
332,5390.0,1.2703300911774948
333,5410.0,1.2523024396650353
334,5430.0,1.2649367881525757
335,5450.0,1.2900381366401161
336,5470.0,1.2654784851276566
337,5490.0,1.2694288336151969
338,5510.0,1.2548541821027375
339,5530.0,1.2858995305902778
340,5550.0,1.2974598790778185
341,5570.0,1.273850227565359
342,5590.0,1.2471525760528992
343,5610.0,1.2796209245404397
344,5630.0,1.26944127302798
345,5650.0,1.2813616215155206
346,5670.0,1.253701970003061
347,5690.0,1.2832123184906015
348,5710.0,1.2468826669781419
349,5730.0,1.3271230154656823
350,5750.0,1.2830733639532228
351,5754.399369999999,1.284989366244504
352,5770.0,1.292125921170333
353,5790.0,1.2492249810811555
354,5810.0,1.288924040991978
355,5830.0,1.3171931009028006
356,5850.0,1.2811821608136233
357,5870.0,1.2777412207244458
358,5890.0,1.1605852806352681
359,5910.0,1.2568193405460908
360,5930.0,1.2631184004569134
361,5950.0,1.260977460367736
362,5970.0,1.2769065202785583
363,5990.0,1.2568155801893808
364,6010.0,1.2413746401002033
365,6030.0,1.267033700011026
366,6050.0,1.2839127599218485
367,6070.0,1.279391819832671
368,6090.0,1.2394608797434934
369,6110.0,1.241599939654316
370,6130.0,1.1842109995651386
371,6150.0,1.2077360594759612
372,6170.0,1.1554551193867837
373,6190.0,1.2128441792976061
374,6210.0,1.2020292392084286
375,6230.0,1.1689962991192513
376,6250.0,1.1364363590300737
377,6270.0,1.1796854189408963
378,6290.0,1.196437478851719
379,6310.0,1.1681575387625414
380,6330.0,1.180394598673364
381,6350.0,1.1782546585841864
382,6370.0,1.171716718495009
383,6390.0,1.1907267784058315
384,6410.0,1.169574838316654
385,6430.0,1.1776538982274767
386,6450.0,1.168502958138299
387,6470.0,1.1652920180491215
388,6490.0,1.1441420779599443
389,6510.0,1.1759841378707667
390,6530.0,1.171468197781589
391,6550.0,1.1379572576924117
392,6570.0,1.0740303176032342
393,6590.0,1.150312377514057
394,6606.93448,1.159567121561988
395,6610.0,1.1612921819420747
396,6630.0,1.1508007839677443
397,6650.0,1.149462385993414
398,6670.0,1.1257839880190836
399,6690.0,1.1379875900447534
400,6710.0,1.099813192070423
401,6730.0,1.1229497940960929
402,6750.0,1.1052113961217624
403,6770.0,1.1092189981474323
404,6790.0,1.096233600173102
405,6810.0,1.1003592021987716
406,6830.0,1.1100688042244413
407,6850.0,1.084725406250111
408,6870.0,1.0991880082757808
409,6890.0,1.1113946103014505
410,6910.0,1.1075582123271202
411,6930.0,1.0990878143527898
412,6950.0,1.0979864163784594
413,6970.0,1.1088840184041293
414,6990.0,1.1035026204297989
415,7010.0,1.0880232224554687
416,7030.0,1.1073578244811384
417,7050.0,1.110889426506808
418,7070.0,1.0801990285324776
419,7090.0,1.0504586305581474
420,7110.0,1.0271382325838172
421,7130.0,1.008210834609487
422,7150.0,1.0046134366351567
423,7170.0,1.0138480386608262
424,7190.0,0.992545640686496
425,7210.0,1.0117612427121656
426,7230.0,1.0295508447378352
427,7250.0,1.035101446763505
428,7270.0,1.0402970487891747
429,7290.0,1.0266006508148444
430,7310.0,1.0512812528405142
431,7330.0,1.0535058548661838
432,7350.0,1.0623844568918535
433,7370.0,1.0848070589175232
434,7390.0,1.0662386609431929
435,7410.0,1.0652532629688625
436,7430.0,1.0868458649945323
437,7450.0,1.085860467020202
438,7470.0,1.1003230690458716
439,7490.0,1.0975576710715413
440,7510.0,1.1073852730972111
441,7530.0,1.1223238751228808
442,7550.0,1.1283494771485505
443,7570.0,1.1232060791742202
444,7585.77575,1.1057475315195435
445,7590.0,1.1011209966813613
446,7610.0,1.0821873516523892
447,7630.0,1.060398706623417
448,7650.0,1.0395630615944451
449,7670.0,0.9952014165654728
450,7690.0,1.0153587715365007
451,7710.0,0.9984431265075286
452,7730.0,0.9995884814785565
453,7750.0,0.9930118364495844
454,7770.0,1.0027141914206121
455,7790.0,1.01051254639164
456,7810.0,1.008330901362668
457,7830.0,1.000566256333696
458,7850.0,0.9881656113047237
459,7870.0,1.0027389662757515
460,7890.0,0.9897433212467794
461,7910.0,0.9697406762178074
462,7930.0,0.9727880311888353
463,7950.0,0.965497386159863
464,7970.0,0.9933767411308909
465,7990.0,0.9936920961019189
466,8010.0,1.0018474510729467
467,8030.0,1.0045398060439745
468,8050.0,1.0047341610150025
469,8070.0,1.0162155159860302
470,8090.0,1.0071438709570582
471,8110.0,1.016489225928086
472,8130.0,1.042706580899114
473,8150.0,1.0531199358701417
474,8170.0,1.0617512908411697
475,8190.0,1.0323596458121975
476,8210.0,1.0193660007832255
477,8230.0,1.0245513557542534
478,8250.0,1.0226077107252811
479,8270.0,1.0315960656963092
480,8290.0,1.020623420667337
481,8310.0,0.9884987756383649
482,8330.0,0.9819211306093927
483,8350.0,0.9809274855804205
484,8370.0,0.9859948405514485
485,8390.0,0.9558911955224763
486,8410.0,0.9827025504935042
487,8430.0,0.9397659054645321
488,8450.0,0.9197602604355599
489,8470.0,0.9199546154065879
490,8490.0,0.9254979703776157
491,8510.0,0.8894523253486436
492,8530.0,0.9238686803196714
493,8550.0,0.8594260352906993
494,8570.0,0.9495683902617271
495,8590.0,0.936337745232755
496,8610.0,0.945443100203783
497,8630.0,0.9657204551748109
498,8650.0,0.9652028101458388
499,8670.0,0.8792521651168667
500,8690.0,0.9459885200878945
501,8709.6359,0.9768604305766737
502,8710.0,0.9774360993614792
503,8730.0,0.9831545651568323
504,8750.0,0.9680820309521854
505,8770.0,0.9899594967475386
506,8790.0,1.0022149625428916
507,8810.0,0.9846444283382448
508,8830.0,0.993572894133598
509,8850.0,0.9883603599289511
510,8870.0,0.9486898257243043
511,8890.0,0.9677162915196574
512,8910.0,0.9794977573150105
513,8930.0,0.9625202231103636
514,8950.0,0.9650326889057167
515,8970.0,0.9677801547010698
516,8990.0,0.967915620496423
517,9010.0,0.9351380862917761
518,9030.0,0.9694925520871293
519,9050.0,1.0011140178824824
520,9070.0,1.0010114836778354
521,9090.0,0.9828479494731885
522,9110.0,0.9942704152685418
523,9130.0,1.010683881063895
524,9150.0,1.003690346859248
525,9170.0,1.0022808126546012
526,9190.0,1.0116832784499543
527,9210.0,0.9729617442453075
528,9230.0,0.9430362100406605
529,9250.0,0.9455476758360137
530,9270.0,0.9528111416313667
531,9290.0,0.9415386074267199
532,9310.0,0.947258073222073
533,9330.0,0.9483435390174262
534,9350.0,0.9445570048127793
535,9370.0,0.9299584706081324
536,9390.0,0.9449459364034856
537,9410.0,0.9269014021988388
538,9430.0,0.9492538679941919
539,9450.0,0.935963333789545
540,9470.0,0.9560597995848981
541,9490.0,0.9575002653802512
542,9510.0,0.9405257311756043
543,9530.0,0.9436311969709574
544,9550.0,0.9219036627663106
545,9570.0,0.9365341285616637
546,9590.0,0.9544905943570169
547,9610.0,0.94215006015237
548,9630.0,0.946681525947723
549,9650.0,0.9308949917430762
550,9670.0,0.9305544575384294
551,9690.0,0.9444719233337825
552,9710.0,0.9305853891291356
553,9730.0,0.9221648549244887
554,9750.0,0.9184983207198419
555,9770.0,0.922433786515195
556,9790.0,0.9100932523105482
557,9810.0,0.9307847181059012
558,9830.0,0.9212951839012544
559,9850.0,0.9276076496966075
560,9870.0,0.9209691154919607
561,9890.0,0.9196785812873138
562,9910.0,0.9114950470826669
563,9930.0,0.9166215128780201
564,9950.0,0.9180629786733732
565,9970.0,0.9180784444687263
566,9990.0,0.9146489102640794
567,10000.0,0.913676643161756
568,10030.0,0.9109579414662843
569,10070.0,0.8988960058723221
570,10130.0,0.9095596024813788
571,10170.0,0.8993986668874165
572,10220.0,0.9011354973949638
573,10280.0,0.9021720940040205
574,10320.0,0.8913001584100583
575,10380.0,0.8844957550191149
576,10430.0,0.8869455855266621
577,10480.0,0.8746614160342093
578,10520.0,0.8673524804402473
579,10580.0,0.8515170770493038
580,10630.0,0.843983907556851
581,10680.0,0.8347907380643982
582,10720.0,0.8385338024704361
583,10780.0,0.8322023990794928
584,10820.0,0.8203804634855305
585,10870.0,0.8171252939930778
586,10920.0,0.812564124500625
587,10980.0,0.8038587211096816
588,11020.0,0.7999967855157194
589,11080.0,0.7883203821247762
590,11130.0,0.7849482126323233
591,11170.0,0.7793022770383611
592,11220.0,0.7783081075459083
593,11280.0,0.767936704154965
594,11330.0,0.7662285346625123
595,11380.0,0.7605983651700594
596,11430.0,0.7523531956776066
597,11470.0,0.7601342600836445
598,11481.5362,0.7594656597336678
599,11530.0,0.7568986861440352
600,11570.0,0.7484843464970141
601,11620.0,0.7377556719382378
602,11670.0,0.7364149973794614
603,11730.0,0.7384649879089298
604,11770.0,0.7233946482619087
605,11830.0,0.716533638791377
606,11870.0,0.705265299144356
607,11920.0,0.7142626245855797
608,11980.0,0.6927856151150479
609,12030.0,0.7035649405562716
610,12070.0,0.6976436009092505
611,12120.0,0.6976109263504742
612,12180.0,0.6981149168799425
613,12230.0,0.6934482423211661
614,12270.0,0.688477902674145
615,12320.0,0.6833342281153687
616,12370.0,0.6813995535565923
617,12430.0,0.6719235440860606
618,12480.0,0.6696308695272843
619,12530.0,0.6633011949685079
620,12580.0,0.6607725204097317
621,12620.0,0.6569891807627104
622,12670.0,0.6510145062039341
623,12720.0,0.6506238316451577
624,12780.0,0.649466822174626
625,12830.0,0.6282821476158498
626,12880.0,0.6382294730570733
627,12920.0,0.6315941334100523
628,12980.0,0.6364971239395206
629,13020.0,0.6285557842924996
630,13080.0,0.6296557748219679
631,13130.0,0.6170281002631915
632,13180.0,0.6150924257044152
633,13182.5674,0.6150601958711712
634,13230.0,0.6146340618069144
635,13280.0,0.604914862243474
636,13320.0,0.6046033025927219
637,13380.0,0.5983124631165935
638,13430.0,0.5997652635531531
639,13470.0,0.5950557039024008
640,13520.0,0.5908045043389606
641,13570.0,0.5832263047755202
642,13630.0,0.5803814652993918
643,13670.0,0.5823259056486396
644,13730.0,0.5829280661725113
645,13770.0,0.5811895065217589
646,13820.0,0.5812153069583187
647,13880.0,0.5759934674821903
648,13930.0,0.55498726791875
649,13970.0,0.5517037082679977
650,14020.0,0.5463835087045574
651,14080.0,0.549598669228429
652,14120.0,0.5431081095776767
653,14180.0,0.5473922701015485
654,14230.0,0.5420700705381081
655,14280.0,0.5343728709746678
656,14330.0,0.5418836714112275
657,14380.0,0.5449984718477872
658,14420.0,0.5332809121970349
659,14480.0,0.5408920727209066
660,14520.0,0.5366585130701543
661,14570.0,0.5388223135067141
662,14620.0,0.5291051139432736
663,14670.0,0.5261599143798333
664,14720.0,0.521670714816393
665,14770.0,0.5241915152529528
666,14830.0,0.5259806757768244
