,lambda (Angstroms),Total Flux (erg/s/cm^2/Angstrom)
0,1005.0,3.166138683756806
1,1015.0,3.113390689724924
2,1025.0,2.8417716956930428
3,1035.0,2.9024987016611616
4,1045.0,3.1498927076292804
5,1055.0,3.116511713597399
6,1065.0,2.9567057195655173
7,1075.0,3.011609725533636
8,1085.0,2.8519217315017547
9,1095.0,2.966354737469873
10,1096.4782,2.95976935735208
11,1105.0,2.927015636119663
12,1115.0,2.872421421455605
13,1125.0,2.805113206791547
14,1135.0,2.9084319921274884
15,1145.0,2.8187857774634306
16,1155.0,2.836789562799372
17,1165.0,2.833407348135314
18,1175.0,2.634207133471256
19,1185.0,2.750951918807197
20,1195.0,2.4906787041431393
21,1205.0,2.3650284894790814
22,1215.0,2.255895274815023
23,1225.0,2.4170810601509647
24,1235.0,2.6312598454869067
25,1245.0,2.6825346308228486
26,1255.0,2.6151074161587906
27,1258.92541,2.5539839877023454
28,1265.0,2.464212835894858
29,1275.0,2.6579254188650854
30,1285.0,2.6864740018353133
31,1295.0,2.4797585848055412
32,1305.0,2.432738167775769
33,1315.0,2.590445750745997
34,1325.0,2.5409313337162245
35,1335.0,2.410260916686452
36,1345.0,2.54931549965668
37,1355.0,2.498494082626908
38,1365.0,2.3837426655971354
39,1375.0,2.4130072485673635
40,1385.0,2.401632831537591
41,1395.0,2.316470414507819
42,1405.0,2.3127019974780465
43,1415.0,2.2776815804482746
44,1425.0,2.285438163418502
45,1435.0,2.24673574638873
46,1442.0,2.276202754467889
47,1445.43977,2.2822631417822397
48,1447.0,2.2859398484938684
49,1455.0,2.2486839752271273
50,1465.0,2.1744591336437007
51,1475.0,2.1522782920602745
52,1485.0,2.1557624504768476
53,1495.0,2.1578216088934212
54,1505.0,2.1083107673099946
55,1512.0,2.024427378201596
56,1517.0,2.0634189574098825
57,1525.0,2.0183210841431416
58,1535.0,1.929718242559715
59,1545.0,1.9860794009762885
60,1555.0,1.9333605593928618
61,1565.0,1.9149807178094354
62,1575.0,1.9305848762260087
63,1585.0,1.9483280346425822
64,1595.0,1.9468211930591557
65,1605.0,1.9151353514757292
66,1615.0,1.9038855098923024
67,1625.0,1.8502166683088763
68,1635.0,1.8693858267254495
69,1645.0,1.8636019851420231
70,1655.0,1.7943671435585966
71,1659.58691,1.812588716197853
72,1665.0,1.83632150383992
73,1672.0,1.751635832930046
74,1677.0,1.8189464965658506
75,1685.0,1.8461801583831374
76,1695.0,1.795202485654746
77,1705.0,1.7567018129263545
78,1715.0,1.7149931401979632
79,1725.0,1.700494467469572
80,1735.0,1.7227127947411804
81,1745.0,1.6987091220127888
82,1755.0,1.7275804492843974
83,1765.0,1.6583047765560062
84,1775.0,1.666858103827615
85,1785.0,1.6622234310992232
86,1795.0,1.690380758370832
87,1805.0,1.6706540856424408
88,1815.0,1.6182514129140495
89,1825.0,1.613615740185658
90,1835.0,1.5795110674572665
91,1845.0,1.528298394728875
92,1855.0,1.5164137220004839
93,1865.0,1.5191440492720922
94,1875.0,1.547895376543701
95,1885.0,1.4995337038153096
96,1895.0,1.4730350310869182
97,1905.0,1.4815873583585266
98,1905.46072,1.4804103259805843
99,1915.0,1.4584932689990682
100,1925.0,1.4444276807140863
101,1935.0,1.4427200924291046
102,1945.0,1.4531315041441228
103,1955.0,1.4193419158591412
104,1967.0,1.4487814099171628
105,1976.0,1.4513432804606794
106,1984.0,1.4195606098326938
107,1995.0,1.3959955627192138
108,2005.0,1.397971974434232
109,2015.0,1.3710743861492503
110,2025.0,1.3827927978642682
111,2035.0,1.3539952095792867
112,2045.0,1.3638126212943047
113,2055.0,1.336202033009323
114,2065.0,1.3272454447243411
115,2074.0,1.3479883152678576
116,2078.0,1.3313834799538646
117,2085.0,1.3402282681543776
118,2095.0,1.3082206798693958
119,2105.0,1.298315091584414
120,2115.0,1.2943495032994323
121,2125.0,1.2909789150144504
122,2135.0,1.2481583267294687
123,2145.0,1.2572637384444867
124,2155.0,1.262330150159505
125,2165.0,1.2379265618745232
126,2175.0,1.2256439735895415
127,2185.0,1.2140733853045598
128,2187.7616199999998,1.216785133682602
129,2195.0,1.225544462540287
130,2205.0,1.2065116907953448
131,2215.0,1.1779759190504024
132,2225.0,1.1621521473054601
133,2235.0,1.187679375560518
134,2245.0,1.1625876038155756
135,2255.0,1.1393968320706334
136,2265.0,1.1418730603256912
137,2275.0,1.1487452885807488
138,2285.0,1.1576355168358066
139,2295.0,1.1319507450908644
140,2305.0,1.1264659733459221
141,2315.0,1.10291920160098
142,2325.0,1.0253084298560375
143,2335.0,1.0661626581110952
144,2345.0,1.047962886366153
145,2355.0,1.074797114621211
146,2365.0,1.0367533428762685
147,2375.0,1.0442205711313264
148,2385.0,1.0130697993863842
149,2395.0,1.0302780276414418
150,2405.0,1.0127922558964997
151,2415.0,1.0166924841515572
152,2425.0,1.036397712406615
153,2435.0,1.0196229406616728
154,2445.0,1.0361191689167304
155,2455.0,1.0265943971717884
156,2465.0,1.0174256254268461
157,2475.0,0.9987498536819037
158,2485.0,0.9980170819369616
159,2495.0,0.9825503101920192
160,2505.0,1.012354538447077
161,2511.88643,0.9709161195905746
162,2513.0,0.9643508037530465
163,2518.0,0.96780074381394
164,2525.0,0.9521244598991907
165,2535.0,0.9571213400209776
166,2545.0,0.9491702201427645
167,2555.0,0.9766261002645514
168,2565.0,0.9585739803863383
169,2575.0,0.9774748605081252
170,2585.0,0.967145740629912
171,2595.0,0.9569356207516989
172,2605.0,0.939714500873486
173,2615.0,0.9306923809952727
174,2625.0,0.9457922611170596
175,2635.0,0.9659991412388464
176,2645.0,1.0005850213606333
177,2655.0,1.0234089014824201
178,2665.0,0.9617477816042072
179,2675.0,0.978392661725994
180,2685.0,0.9811345418477808
181,2695.0,0.9475154219695677
182,2705.0,0.9635643020913547
183,2715.0,0.9287591822131415
184,2725.0,0.9159350623349283
185,2735.0,0.9355479424567152
186,2745.0,0.8753148225785021
187,2755.0,0.8847097027002889
188,2765.0,0.9002845828220759
189,2775.0,0.9116984629438627
190,2785.0,0.8767743430656496
191,2795.0,0.8077472231874365
192,2805.0,0.8224901033092233
193,2815.0,0.8892769834310104
194,2825.0,0.9163768635527971
195,2835.0,0.8979667436745841
196,2845.0,0.8713606237963709
197,2855.0,0.8440395039181579
198,2865.0,0.8941903840399447
199,2875.0,0.9097662641617317
200,2884.0315,0.8993636741937234
201,2885.0,0.898349318148453
202,2895.0,0.9090268432360078
203,2910.0,0.95884663086734
204,2930.0,0.9262586810424496
205,2950.0,0.9082837312175591
206,2970.0,0.9113407813926686
207,2990.0,0.9077438315677783
208,3010.0,0.9061668817428878
209,3030.0,0.9067279319179975
210,3050.0,0.9046769820931069
211,3070.0,0.9108220322682166
212,3090.0,0.9041340824433262
213,3110.0,0.9168161326184356
214,3130.0,0.8971781827935452
215,3150.0,0.8929882329686547
216,3170.0,0.9005592831437643
217,3190.0,0.8621483333188739
218,3210.0,0.8788683834939834
219,3230.0,0.840219433669093
220,3250.0,0.8959154838442026
221,3270.0,0.9261825340193122
222,3290.0,0.9148605841944216
223,3310.0,0.8961736343695312
224,3311.31121,0.8960469092125366
225,3330.0,0.8956097391622524
226,3350.0,0.8815948971561256
227,3370.0,0.8225470551499988
228,3390.0,0.839307213143872
229,3410.0,0.8403843711377452
230,3430.0,0.8437185291316184
231,3450.0,0.8501416871254917
232,3470.0,0.8513368451193648
233,3490.0,0.873563003113238
234,3510.0,0.8873531611071113
235,3530.0,0.8544463191009843
236,3550.0,0.8895054770948576
237,3570.0,0.7942176350887308
238,3590.0,0.791372793082604
239,3610.0,0.8365309510764772
240,3630.0,0.8466381090703505
241,3640.0,0.854721188067287
242,3650.0,0.8941732670642237
243,3670.0,0.9033284250580969
244,3690.0,0.85331358305197
245,3710.0,0.8812417410458433
246,3730.0,0.7836958990397165
247,3750.0,0.8463220570335896
248,3770.0,0.9163152150274628
249,3790.0,0.960759373021336
250,3801.8939600000003,0.9691732542839768
251,3810.0,0.9753257541106055
252,3830.0,0.7967057922713576
253,3850.0,0.9321318304321097
254,3870.0,0.9569348685928618
255,3890.0,0.8824029067536138
256,3910.0,1.056445944914366
257,3930.0,0.8311299830751179
258,3950.0,0.9818820212358699
259,3970.0,0.763459059396622
260,3990.0,1.130706097557374
261,4010.0,1.201849135718126
262,4030.0,1.191836173878878
263,4050.0,1.1676842120396302
264,4070.0,1.124640250200382
265,4090.0,1.1724942883611342
266,4110.0,1.080496326521886
267,4130.0,1.1571053646826384
268,4150.0,1.1600464028433903
269,4170.0,1.1613224410041423
270,4190.0,1.1476274791648944
271,4210.0,1.1503285173256466
272,4230.0,1.1148905554863986
273,4250.0,1.1452765936471505
274,4270.0,1.1017586318079027
275,4290.0,1.0691696699686546
276,4310.0,0.9892907081294067
277,4330.0,1.1108157462901587
278,4350.0,1.0744257844509109
279,4365.15832,1.1755340815215523
280,4370.0,1.2080094667893828
281,4390.0,1.1348197094812897
282,4410.0,1.1651219521731964
283,4430.0,1.2029091948651032
284,4450.0,1.2090894375570098
285,4470.0,1.2491346802489165
286,4490.0,1.2607829229408234
287,4510.0,1.3660581656327302
288,4530.0,1.2483134083246368
289,4550.0,1.2768316510165436
290,4570.0,1.3417088937084505
291,4590.0,1.2879991364003571
292,4610.0,1.3074893790922637
293,4630.0,1.2788596217841706
294,4650.0,1.2895498644760772
295,4670.0,1.322230107167984
296,4690.0,1.300490349859891
297,4710.0,1.2639015925517976
298,4730.0,1.2970508352437045
299,4750.0,1.320821077935611
300,4770.0,1.3056113206275177
301,4790.0,1.3035915633194248
302,4810.0,1.2951518060113314
303,4830.0,1.316912048703238
304,4850.0,1.2266092913951447
305,4870.0,1.1240685340870515
306,4890.0,1.2671227767789583
307,4910.0,1.271283019470865
308,4930.0,1.2487202621627718
309,4950.0,1.2875735048546786
310,4970.0,1.2672537475465853
311,4990.0,1.199298990238492
312,5010.0,1.1466632329303987
313,5011.87234,1.1513353056524869
314,5030.0,1.197042348668139
315,5050.0,1.1891313057410895
316,5070.0,1.2261322628140399
317,5090.0,1.17390121988699
318,5110.0,1.1934371769599406
319,5130.0,1.1584331340328908
320,5150.0,1.1236690911058411
321,5170.0,1.0607410481787916
322,5190.0,1.083723005251742
323,5210.0,1.1428249623246922
324,5230.0,1.2012169193976427
325,5250.0,1.238688876470593
326,5270.0,1.1246758335435434
327,5290.0,1.2450827906164939
328,5310.0,1.2995547476894442
329,5330.0,1.1750827047623944
330,5350.0,1.2586686618353449
331,5370.0,1.2502706189082953
332,5390.0,1.2252555759812456
333,5410.0,1.207479533054196
334,5430.0,1.2203654901271463
335,5450.0,1.2457184472000966
336,5470.0,1.2214104042730471
337,5490.0,1.2256123613459975
338,5510.0,1.211289318418948
339,5530.0,1.2425862754918982
340,5550.0,1.2543982325648486
341,5570.0,1.231040189637799
342,5590.0,1.2045941467107493
343,5610.0,1.2373141037836997
344,5630.0,1.22738606085665
345,5650.0,1.2395580179296004
346,5670.0,1.2121499750025506
347,5690.0,1.2419119320755012
348,5710.0,1.2058338891484517
349,5730.0,1.286325846221402
350,5750.0,1.2425278032943523
351,5754.399369999999,1.2444991515487533
352,5770.0,1.2517749343086109
353,5790.0,1.2090524842342962
354,5810.0,1.2489300341599816
355,5830.0,1.2773775840856672
356,5850.0,1.2415451340113528
357,5870.0,1.2382826839370382
358,5890.0,1.1213052338627234
359,5910.0,1.217717783788409
360,5930.0,1.2241953337140943
361,5950.0,1.22223288363978
362,5970.0,1.2383404335654653
363,5990.0,1.2184279834911507
364,6010.0,1.203165533416836
365,6030.0,1.2290030833425216
366,6050.0,1.246060633268207
367,6070.0,1.2417181831938926
368,6090.0,1.2019657331195779
369,6110.0,1.2042832830452634
370,6130.0,1.1470728329709488
371,6150.0,1.1707763828966342
372,6170.0,1.1186739328223196
373,6190.0,1.1762414827480052
374,6210.0,1.1656050326736906
375,6230.0,1.132750582599376
376,6250.0,1.1003691325250615
377,6270.0,1.1437966824507468
378,6290.0,1.1607272323764324
379,6310.0,1.1326257823021177
380,6330.0,1.1450413322278032
381,6350.0,1.1430798821534887
382,6370.0,1.1367204320791742
383,6390.0,1.1559089820048596
384,6410.0,1.134935531930545
385,6430.0,1.1431930818562304
386,6450.0,1.134220631781916
387,6470.0,1.1311881817076013
388,6490.0,1.1102167316332867
389,6510.0,1.1422372815589723
390,6530.0,1.1378998314846576
391,6550.0,1.104567381410343
392,6570.0,1.0408189313360285
393,6590.0,1.117279481261714
394,6606.93448,1.1266853570889899
395,6610.0,1.128429484951729
396,6630.0,1.1180624866397868
397,6650.0,1.1168484883278451
398,6670.0,1.0932944900159032
399,6690.0,1.1056224917039612
400,6710.0,1.0675724933920192
401,6730.0,1.0908334950800773
402,6750.0,1.0732194967681354
403,6770.0,1.0773514984561934
404,6790.0,1.0644905001442515
405,6810.0,1.0687405018323097
406,6830.0,1.0785745035203678
407,6850.0,1.0533555052084258
408,6870.0,1.0679425068964838
409,6890.0,1.080273508584542
410,6910.0,1.0765615102726
411,6930.0,1.0682155119606582
412,6950.0,1.0672385136487161
413,6970.0,1.0782605153367744
414,6990.0,1.0730035170248324
415,7010.0,1.0576485187128906
416,7030.0,1.0771075204009486
417,7050.0,1.0807635220890066
418,7070.0,1.0501975237770647
419,7090.0,1.0205815254651227
420,7110.0,0.9973855271531809
421,7130.0,0.978582528841239
422,7150.0,0.9751095305292972
423,7170.0,0.9844685322173551
424,7190.0,0.9632905339054133
425,7210.0,0.9826305355934712
426,7230.0,1.0005445372815294
427,7250.0,1.0062195389695874
428,7270.0,1.0115395406576455
429,7290.0,0.9979675423457036
430,7310.0,1.0227725440337618
431,7330.0,1.0251215457218197
432,7350.0,1.034124547409878
433,7370.0,1.056671549097936
434,7390.0,1.038227550785994
435,7410.0,1.037366552474052
436,7430.0,1.0590835541621102
437,7450.0,1.0582225558501683
438,7470.0,1.0728095575382264
439,7490.0,1.0701685592262846
440,7510.0,1.0801205609143425
441,7530.0,1.0951835626024007
442,7550.0,1.1013335642904587
443,7570.0,1.0963145659785167
444,7585.77575,1.0789541432225362
445,7590.0,1.074345830567801
446,7610.0,1.0554984597103243
447,7630.0,1.0337960888528475
448,7650.0,1.0130467179953708
449,7670.0,0.968771347137894
450,7690.0,0.9890149762804172
451,7710.0,0.9721856054229405
452,7730.0,0.9734172345654637
453,7750.0,0.9669268637079869
454,7770.0,0.9767154928505102
455,7790.0,0.9846001219930334
456,7810.0,0.9825047511355566
457,7830.0,0.9748263802780799
458,7850.0,0.9625120094206031
459,7870.0,0.9771716385631263
460,7890.0,0.9642622677056495
461,7910.0,0.9443458968481728
462,7930.0,0.9474795259906961
463,7950.0,0.9402751551332192
464,7970.0,0.9682407842757424
465,7990.0,0.9686424134182656
466,8010.0,0.976884042560789
467,8030.0,0.9796626717033121
468,8050.0,0.9799433008458354
469,8070.0,0.9915109299883585
470,8090.0,0.9825255591308819
471,8110.0,0.9919571882734051
472,8130.0,1.0182608174159284
473,8150.0,1.0287604465584514
474,8170.0,1.0374780757009747
475,8190.0,1.0081727048434979
476,8210.0,0.9952653339860212
477,8230.0,1.0005369631285446
478,8250.0,0.9986795922710676
479,8270.0,1.0077542214135908
480,8290.0,0.9968678505561142
481,8310.0,0.9648294796986373
482,8330.0,0.9583381088411607
483,8350.0,0.9574307379836838
484,8370.0,0.962584367126207
485,8390.0,0.9325669962687302
486,8410.0,0.9594646254112535
487,8430.0,0.9166142545537768
488,8450.0,0.8966948836962999
489,8470.0,0.8969755128388232
490,8490.0,0.9026051419813463
491,8510.0,0.8666457711238696
492,8530.0,0.9011484002663929
493,8550.0,0.8367920294089161
494,8570.0,0.9270206585514392
495,8590.0,0.9138762876939626
496,8610.0,0.9230679168364858
497,8630.0,0.943431545979009
498,8650.0,0.9430001751215322
499,8670.0,0.8571358042640556
500,8690.0,0.9239584334065787
501,8709.6359,0.9549150474455612
502,8710.0,0.9554917494678993
503,8730.0,0.9612669709640269
504,8750.0,0.9462511924601544
505,8770.0,0.9681854139562822
506,8790.0,0.9804976354524098
507,8810.0,0.9629838569485374
508,8830.0,0.971969078444665
509,8850.0,0.9668132999407926
510,8870.0,0.9271995214369202
511,8890.0,0.9462827429330478
512,8910.0,0.9581209644291754
513,8930.0,0.941200185925303
514,8950.0,0.9437694074214306
515,8970.0,0.9465736289175581
516,8990.0,0.9467658504136858
517,9010.0,0.9140450719098134
518,9030.0,0.9484562934059411
519,9050.0,0.9801345149020687
520,9070.0,0.9800887363981963
521,9090.0,0.9619819578943238
522,9110.0,0.9734611793904515
523,9130.0,0.989931400886579
524,9150.0,0.9829946223827066
525,9170.0,0.9816418438788342
526,9190.0,0.9911010653749619
527,9210.0,0.9524362868710895
528,9230.0,0.922567508367217
529,9250.0,0.9251357298633447
530,9270.0,0.9324559513594722
531,9290.0,0.9212401728555999
532,9310.0,0.9270163943517276
533,9330.0,0.9281586158478552
534,9350.0,0.9244288373439827
535,9370.0,0.9098870588401103
536,9390.0,0.924931280336238
537,9410.0,0.9069435018323656
538,9430.0,0.9293527233284932
539,9450.0,0.9161189448246208
540,9470.0,0.9362721663207484
541,9490.0,0.937769387816876
542,9510.0,0.9208516093130036
543,9530.0,0.9240138308091311
544,9550.0,0.9023430523052589
545,9570.0,0.9170302738013865
546,9590.0,0.9350434952975141
547,9610.0,0.9227597167936417
548,9630.0,0.9273479382897692
549,9650.0,0.9116181597858969
550,9670.0,0.9113343812820245
551,9690.0,0.9253086027781521
552,9710.0,0.9114788242742796
553,9730.0,0.9031150457704072
554,9750.0,0.8995052672665349
555,9770.0,0.9034974887626624
556,9790.0,0.89121371025879
557,9810.0,0.9119619317549177
558,9830.0,0.9025291532510453
559,9850.0,0.9088983747471729
560,9870.0,0.9023165962433006
561,9890.0,0.9010828177394282
562,9910.0,0.8929560392355558
563,9930.0,0.8981392607316834
564,9950.0,0.8996374822278109
565,9970.0,0.8997097037239385
566,9990.0,0.8963369252200661
567,10000.0,0.89539303596813
568,10030.0,0.8927264512219035
569,10070.0,0.8807340048936018
570,10130.0,0.8915018354011489
571,10170.0,0.8814103890728471
572,10220.0,0.8832340811624698
573,10280.0,0.884374911670017
574,10320.0,0.8735724653417152
575,10380.0,0.8668722958492624
576,10430.0,0.8694089879388851
577,10480.0,0.8572116800285078
578,10520.0,0.849972233700206
579,10580.0,0.8342410642077531
580,10630.0,0.8267947562973759
581,10680.0,0.8176884483869985
582,10720.0,0.8215010020586967
583,10780.0,0.815273832566244
584,10820.0,0.8035213862379421
585,10870.0,0.8003530783275647
586,10920.0,0.7958787704171875
587,10980.0,0.7872776009247346
588,11020.0,0.7834851545964328
589,11080.0,0.7719129851039801
590,11130.0,0.7686276771936027
591,11170.0,0.7630512308653008
592,11220.0,0.7621439229549236
593,11280.0,0.7518767534624708
594,11330.0,0.7502554455520936
595,11380.0,0.7447121376417162
596,11430.0,0.7365538297313388
597,11470.0,0.744404383403037
598,11481.5362,0.7437558241047231
599,11530.0,0.7412327384533627
600,11570.0,0.7328546220808452
601,11620.0,0.7221712266151981
602,11670.0,0.7208758311495511
603,11730.0,0.7229801565907749
604,11770.0,0.7079460402182572
605,11830.0,0.7011393656594808
606,11870.0,0.6899072492869633
607,11920.0,0.6989498538213164
608,11980.0,0.6775271792625399
609,12030.0,0.688351783796893
610,12070.0,0.6824666674243753
611,12120.0,0.6824792719587285
612,12180.0,0.6830375973999521
613,12230.0,0.6784162019343051
614,12270.0,0.6734820855617876
615,12320.0,0.6683836900961406
616,12370.0,0.6664942946304936
617,12430.0,0.6570726200717172
618,12480.0,0.6548252246060702
619,12530.0,0.6485408291404232
620,12580.0,0.6460574336747763
621,12620.0,0.6423103173022587
622,12670.0,0.6363809218366117
623,12720.0,0.6360355263709647
624,12780.0,0.6349328518121884
625,12830.0,0.6137934563465415
626,12880.0,0.6237860608808944
627,12920.0,0.617186944508377
628,12980.0,0.6221442699496005
629,13020.0,0.614239153577083
630,13080.0,0.6153934790183065
631,13130.0,0.6028110835526597
632,13180.0,0.6009206880870126
633,13182.5674,0.6008907832446426
634,13230.0,0.6004793848390952
635,13280.0,0.5907757185362283
636,13320.0,0.5904765854939349
637,13380.0,0.5842043859304945
638,13430.0,0.5856727196276275
639,13470.0,0.580975586585334
640,13520.0,0.5767399202824671
641,13570.0,0.5691772539796002
642,13630.0,0.5663510544161598
643,13670.0,0.5683079213738663
644,13730.0,0.568928721810426
645,13770.0,0.5672025887681325
646,13820.0,0.5672439224652656
647,13880.0,0.5620407229018253
648,13930.0,0.5410500565989583
649,13970.0,0.5377789235566648
650,14020.0,0.5324742572537978
651,14080.0,0.5357080576903575
652,14120.0,0.529229924648064
653,14180.0,0.5335327250846237
654,14230.0,0.5282260587817568
655,14280.0,0.5205443924788898
656,14330.0,0.5280707261760229
657,14380.0,0.531201059873156
658,14420.0,0.5194959268308624
659,14480.0,0.5271257272674221
660,14520.0,0.5229045942251286
661,14570.0,0.5250839279222617
662,14620.0,0.5153822616193947
663,14670.0,0.5124525953165278
664,14720.0,0.5079789290136609
665,14770.0,0.510515262710794
