,lambda (Angstroms),Total Flux (erg/s/cm^2/Angstrom)
0,1005.0,2.726858986914888
1,1015.0,2.713126377335419
2,1025.0,1.8735237677559493
3,1035.0,2.26221115817648
4,1045.0,3.2197785485970107
5,1055.0,3.1284559390175413
6,1065.0,2.650893329438072
7,1075.0,2.9377507198586024
8,1085.0,2.549058110279133
9,1095.0,3.0177455006996636
10,1096.4782,3.0006659921516263
11,1105.0,2.9021981547618365
12,1115.0,2.8181399872505244
13,1125.0,2.5466218197392125
14,1135.0,3.0144836522279004
15,1145.0,2.817305484716588
16,1155.0,2.9037673172052765
17,1165.0,2.9231491496939643
18,1175.0,2.163550982182652
19,1185.0,2.8091928146713396
20,1195.0,2.2750446471600276
21,1205.0,1.8831164796487156
22,1215.0,1.5889783121374035
23,1225.0,2.228140144626092
24,1235.0,2.8083419771147793
25,1245.0,2.948933809603467
26,1255.0,2.836615642092155
27,1258.92541,2.744298569039096
28,1265.0,2.6014427889122476
29,1275.0,3.0394233698619915
30,1285.0,3.1178239508117356
31,1295.0,2.6087245317614793
32,1305.0,2.5974151127112233
33,1315.0,3.032165693660967
34,1325.0,2.9077162746107104
35,1335.0,2.6572168555604545
36,1345.0,2.9755974365101983
37,1355.0,2.889948017459942
38,1365.0,2.642668598409686
39,1375.0,2.70004917935943
40,1385.0,2.687109760309174
41,1395.0,2.3024703412589176
42,1405.0,2.3582309222086613
43,1415.0,2.480251503158405
44,1425.0,2.492382084108149
45,1435.0,2.489952665057893
46,1442.0,2.5731830717227133
47,1445.43977,2.584300608196063
48,1447.0,2.5893433476305625
49,1455.0,2.5093437376986882
50,1465.0,2.3339942252838455
51,1475.0,2.3226847128690022
52,1485.0,2.330765200454159
53,1495.0,2.330765688039316
54,1505.0,2.2006661756244736
55,1512.0,1.9954165169340836
56,1517.0,2.090766760726662
57,1525.0,2.035817150794788
58,1535.0,1.792577638379945
59,1545.0,1.8604681259651021
60,1555.0,1.781268613550259
61,1565.0,1.8297491011354161
62,1575.0,1.9202595887205733
63,1585.0,1.9808700763057303
64,1595.0,1.9978405638908876
65,1605.0,1.9630910514760445
66,1615.0,1.9542015390612015
67,1625.0,1.8733920266463586
68,1635.0,1.9639025142315159
69,1645.0,1.977643001816673
70,1655.0,1.86450348940183
71,1659.58691,1.9134322820227532
72,1665.0,1.9711756405150473
73,1672.0,1.8006781330352268
74,1677.0,1.9792699134067837
75,1685.0,2.0180527620012745
76,1695.0,1.9081563227443878
77,1705.0,1.8402798834875016
78,1715.0,1.744123444230615
79,1725.0,1.7198870049737287
80,1735.0,1.7910005657168422
81,1745.0,1.7417141264599556
82,1755.0,1.8063576872030693
83,1765.0,1.682731247946183
84,1775.0,1.6778948086892964
85,1785.0,1.69000836943241
86,1795.0,1.7546619301755235
87,1805.0,1.7328454909186373
88,1815.0,1.5978990516617506
89,1825.0,1.6156726124048642
90,1835.0,1.5518461731479778
91,1845.0,1.4322497338910913
92,1855.0,1.4217432946342048
93,1865.0,1.4419568553773185
94,1875.0,1.521150416120432
95,1885.0,1.4007439768635457
96,1895.0,1.3353075376066592
97,1905.0,1.3967210983497726
98,1905.46072,1.3938919808803292
99,1915.0,1.335306884025832
100,1925.0,1.2973222941883416
101,1935.0,1.3272177043508513
102,1945.0,1.3587331145133612
103,1955.0,1.266608524675871
104,1967.0,1.3546730168708825
105,1976.0,1.3813288860171413
106,1984.0,1.307805214147149
107,1995.0,1.2698201653259098
108,2005.0,1.2964655754884193
109,2015.0,1.255250985650929
110,2025.0,1.2948463958134389
111,2035.0,1.2213118059759485
112,2045.0,1.2512072161384582
113,2055.0,1.192212626300968
114,2065.0,1.1946280364634776
115,2074.0,1.2608839056097363
116,2078.0,1.1954320696747402
117,2085.0,1.230978856788497
118,2095.0,1.166324266951007
119,2105.0,1.1719796771135167
120,2115.0,1.1735950872760263
121,2125.0,1.179250497438536
122,2135.0,1.1113659076010458
123,2145.0,1.1162113177635555
124,2155.0,1.1452867279260652
125,2165.0,1.1121521380885748
126,2175.0,1.0967975482510846
127,2185.0,1.0733629584135942
128,2187.7616199999998,1.0820635554948925
129,2195.0,1.1048743397188643
130,2205.0,1.0757779991619592
131,2215.0,1.030541658605054
132,2225.0,1.001455318048149
133,2235.0,1.046708977491244
134,2245.0,1.0143826369343387
135,2255.0,0.9820712963774336
136,2265.0,0.9982409558205286
137,2275.0,1.0143936152636235
138,2285.0,1.0321772747067186
139,2295.0,0.9804689341498133
140,2305.0,0.9869385935929081
141,2315.0,0.9505772530360032
142,2325.0,0.794380912479098
143,2335.0,0.899676571922193
144,2345.0,0.8819022313652878
145,2355.0,0.9279668908083827
146,2365.0,0.8754455502514776
147,2375.0,0.8899932096945725
148,2385.0,0.8447448691376674
149,2395.0,0.8819205285807623
150,2405.0,0.8544481880238574
151,2415.0,0.8665748474669522
152,2425.0,0.9013245069100471
153,2435.0,0.872237166353142
154,2445.0,0.9086048257962368
155,2455.0,0.8972974852393318
156,2465.0,0.8900261446824267
157,2475.0,0.8641718041255216
158,2485.0,0.8762984635686165
159,2495.0,0.8165021230117114
160,2505.0,0.8989297824548064
161,2511.88643,0.8363294889821774
162,2513.0,0.8262061447896667
163,2518.0,0.8455974366392547
164,2525.0,0.8189314452286778
165,2535.0,0.8245870289278536
166,2545.0,0.8100396126270296
167,2555.0,0.8512501963262056
168,2565.0,0.8326637800253814
169,2575.0,0.8649843637245574
170,2585.0,0.8544769474237334
171,2595.0,0.8431625311229093
172,2605.0,0.8197271148220852
173,2615.0,0.8084136985212611
174,2625.0,0.8318462822204371
175,2635.0,0.850430865919613
176,2645.0,0.899722449618789
177,2655.0,0.9150750333179649
178,2665.0,0.8439616170171408
179,2675.0,0.8706282007163167
180,2685.0,0.8706267844154927
181,2695.0,0.8318363681146685
182,2705.0,0.8479969518138445
183,2715.0,0.8116315355130204
184,2725.0,0.8065381192121963
185,2735.0,0.8350637029113722
186,2745.0,0.7512642866105482
187,2755.0,0.7626578703097241
188,2765.0,0.7826954540089001
189,2775.0,0.807341037708076
190,2785.0,0.770894621407252
191,2795.0,0.6622882051064278
192,2805.0,0.6943677888056038
193,2815.0,0.7916583725047798
194,2825.0,0.8188889562039556
195,2835.0,0.7901205399031316
196,2845.0,0.7699961236023074
197,2855.0,0.7447837073014834
198,2865.0,0.8011062910006593
199,2875.0,0.8043368746998353
200,2884.0315,0.798643041117746
201,2885.0,0.7980325927605569
202,2895.0,0.7972255637756414
203,2910.0,0.8463555202982681
204,2930.0,0.8148404623284371
205,2950.0,0.796657404358606
206,2970.0,0.802072346388775
207,2990.0,0.7979502884189439
208,3010.0,0.7985972304491128
209,3030.0,0.7966571724792817
210,3050.0,0.7927801145094507
211,3070.0,0.7931830565396196
212,3090.0,0.7891439985697886
213,3110.0,0.7902739405999576
214,3130.0,0.7748398826301265
215,3150.0,0.7728198246602954
216,3170.0,0.7729807666904644
217,3190.0,0.7363757087206333
218,3210.0,0.7547996507508022
219,3230.0,0.7211025927809711
220,3250.0,0.7606995348111402
221,3270.0,0.7817894768413091
222,3290.0,0.7726564188714781
223,3310.0,0.763122360901647
224,3311.31121,0.7626932636286159
225,3330.0,0.7565763215927706
226,3350.0,0.7430802134329108
227,3370.0,0.701866105273051
228,3390.0,0.7108349971131913
229,3410.0,0.7114818889533315
230,3430.0,0.7100247807934718
231,3450.0,0.7130946726336121
232,3470.0,0.7108305644737524
233,3490.0,0.7228704563138926
234,3510.0,0.7325653481540328
235,3530.0,0.708888239994173
236,3550.0,0.7337741318343133
237,3570.0,0.6659770236744535
238,3590.0,0.6597529155145937
239,3610.0,0.688195807354734
240,3630.0,0.6944176991948742
241,3640.0,0.6994271451149444
242,3650.0,0.7378105910350145
243,3670.0,0.7344154828751547
244,3690.0,0.687383374715295
245,3710.0,0.7319882665554353
246,3730.0,0.6742911583955755
247,3750.0,0.7748150502357157
248,3770.0,0.830165942075856
249,3790.0,0.9133988339159962
250,3801.8939600000003,0.950400879153545
251,3810.0,0.9756188193396805
252,3830.0,0.7736789420781236
253,3850.0,0.9772330648165669
254,3870.0,1.02974618755501
255,3890.0,0.8051123102934533
256,3910.0,1.0855144330318967
257,3930.0,0.8737965557703397
258,3950.0,1.012782678508783
259,3970.0,0.685269801247226
260,3990.0,1.1162209239856693
261,4010.0,1.1970300467241124
262,4030.0,1.1857091694625557
263,4050.0,1.171168292200999
264,4070.0,1.1242874149394422
265,4090.0,1.0846965376778854
266,4110.0,0.9432826604163286
267,4130.0,1.124284783154772
268,4150.0,1.145293905893215
269,4170.0,1.1428830286316582
270,4190.0,1.1323721513701015
271,4210.0,1.1331812741085447
272,4230.0,1.1048903968469879
273,4250.0,1.120239519585431
274,4270.0,1.0790386423238743
275,4290.0,1.0563977650623175
276,4310.0,0.9764048878007607
277,4330.0,0.991757010539204
278,4350.0,0.9198361332776471
279,4365.15832,1.0747830575110724
280,4370.0,1.1242745898591433
281,4390.0,1.0790350916356588
282,4410.0,1.0992255934121749
283,4430.0,1.1202360951886905
284,4450.0,1.1250965969652063
285,4470.0,1.144487098741722
286,4490.0,1.1493376005182379
287,4510.0,1.2260981022947537
288,4530.0,1.1372086040712694
289,4550.0,1.149339105847785
290,4570.0,1.199429607624301
291,4590.0,1.1533701094008166
292,4610.0,1.1703506111773325
293,4630.0,1.1412611129538484
294,4650.0,1.1501416147303642
295,4670.0,1.1695421165068798
296,4690.0,1.1477226182833957
297,4710.0,1.1113631200599114
298,4730.0,1.1436836218364272
299,4750.0,1.159844123612943
300,4770.0,1.1493446253894588
301,4790.0,1.1428851271659748
302,4810.0,1.1291356289424905
303,4830.0,1.1339861307190062
304,4850.0,1.017626632495522
305,4870.0,0.8980321342720378
306,4890.0,1.0855076360485536
307,4910.0,1.0968181378250694
308,4930.0,1.076618639601585
309,4950.0,1.109749141378101
310,4970.0,1.0968196431546167
311,4990.0,1.0418701449311325
312,5010.0,0.9966216467076484
313,5011.87234,1.0004037268654604
314,5030.0,1.0370212398761103
315,5050.0,1.0265118424841138
316,5070.0,1.0572324450921171
317,5090.0,1.0160130477001204
318,5110.0,1.0273336503081236
319,5130.0,0.9982452529161272
320,5150.0,0.9699588555241305
321,5170.0,0.9263234581321339
322,5190.0,0.9408700607401372
323,5210.0,0.9764246633481406
324,5230.0,1.010357265956144
325,5250.0,1.0354078685641472
326,5270.0,0.9489524711721508
327,5290.0,1.035409073780154
328,5310.0,1.0685496763881575
329,5330.0,0.9796612789961608
330,5350.0,1.0394608816041642
331,5370.0,1.0330014842121675
332,5390.0,1.011982086820171
333,5410.0,0.9958286894281743
334,5430.0,1.0047132920361777
335,5450.0,1.025723894644181
336,5470.0,1.0039044972521844
337,5490.0,1.0063350998601877
338,5510.0,0.9942117024681911
339,5530.0,1.0127963050761946
340,5550.0,1.020066907684198
341,5570.0,1.0014875102922012
342,5590.0,0.9829001129002046
343,5610.0,1.005518715508208
344,5630.0,0.9958353181162113
345,5650.0,1.0014899207242147
346,5670.0,0.9796715233322181
347,5690.0,0.9998721259402215
348,5710.0,0.9732077285482248
349,5730.0,1.029762331156228
350,5750.0,0.9958389337642315
351,5754.399369999999,0.9972587430180099
352,5770.0,1.0022942635272047
353,5790.0,0.9699797983475223
354,5810.0,0.9974533331678401
355,5830.0,1.0160388679881578
356,5850.0,0.9901854028084754
357,5870.0,0.9861479376287932
358,5890.0,0.9134224724491108
359,5910.0,0.9716050072694286
360,5930.0,0.9732225420897462
361,5950.0,0.9699920769100638
362,5970.0,0.9804976117303816
363,5990.0,0.9643371465506992
364,6010.0,0.951411681371017
365,6030.0,0.9683822161913347
366,6050.0,0.9788887510116523
367,6070.0,0.9748502858319701
368,6090.0,0.9449528206522877
369,6110.0,0.9449543554726054
370,6130.0,0.9037438902929231
371,6150.0,0.9174814251132407
372,6170.0,0.8851609599335585
373,6190.0,0.9247574947538761
374,6210.0,0.9166790295741938
375,6230.0,0.8916295643945116
376,6250.0,0.8649640992148292
377,6270.0,0.8980976340351469
378,6290.0,0.9086031688554645
379,6310.0,0.8867877036757822
380,6330.0,0.8948692384960999
381,6350.0,0.8916387733164176
382,6370.0,0.8867923081367353
383,6390.0,0.898913842957053
384,6410.0,0.8827533777773706
385,6430.0,0.8884119125976884
386,6450.0,0.881142447418006
387,6470.0,0.8787189822383237
388,6490.0,0.8609425170586414
389,6510.0,0.881954051878959
390,6530.0,0.8754915866992767
391,6550.0,0.8367051215195944
392,6570.0,0.7647866563399122
393,6590.0,0.8561011911602299
394,6606.93448,0.8670506320494283
395,6610.0,0.869032492083218
396,6630.0,0.8633755009155825
397,6650.0,0.8617605097479469
398,6670.0,0.8447895185803115
399,6690.0,0.855294527412676
400,6710.0,0.8278195362450405
401,6730.0,0.843981545077405
402,6750.0,0.8302435539097696
403,6770.0,0.833478562742134
404,6790.0,0.8229725715744985
405,6810.0,0.824588580406863
406,6830.0,0.8310545892392276
407,6850.0,0.811658598071592
408,6870.0,0.8213566069039565
409,6890.0,0.8302436157363211
410,6910.0,0.8253966245686856
411,6930.0,0.81893163340105
412,6950.0,0.8156986422334146
413,6970.0,0.8221656510657791
414,6990.0,0.8181236598981436
415,7010.0,0.8036596687305081
416,7030.0,0.8173156775628726
417,7050.0,0.8205476863952371
418,7070.0,0.7995386952276016
419,7090.0,0.7804667040599662
420,7110.0,0.7628517128923308
421,7130.0,0.7500837217246953
422,7150.0,0.7481437305570597
423,7170.0,0.7538807393894242
424,7190.0,0.7369927482217887
425,7210.0,0.7512157570541532
426,7230.0,0.7620427658865178
427,7250.0,0.7652747747188823
428,7270.0,0.7675377835512468
429,7290.0,0.7550137923836113
430,7310.0,0.7714158012159757
431,7330.0,0.7728718100483403
432,7350.0,0.7779628188807048
433,7370.0,0.7930728277130693
434,7390.0,0.7783658365454338
435,7410.0,0.7756998453777983
436,7430.0,0.7903258542101629
437,7450.0,0.7904078630425273
438,7470.0,0.7986488718748919
439,7490.0,0.7961448807072563
440,7510.0,0.8031748895396209
441,7530.0,0.8124658983719854
442,7550.0,0.8173159072043499
443,7570.0,0.8124659160367144
444,7585.77575,0.8013771483285731
445,7590.0,0.7984080549031219
446,7610.0,0.7861256793905406
447,7630.0,0.7723883038779592
448,7650.0,0.7590549283653778
449,7670.0,0.7282675528527963
450,7690.0,0.742977177340215
451,7710.0,0.7300468018276335
452,7730.0,0.7307754263150522
453,7750.0,0.7252810508024707
454,7770.0,0.7310186752898893
455,7790.0,0.737726299777308
456,7810.0,0.7356259242647265
457,7830.0,0.7291615487521451
458,7850.0,0.7198701732395637
459,7870.0,0.7294867977269823
460,7890.0,0.717851422214401
461,7910.0,0.7029840467018196
462,7930.0,0.7047606711892381
463,7950.0,0.6985402956766568
464,7970.0,0.7196329201640753
465,7990.0,0.7189855446514939
466,8010.0,0.7236741691389125
467,8030.0,0.7249667936263311
468,8050.0,0.7241594181137497
469,8070.0,0.7305430426011683
470,8090.0,0.7218976670885868
471,8110.0,0.7275532915760055
472,8130.0,0.745090916063424
473,8150.0,0.7509905405508427
474,8170.0,0.7563241650382613
475,8190.0,0.7370117895256798
476,8210.0,0.7268314140130985
477,8230.0,0.7307910385005171
478,8250.0,0.7300636629879356
479,8270.0,0.7374192874753542
480,8290.0,0.7294189119627729
481,8310.0,0.7054195364501915
482,8330.0,0.7014601609376101
483,8350.0,0.7007347854250287
484,8370.0,0.7042084099124473
485,8390.0,0.6830390343998658
486,8410.0,0.7017066588872843
487,8430.0,0.6720502833747031
488,8450.0,0.6594439078621216
489,8470.0,0.6585565323495403
490,8490.0,0.6670421568369588
491,8510.0,0.6350427813243774
492,8530.0,0.6683354058117961
493,8550.0,0.6180740302992146
494,8570.0,0.6856306547866332
495,8590.0,0.6692272792740518
496,8610.0,0.6740769037614703
497,8630.0,0.696783528248889
498,8650.0,0.6949251527363076
499,8670.0,0.6265627772237261
500,8690.0,0.6803004017111448
501,8709.6359,0.7041026710147691
502,8710.0,0.7045440473891584
503,8730.0,0.7055148358752059
504,8750.0,0.6811126243612533
505,8770.0,0.7076194128473008
506,8790.0,0.7195002013333482
507,8810.0,0.7067329898193956
508,8830.0,0.7123117783054431
509,8850.0,0.7033435667914906
510,8870.0,0.666659355277538
511,8890.0,0.6941351437635854
512,8910.0,0.7050469322496329
513,8930.0,0.6919567207356803
514,8950.0,0.6938165092217278
515,8970.0,0.6950312977077753
516,8990.0,0.6927700861938226
517,9010.0,0.6563278746798701
518,9030.0,0.6863086631659175
519,9050.0,0.715967451651965
520,9070.0,0.7146772401380125
521,9090.0,0.6996470286240599
522,9110.0,0.7088618171101073
523,9130.0,0.7215506055961548
524,9150.0,0.7163003940822023
525,9170.0,0.7145251825682496
526,9190.0,0.7201829710542971
527,9210.0,0.6893957595403446
528,9230.0,0.658529548026392
529,9250.0,0.6707333365124395
530,9270.0,0.6792201249984869
531,9290.0,0.6744539134845343
532,9310.0,0.6793037019705818
533,9330.0,0.6791444904566293
534,9350.0,0.6766412789426767
535,9370.0,0.6657340674287241
536,9390.0,0.6759978559147716
537,9410.0,0.660241644400819
538,9430.0,0.6780224328868665
539,9450.0,0.667519221372914
540,9470.0,0.6818250098589613
541,9490.0,0.6823107983450089
542,9510.0,0.6697875868310563
543,9530.0,0.6676883753171037
544,9550.0,0.6412651638031511
545,9570.0,0.6620349522891986
546,9590.0,0.678441740775246
547,9610.0,0.6696345292612935
548,9630.0,0.6718183177473409
549,9650.0,0.6616381062333884
550,9670.0,0.6606698947194358
551,9690.0,0.6707726832054833
552,9710.0,0.6620474716915307
553,9730.0,0.6561492601775781
554,9750.0,0.6528380486636256
555,9770.0,0.655425837149673
556,9790.0,0.6464586256357205
557,9810.0,0.661166414121768
558,9830.0,0.6543812026078153
559,9850.0,0.6584229910938628
560,9870.0,0.6533327795799103
561,9890.0,0.6522045680659577
562,9910.0,0.6475203565520051
563,9930.0,0.6505921450380526
564,9950.0,0.6510779335241
565,9970.0,0.6510797220101475
566,9990.0,0.648012510496195
567,10000.0,0.6461344047392187
568,10030.0,0.6405000945638555
569,10070.0,0.6295946809967046
570,10130.0,0.6408330606459781
571,10170.0,0.6334016470788272
572,10220.0,0.6340521301198885
573,10280.0,0.6343005097691621
574,10320.0,0.6248490962020111
575,10380.0,0.6197624758512847
576,10430.0,0.6210609588923461
577,10480.0,0.6124994419334073
578,10520.0,0.6087860283662565
579,10580.0,0.59869240801553
580,10630.0,0.5936848910565914
581,10680.0,0.5846393740976527
582,10720.0,0.5866629605305018
583,10780.0,0.5813343401797754
584,10820.0,0.5724489266126245
585,10870.0,0.5696254096536857
586,10920.0,0.5613878926947471
587,10980.0,0.5584842723440206
588,11020.0,0.5588118587768697
589,11080.0,0.5520282384261433
590,11130.0,0.5489617214672046
591,11170.0,0.5441983079000536
592,11220.0,0.543474790941115
593,11280.0,0.5348341705903886
594,11330.0,0.5333036536314498
595,11380.0,0.5295921366725113
596,11430.0,0.5232926197135725
597,11470.0,0.5287922061464216
598,11481.5362,0.5282804564015875
599,11530.0,0.526134588166306
600,11570.0,0.5194344779889931
601,11620.0,0.5113620902673519
602,11670.0,0.5101577025457108
603,11730.0,0.5125110372797413
604,11770.0,0.5014479271024285
605,11830.0,0.4970942618364591
606,11870.0,0.4889391516591462
607,11920.0,0.495897763937505
608,11980.0,0.47974709867153564
609,12030.0,0.48718971094989444
610,12070.0,0.48218760077258155
611,12120.0,0.4817912130509404
612,12180.0,0.482206547784971
613,12230.0,0.4784161600633299
614,12270.0,0.47446304988601695
615,12320.0,0.47059266216437584
616,12370.0,0.46898527444273463
617,12430.0,0.4630166091767653
618,12480.0,0.4612462214551241
619,12530.0,0.45624583373348293
620,12580.0,0.4542344460118418
621,12620.0,0.4514943358345289
622,12670.0,0.44689694811288777
623,12720.0,0.44650056039124664
624,12780.0,0.44505689512527724
625,12830.0,0.42583350740363607
626,12880.0,0.43642711968199493
627,12920.0,0.431829009504682
628,12980.0,0.4353943442387126
629,13020.0,0.4293402340613997
630,13080.0,0.4304005687954303
631,13130.0,0.42160118107378913
632,13180.0,0.41991279335214804
633,13182.5674,0.4198966501714172
634,13230.0,0.41960230064624365
635,13280.0,0.41218101876714197
636,13320.0,0.41259619326386066
637,13380.0,0.4077614550089386
638,13430.0,0.409067173129837
639,13470.0,0.40552234762655565
640,13520.0,0.40254506574745397
641,13570.0,0.39649678386835235
642,13630.0,0.3945730456134303
643,13670.0,0.39555322011014904
644,13730.0,0.395648481855227
645,13770.0,0.3941236563519457
646,13820.0,0.394055374472844
647,13880.0,0.390111636217922
648,13930.0,0.37687135433882035
649,13970.0,0.37469952883553903
650,14020.0,0.3701882469564374
651,14080.0,0.3726275087015154
652,14120.0,0.3675466831982341
653,14180.0,0.37063294494331206
654,14230.0,0.36603866306421035
655,14280.0,0.3603143811851087
656,14330.0,0.36590309930600706
657,14380.0,0.3679358174269054
658,14420.0,0.3582489919236241
659,14480.0,0.3644872536687021
660,14520.0,0.3606184281654207
661,14570.0,0.36240914628631904
662,14620.0,0.3558758644072174
663,14670.0,0.35386758252811573
664,14720.0,0.3499213006490141
