,lambda (Angstroms),Total Flux (erg/s/cm^2/Angstrom)
0,1005.0,2.726631771962172
1,1015.0,2.712900612149075
2,1025.0,1.8732994523359774
3,1035.0,2.2619882925228803
4,1045.0,3.2195571327097827
5,1055.0,3.128235972896685
6,1065.0,2.6506748130835875
7,1075.0,2.93753365327049
8,1085.0,2.5488424934573923
9,1095.0,3.017531333644295
10,1096.4782,3.000452039400723
11,1105.0,2.901988068783038
12,1115.0,2.817934438778011
13,1125.0,2.5464208087729836
14,1135.0,3.014287178767956
15,1145.0,2.817113548762928
16,1155.0,2.9035799187579006
17,1165.0,2.922966288752873
18,1175.0,2.1633726587478455
19,1185.0,2.8090190287428176
20,1195.0,2.27487539873779
21,1205.0,1.8829517687327624
22,1215.0,1.588818138727735
23,1225.0,2.2279845087227077
24,1235.0,2.8081908787176797
25,1245.0,2.948787248712652
26,1255.0,2.8364736187076245
27,1258.92541,2.7441583268118195
28,1265.0,2.6013023506276656
29,1275.0,3.0392826088275515
30,1285.0,3.117682867027438
31,1295.0,2.608583125227324
32,1305.0,2.5972733834272104
33,1315.0,3.032023641627096
34,1325.0,2.9075738998269824
35,1335.0,2.657074158026869
36,1345.0,2.975454416226755
37,1355.0,2.889804674426641
38,1365.0,2.642524932626527
39,1375.0,2.6999051908264136
40,1385.0,2.6869654490262995
41,1395.0,2.302325707226186
42,1405.0,2.3580859654260715
43,1415.0,2.480106223625958
44,1425.0,2.492236481825844
45,1435.0,2.48980674002573
46,1442.0,2.5730369207656505
47,1445.43977,2.5841543462204726
48,1447.0,2.589197043391361
49,1455.0,2.5091972167549725
50,1465.0,2.333847433459487
51,1475.0,2.3225376501640014
52,1485.0,2.330617866868515
53,1495.0,2.3306180835730292
54,1505.0,2.200518300277544
55,1512.0,1.9952684519707038
56,1517.0,2.090618560322961
57,1525.0,2.0356687336865726
58,1535.0,1.7924289503910866
59,1545.0,1.860319167095601
60,1555.0,1.7811193838001151
61,1565.0,1.8295996005046293
62,1575.0,1.9201098172091438
63,1585.0,1.980720033913658
64,1595.0,1.9976902506181722
65,1605.0,1.9629404673226865
66,1615.0,1.9540506840272007
67,1625.0,1.8732409007317148
68,1635.0,1.9637511174362292
69,1645.0,1.9774913341407436
70,1655.0,1.8643515508452577
71,1659.58691,1.913280219215668
72,1665.0,1.9710225068955767
73,1672.0,1.8005236146823231
74,1677.0,1.9791144059585706
75,1685.0,2.0178956720005665
76,1695.0,1.9079972545530612
77,1705.0,1.8401188371055563
78,1715.0,1.7439604196580512
79,1725.0,1.719722002210546
80,1735.0,1.790833584763041
81,1745.0,1.7415451673155358
82,1755.0,1.8061867498680308
83,1765.0,1.6825583324205258
84,1775.0,1.6777199149730206
85,1785.0,1.6898314975255155
86,1795.0,1.7544830800780105
87,1805.0,1.7326646626305053
88,1815.0,1.5977162451830003
89,1825.0,1.6154878277354952
90,1835.0,1.5516594102879901
91,1845.0,1.432060992840485
92,1855.0,1.4215525753929799
93,1865.0,1.441764157945475
94,1875.0,1.5209557404979697
95,1885.0,1.4005473230504648
96,1895.0,1.3351089056029597
97,1905.0,1.3965204881554545
98,1905.46072,1.393691279546813
99,1915.0,1.3351086151225922
100,1925.0,1.2971265751948184
101,1935.0,1.3270245352670451
102,1945.0,1.3585424953392715
103,1955.0,1.2664204554114982
104,1967.0,1.35448800749817
105,1976.0,1.3811461715631739
106,1984.0,1.3076245396209552
107,1995.0,1.2696422957004043
108,2005.0,1.2962902557726308
109,2015.0,1.2550782158448572
110,2025.0,1.294676175917084
111,2035.0,1.2211441359893105
112,2045.0,1.251042096061537
113,2055.0,1.1920500561337637
114,2065.0,1.19446801620599
115,2074.0,1.260726180270994
116,2078.0,1.1952753642998846
117,2085.0,1.2308239363504432
118,2095.0,1.1661718964226697
119,2105.0,1.1718298564948963
120,2115.0,1.1734478165671227
121,2125.0,1.1791057766393493
122,2135.0,1.1112237367115758
123,2145.0,1.1160716967838025
124,2155.0,1.145149656856029
125,2165.0,1.1120176169282554
126,2175.0,1.096665577000482
127,2185.0,1.0732335370727084
128,2187.7616199999998,1.0819348383421739
129,2195.0,1.104744150986162
130,2205.0,1.0756457774053152
131,2215.0,1.0304074038244684
132,2225.0,1.0013190302436217
133,2235.0,1.046570656662775
134,2245.0,1.0142422830819284
135,2255.0,0.9819289095010816
136,2265.0,0.998096535920235
137,2275.0,1.0142471623393883
138,2285.0,1.0320287887585415
139,2295.0,0.9803184151776948
140,2305.0,0.9867860415968481
141,2315.0,0.9504226680160014
142,2325.0,0.7942242944351546
143,2335.0,0.899517920854308
144,2345.0,0.8817415472734612
145,2355.0,0.9278041736926146
146,2365.0,0.8752808001117678
147,2375.0,0.8898264265309211
148,2385.0,0.8445760529500744
149,2395.0,0.8817496793692277
150,2405.0,0.8542753057883811
151,2415.0,0.8663999322075343
152,2425.0,0.9011475586266876
153,2435.0,0.8720581850458409
154,2445.0,0.9084238114649941
155,2455.0,0.8971144378841475
156,2465.0,0.8898410643033007
157,2475.0,0.8639846907224541
158,2485.0,0.8761093171416073
159,2495.0,0.8163109435607607
160,2505.0,0.8987365699799139
161,2511.88643,0.8361348764795788
162,2513.0,0.8260116199065185
163,2518.0,0.8454033051730021
164,2525.0,0.818737864546079
165,2535.0,0.8243942350790461
166,2545.0,0.8098476056120132
167,2555.0,0.8510589761449803
168,2565.0,0.8324733466779473
169,2575.0,0.8647947172109145
170,2585.0,0.8542880877438815
171,2595.0,0.8429744582768486
172,2605.0,0.8195398288098156
173,2615.0,0.8082271993427826
174,2625.0,0.8316605698757499
175,2635.0,0.8502459404087169
176,2645.0,0.899538310941684
177,2655.0,0.914891681474651
178,2665.0,0.843779052007618
179,2675.0,0.8704464225405852
180,2685.0,0.8704457930735523
181,2695.0,0.8316561636065194
182,2705.0,0.8478175341394865
183,2715.0,0.8114529046724535
184,2725.0,0.8063602752054206
185,2735.0,0.8348866457383877
186,2745.0,0.7510880162713548
187,2755.0,0.7624823868043218
188,2765.0,0.7825207573372889
189,2775.0,0.807167127870256
190,2785.0,0.7707214984032231
191,2795.0,0.6621158689361901
192,2805.0,0.6941962394691572
193,2815.0,0.7914876100021243
194,2825.0,0.8187189805350913
195,2835.0,0.7899513510680585
196,2845.0,0.7698277216010255
197,2855.0,0.7446160921339926
198,2865.0,0.8009394626669597
199,2875.0,0.8041708331999268
200,2884.0315,0.7984777102467759
201,2885.0,0.7978672634491364
202,2895.0,0.7970602505669517
203,2910.0,0.8461902312436747
204,2930.0,0.8146752054793054
205,2950.0,0.7964921797149359
206,2970.0,0.8019071539505667
207,2990.0,0.7977851281861972
208,3010.0,0.7984321024218279
209,3030.0,0.7964920766574585
210,3050.0,0.7926150508930893
211,3070.0,0.7930180251287198
212,3090.0,0.7889789993643505
213,3110.0,0.7901089735999812
214,3130.0,0.7746749478356117
215,3150.0,0.7726549220712424
216,3170.0,0.7728158963068731
217,3190.0,0.7362108705425038
218,3210.0,0.7546348447781344
219,3230.0,0.720937819013765
220,3250.0,0.7605347932493957
221,3270.0,0.7816247674850263
222,3290.0,0.7724917417206569
223,3310.0,0.7629577159562876
224,3311.31121,0.7625286207946627
225,3330.0,0.7564122540412314
226,3350.0,0.742916761525738
227,3370.0,0.7017032690102449
228,3390.0,0.7106727764947517
229,3410.0,0.7113202839792585
230,3430.0,0.7098637914637652
231,3450.0,0.7129342989482721
232,3470.0,0.7106708064327788
233,3490.0,0.7227113139172856
234,3510.0,0.7324068214017924
235,3530.0,0.7087303288862992
236,3550.0,0.7336168363708059
237,3570.0,0.6658203438553127
238,3590.0,0.6595968513398194
239,3610.0,0.6880403588243262
240,3630.0,0.6942628663088329
241,3640.0,0.6992726200510864
242,3650.0,0.7376563737933398
243,3670.0,0.7342618812778465
244,3690.0,0.6872303887623534
245,3710.0,0.7318358962468601
246,3730.0,0.6741394037313669
247,3750.0,0.7746639112158736
248,3770.0,0.8300154187003804
249,3790.0,0.9132489261848872
250,3801.8939600000003,0.9502513375449095
251,3810.0,0.9754694752620803
252,3830.0,0.7735300853680549
253,3850.0,0.9770846954740298
254,3870.0,1.0295983055800044
255,3890.0,0.8049649156859792
256,3910.0,1.085367525791954
257,3930.0,0.8736501358979287
258,3950.0,1.0126367460039036
259,3970.0,0.6851243561098782
260,3990.0,1.116075966215853
261,4010.0,1.1968855763218278
262,4030.0,1.1855651864278025
263,4050.0,1.1710247965337772
264,4070.0,1.1241444066397521
265,4090.0,1.0845540167457268
266,4110.0,0.9431406268517015
267,4130.0,1.1241432369576765
268,4150.0,1.1451528470636512
269,4170.0,1.1427424571696259
270,4190.0,1.1322320672756006
271,4210.0,1.1330416773815755
272,4230.0,1.1047512874875502
273,4250.0,1.120100897593525
274,4270.0,1.0789005076994995
275,4290.0,1.0562601178054745
276,4310.0,0.9762677279114492
277,4330.0,0.991620338017424
278,4350.0,0.9196999481233987
279,4365.15832,1.074647241740474
280,4370.0,1.1241387066040638
281,4390.0,1.0788989296158482
282,4410.0,1.0990891526276332
283,4430.0,1.120099375639418
284,4450.0,1.1249595986512027
285,4470.0,1.1443498216629875
286,4490.0,1.1492000446747723
287,4510.0,1.2259602676865573
288,4530.0,1.137070490698342
289,4550.0,1.1492007137101268
290,4570.0,1.1992909367219116
291,4590.0,1.1532311597336962
292,4610.0,1.170211382745481
293,4630.0,1.141121605757266
294,4650.0,1.1500018287690508
295,4670.0,1.1694020517808354
296,4690.0,1.1475822747926203
297,4710.0,1.1112224978044052
298,4730.0,1.14354272081619
299,4750.0,1.1597029438279747
300,4770.0,1.1492031668397595
301,4790.0,1.1427433898515442
302,4810.0,1.128993612863329
303,4830.0,1.1338438358751137
304,4850.0,1.0174840588868987
305,4870.0,0.8978892818986834
306,4890.0,1.0853645049104683
307,4910.0,1.096674727922253
308,4930.0,1.0764749509340379
309,4950.0,1.1096051739458228
310,4970.0,1.0966753969576075
311,4990.0,1.0417256199693923
312,5010.0,0.9964768429811771
313,5011.87234,1.000258897041871
314,5030.0,1.0368761066116046
315,5050.0,1.0263663744373839
316,5070.0,1.057086642263163
317,5090.0,1.0158669100889424
318,5110.0,1.0271871779147217
319,5130.0,0.998098445740501
320,5150.0,0.9698117135662802
321,5170.0,0.9261759813920596
322,5190.0,0.9407222492178388
323,5210.0,0.9762765170436181
324,5230.0,1.0102087848693972
325,5250.0,1.0352590526951766
326,5270.0,0.9488033205209558
327,5290.0,1.035259588346735
328,5310.0,1.0683998561725143
329,5330.0,0.9795111239982938
330,5350.0,1.0393103918240731
331,5370.0,1.0328506596498521
332,5390.0,1.0118309274756316
333,5410.0,0.9956771953014107
334,5430.0,1.00456146312719
335,5450.0,1.0255717309529693
336,5470.0,1.0037519987787487
337,5490.0,1.006182266604528
338,5510.0,0.9940585344303072
339,5530.0,1.0126428022560865
340,5550.0,1.0199130700818657
341,5570.0,1.001333337907645
342,5590.0,0.9827456057334243
343,5610.0,1.0053638735592034
344,5630.0,0.9956801413849828
345,5650.0,1.001334409210762
346,5670.0,0.9795156770365414
347,5690.0,0.9997159448623206
348,5710.0,0.9730512126880999
349,5730.0,1.0296054805138792
350,5750.0,0.9956817483396585
351,5754.399369999999,0.9971014839518931
352,5770.0,1.0021363393454243
353,5790.0,0.9698210214877877
354,5810.0,0.9972937036301511
355,5830.0,1.0158783857725144
356,5850.0,0.990024067914878
357,5870.0,0.9859857500572413
358,5890.0,0.9132594321996048
359,5910.0,0.9714411143419682
360,5930.0,0.9730577964843317
361,5950.0,0.969826478626695
362,5970.0,0.9803311607690585
363,5990.0,0.9641698429114219
364,6010.0,0.9512435250537853
365,6030.0,0.9682132071961488
366,6050.0,0.9787188893385121
367,6070.0,0.9746795714808756
368,6090.0,0.9447812536232391
369,6110.0,0.9447819357656024
370,6130.0,0.9035706179079658
371,6150.0,0.9173073000503292
372,6170.0,0.8849859821926926
373,6190.0,0.9245816643350561
374,6210.0,0.9165023464774195
375,6230.0,0.8914520286197829
376,6250.0,0.8647857107621464
377,6270.0,0.8979183929045097
378,6290.0,0.908423075046873
379,6310.0,0.8866067571892365
380,6330.0,0.8946874393315999
381,6350.0,0.8914561214739635
382,6370.0,0.8866088036163268
383,6390.0,0.8987294857586902
384,6410.0,0.8825681679010536
385,6430.0,0.888225850043417
386,6450.0,0.8809555321857805
387,6470.0,0.8785312143281439
388,6490.0,0.8607538964705073
389,6510.0,0.8817645786128707
390,6530.0,0.8753012607552341
391,6550.0,0.8365139428975975
392,6570.0,0.764594625039961
393,6590.0,0.8559083071823244
394,6606.93448,0.8668570260886348
395,6610.0,0.8688388853703192
396,6630.0,0.8631818892958144
397,6650.0,0.8615668932213097
398,6670.0,0.8445958971468052
399,6690.0,0.8551009010723004
400,6710.0,0.8276259049977958
401,6730.0,0.8437879089232911
402,6750.0,0.8300499128487865
403,6770.0,0.8332849167742818
404,6790.0,0.8227789206997772
405,6810.0,0.8243949246252724
406,6830.0,0.8308609285507679
407,6850.0,0.8114649324762632
408,6870.0,0.8211629364017584
409,6890.0,0.8300499403272539
410,6910.0,0.8252029442527492
411,6930.0,0.8187379481782444
412,6950.0,0.8155049521037399
413,6970.0,0.8219719560292352
414,6990.0,0.8179299599547305
415,7010.0,0.8034659638802258
416,7030.0,0.8171219678057212
417,7050.0,0.8203539717312165
418,7070.0,0.7993449756567118
419,7090.0,0.7802729795822072
420,7110.0,0.7626579835077025
421,7130.0,0.7498899874331979
422,7150.0,0.7479499913586932
423,7170.0,0.7536869952841885
424,7190.0,0.7367989992096838
425,7210.0,0.7510220031351792
426,7230.0,0.7618490070606745
427,7250.0,0.7650810109861699
428,7270.0,0.7673440149116653
429,7290.0,0.7548200188371605
430,7310.0,0.7712220227626558
431,7330.0,0.7726780266881512
432,7350.0,0.7777690306136466
433,7370.0,0.7928790345391419
434,7390.0,0.7781720384646372
435,7410.0,0.7755060423901325
436,7430.0,0.790132046315628
437,7450.0,0.7902140502411232
438,7470.0,0.7984550541666185
439,7490.0,0.7959510580921139
440,7510.0,0.8029810620176093
441,7530.0,0.8122720659431045
442,7550.0,0.8171220698685999
443,7570.0,0.8122720737940953
444,7585.77575,0.801183302215477
445,7590.0,0.7982141355124986
446,7610.0,0.7859314130624625
447,7630.0,0.7721936906124263
448,7650.0,0.7588599681623902
449,7670.0,0.728072245712354
450,7690.0,0.7427815232623177
451,7710.0,0.7298508008122815
452,7730.0,0.7305790783622454
453,7750.0,0.7250843559122092
454,7770.0,0.730821633462173
455,7790.0,0.7375289110121369
456,7810.0,0.7354281885621007
457,7830.0,0.7289634661120645
458,7850.0,0.7196717436620282
459,7870.0,0.7292880212119922
460,7890.0,0.717652298761956
461,7910.0,0.7027845763119198
462,7930.0,0.7045608538618836
463,7950.0,0.6983401314118475
464,7970.0,0.7194324089618113
465,7990.0,0.7187846865117751
466,8010.0,0.7234729640617389
467,8030.0,0.7247652416117027
468,8050.0,0.7239575191616665
469,8070.0,0.7303407967116303
470,8090.0,0.7216950742615942
471,8110.0,0.7273503518115579
472,8130.0,0.7448876293615218
473,8150.0,0.7507869069114856
474,8170.0,0.7561201844614495
475,8190.0,0.7368074620114132
476,8210.0,0.726626739561377
477,8230.0,0.730586017111341
478,8250.0,0.7298582946613047
479,8270.0,0.7372135722112685
480,8290.0,0.7292128497612325
481,8310.0,0.7052131273111962
482,8330.0,0.7012534048611601
483,8350.0,0.7005276824111238
484,8370.0,0.7040009599610877
485,8390.0,0.6828312375110515
486,8410.0,0.7014985150610152
487,8430.0,0.6718417926109791
488,8450.0,0.659235070160943
489,8470.0,0.6583473477109067
490,8490.0,0.6668326252608705
491,8510.0,0.6348329028108345
492,8530.0,0.6681251803607983
493,8550.0,0.617863457910762
494,8570.0,0.6854197354607259
495,8590.0,0.6690160130106897
496,8610.0,0.6738652905606535
497,8630.0,0.6965715681106173
498,8650.0,0.6947128456605812
499,8670.0,0.626350123210545
500,8690.0,0.6800874007605088
501,8709.6359,0.7038893294426747
502,8710.0,0.7043306877285148
503,8730.0,0.7053004826112026
504,8750.0,0.6808972774938904
505,8770.0,0.7074030723765782
506,8790.0,0.7192828672592658
507,8810.0,0.7065146621419536
508,8830.0,0.7120924570246414
509,8850.0,0.7031232519073292
510,8870.0,0.6664380467900168
511,8890.0,0.6939128416727046
512,8910.0,0.7048236365553924
513,8930.0,0.6917324314380802
514,8950.0,0.6935912263207679
515,8970.0,0.6948050212034557
516,8990.0,0.6925428160861434
517,9010.0,0.6560996109688312
518,9030.0,0.6860794058515188
519,9050.0,0.7157372007342067
520,9070.0,0.7144459956168945
521,9090.0,0.6994147904995821
522,9110.0,0.7086285853822699
523,9130.0,0.7213163802649577
524,9150.0,0.7160651751476454
525,9170.0,0.7142889700303331
526,9190.0,0.7199457649130209
527,9210.0,0.6891575597957087
528,9230.0,0.6582903546783965
529,9250.0,0.6704931495610842
530,9270.0,0.6789789444437719
531,9290.0,0.6742117393264597
532,9310.0,0.6790605342091475
533,9330.0,0.6789003290918352
534,9350.0,0.676396123974523
535,9370.0,0.6654879188572107
536,9390.0,0.6757507137398985
537,9410.0,0.6599935086225862
538,9430.0,0.677773303505274
539,9450.0,0.6672690983879618
540,9470.0,0.6815738932706495
541,9490.0,0.6820586881533373
542,9510.0,0.669534483036025
543,9530.0,0.6674342779187128
544,9550.0,0.6410100728014005
545,9570.0,0.6617788676840882
546,9590.0,0.678184662566776
547,9610.0,0.6693764574494638
548,9630.0,0.6715592523321515
549,9650.0,0.6613780472148393
550,9670.0,0.660408842097527
551,9690.0,0.6705106369802148
552,9710.0,0.6617844318629026
553,9730.0,0.6558852267455902
554,9750.0,0.652573021628278
555,9770.0,0.6551598165109658
556,9790.0,0.6461916113936536
557,9810.0,0.6608984062763413
558,9830.0,0.654112201159029
559,9850.0,0.6581529960417168
560,9870.0,0.6530617909244045
561,9890.0,0.6519325858070923
562,9910.0,0.64724738068978
563,9930.0,0.6503181755724678
564,9950.0,0.6508029704551556
565,9970.0,0.6508037653378433
566,9990.0,0.6477355602205311
567,10000.0,0.6458569576618749
568,10030.0,0.6402211531394912
569,10070.0,0.6293137471096465
570,10130.0,0.6405491380648791
571,10170.0,0.6331157320350342
572,10220.0,0.6337637244977282
573,10280.0,0.6340091154529609
574,10320.0,0.6245557094231161
575,10380.0,0.6194661003783488
576,10430.0,0.6207620928410428
577,10480.0,0.6121980853037365
578,10520.0,0.6084826792738918
579,10580.0,0.5983860702291245
580,10630.0,0.5933760626918184
581,10680.0,0.5843280551545124
582,10720.0,0.5863496491246675
583,10780.0,0.5810180400799001
584,10820.0,0.5721306340500554
585,10870.0,0.5693046265127492
586,10920.0,0.5610646189754431
587,10980.0,0.5581580099306758
588,11020.0,0.558483603900831
589,11080.0,0.5516969948560637
590,11130.0,0.5486279873187576
591,11170.0,0.5438625812889127
592,11220.0,0.5431365737516066
593,11280.0,0.5344929647068394
594,11330.0,0.5329599571695333
595,11380.0,0.5292459496322273
596,11430.0,0.5229439420949212
597,11470.0,0.5284415360650763
598,11481.5362,0.5279292116840388
599,11530.0,0.5257787058516916
600,11570.0,0.519074767995108
601,11620.0,0.5109975956743786
602,11670.0,0.5097884233536492
603,11730.0,0.5121360165687739
604,11770.0,0.5010690787121905
605,11830.0,0.4967096719273152
606,11870.0,0.48855073407073163
607,11920.0,0.49550456175000224
608,11980.0,0.47934815496512695
609,12030.0,0.48678598264439754
610,12070.0,0.481780044787814
611,12120.0,0.4813788724670846
612,12180.0,0.48178846568220934
613,12230.0,0.47799329336147994
614,12270.0,0.4740363555048964
615,12320.0,0.47016118318416705
616,12370.0,0.46854901086343764
617,12430.0,0.4625746040785623
618,12480.0,0.46079943175783294
619,12530.0,0.4557942594371035
620,12580.0,0.45377808711637413
621,12620.0,0.45103414925979063
622,12670.0,0.4464319769390612
623,12720.0,0.44603080461833183
624,12780.0,0.44458139783345657
625,12830.0,0.42535322551272714
626,12880.0,0.43594205319199775
627,12920.0,0.4313401153354142
628,12980.0,0.43489970855053894
629,13020.0,0.42884177069395546
630,13080.0,0.42989636390908015
631,13130.0,0.4210921915883507
632,13180.0,0.41939901926762135
633,13182.5674,0.41938263040729656
634,13230.0,0.4190815780649972
635,13280.0,0.4116532305631742
636,13320.0,0.4120627525617158
637,13380.0,0.4072195355595283
638,13430.0,0.40851818805770534
639,13470.0,0.40496771005624693
640,13520.0,0.401983362554424
641,13570.0,0.39592801505260106
642,13630.0,0.39399579805041346
643,13670.0,0.39497032004895516
644,13730.0,0.39505710304676755
645,13770.0,0.39352662504530916
646,13820.0,0.3934512775434862
647,13880.0,0.3894990605412987
648,13930.0,0.3762517130394757
649,13970.0,0.37407423503801734
650,14020.0,0.3695558875361944
651,14080.0,0.37198667053400686
652,14120.0,0.36690019253254846
653,14180.0,0.36997797553036094
654,14230.0,0.36537662802853793
655,14280.0,0.35964528052671496
656,14330.0,0.36522693302489206
657,14380.0,0.36725258552306905
658,14420.0,0.3575601075216107
659,14480.0,0.3637898905194231
660,14520.0,0.3599154125179648
661,14570.0,0.3616990650161418
662,14620.0,0.3551587175143188
663,14670.0,0.3531433700124959
