,lambda (Angstroms),Total Flux (erg/s/cm^2/Angstrom)
0,1005.0,7.072650728299487
1,1015.0,7.004899480852814
2,1025.0,6.111278233406144
3,1035.0,6.445946985959472
4,1045.0,7.3494957385128
5,1055.0,7.204154491066129
6,1065.0,6.672573243619457
7,1075.0,6.905411996172786
8,1085.0,6.462700748726114
9,1095.0,6.877369501279443
10,1096.4782,6.852304957681875
11,1105.0,6.716152178093142
12,1115.0,6.587872200402122
13,1125.0,6.272132222711104
14,1135.0,6.695772245020084
15,1145.0,6.454372267329065
16,1155.0,6.496612289638046
17,1165.0,6.471772311947026
18,1175.0,5.6679523342560065
19,1185.0,6.269372356564987
20,1195.0,5.691002378873968
21,1205.0,5.254852401182949
22,1215.0,4.916492423491929
23,1225.0,5.51143244580091
24,1235.0,6.04741246810989
25,1245.0,6.143782490418872
26,1255.0,5.987242512727852
27,1258.92541,5.87756656608504
28,1265.0,5.715556755805608
29,1275.0,6.122005940969654
30,1285.0,6.168875126133701
31,1295.0,5.628244311297746
32,1305.0,5.585403496461793
33,1315.0,5.988622681625839
34,1325.0,5.832641866789885
35,1335.0,5.550611051953932
36,1345.0,5.837460237117979
37,1355.0,5.720279422282024
38,1365.0,5.441468607446071
39,1375.0,5.4673177926101175
40,1385.0,5.422846977774164
41,1395.0,5.006676162938209
42,1405.0,5.030905348102255
43,1415.0,5.121394533266303
44,1425.0,5.101993718430348
45,1435.0,5.0680329035943945
46,1442.0,5.129191333209227
47,1445.43977,5.129462794754399
48,1447.0,5.131071566467902
49,1455.0,5.0334644616359325
50,1465.0,4.83610558059597
51,1475.0,4.802786699556009
52,1485.0,4.788857818516046
53,1495.0,4.766848937476084
54,1505.0,4.614740056436123
55,1512.0,4.394083839708149
56,1517.0,4.478429399188168
57,1525.0,4.4058722943561985
58,1535.0,4.140623413316236
59,1545.0,4.186504532276275
60,1555.0,4.085295651236312
61,1565.0,4.1117667701963505
62,1575.0,4.180267889156388
63,1585.0,4.218869008116426
64,1595.0,4.213830127076465
65,1605.0,4.1570712460365025
66,1615.0,4.12617236499654
67,1625.0,4.023353483956578
68,1635.0,4.091854602916617
69,1645.0,4.083585721876654
70,1655.0,3.9484368408366923
71,1659.58691,3.987270134153591
72,1665.0,4.036667461733698
73,1672.0,3.855377187759081
74,1677.0,4.026259849205784
75,1685.0,4.052708107520509
76,1695.0,3.927393430413914
77,1705.0,3.8440987533073194
78,1715.0,3.7325240762007255
79,1725.0,3.692869399094131
80,1735.0,3.7485647219875364
81,1745.0,3.6838600448809418
82,1755.0,3.733085367774347
83,1765.0,3.594040690667753
84,1775.0,3.5737860135611585
85,1785.0,3.570481336454564
86,1795.0,3.6197166593479695
87,1805.0,3.582481982241375
88,1815.0,3.4321173051347804
89,1825.0,3.4344726280281863
90,1835.0,3.3552279509215914
91,1845.0,3.2202132738149976
92,1855.0,3.194288596708403
93,1865.0,3.1990839196018084
94,1875.0,3.262859242495214
95,1885.0,3.1270345653886196
96,1895.0,3.046179888282025
97,1905.0,3.09217521117543
98,1905.46072,3.088635744651775
99,1915.0,3.0192793261295305
100,1925.0,2.970003190527845
101,1935.0,2.9886070549261596
102,1945.0,3.0088309193244736
103,1955.0,2.905414783722788
104,1967.0,2.979929421000765
105,1976.0,2.9964228989592483
106,1984.0,2.913865990477899
107,1995.0,2.8634602413160453
108,2005.0,2.8788141057143593
109,2015.0,2.8263079701126737
110,2025.0,2.854611834510988
111,2035.0,2.7697856989093026
112,2045.0,2.788389563307617
113,2055.0,2.7181034277059313
114,2065.0,2.709227292104245
115,2074.0,2.7653207700627283
116,2078.0,2.695352315822054
117,2085.0,2.722995020900874
118,2095.0,2.647048885299189
119,2105.0,2.641412749697503
120,2115.0,2.6317366140958174
121,2125.0,2.6261004784941315
122,2135.0,2.546924342892446
123,2145.0,2.5404782072907603
124,2155.0,2.5582620716890747
125,2165.0,2.513835936087389
126,2175.0,2.4871898004857034
127,2185.0,2.452463664884018
128,2187.7616199999998,2.4580459661039846
129,2195.0,2.4753222531041716
130,2205.0,2.438579868510086
131,2215.0,2.385697483916
132,2225.0,2.3489650993219144
133,2235.0,2.386572714727829
134,2245.0,2.346600330133743
135,2255.0,2.3066429455396578
136,2265.0,2.3151665609455723
137,2275.0,2.3236731763514866
138,2285.0,2.333810791757401
139,2295.0,2.2744564071633153
140,2305.0,2.27328002256923
141,2315.0,2.229272637975144
142,2325.0,2.0654302533810585
143,2335.0,2.163079868786973
144,2345.0,2.1376594841928873
145,2355.0,2.1760780995988016
146,2365.0,2.1159107150047163
147,2375.0,2.1228123304106306
148,2385.0,2.0699179458165453
149,2395.0,2.0994475612224592
150,2405.0,2.064329176628374
151,2415.0,2.0688097920342883
152,2425.0,2.0959134074402024
153,2435.0,2.059180022846117
154,2445.0,2.0879016382520312
155,2455.0,2.068948253657946
156,2465.0,2.05403086906386
157,2475.0,2.0205304844697745
158,2485.0,2.025011099875689
159,2495.0,1.9575687152816035
160,2505.0,2.0323503306875175
161,2511.88643,1.9644846425109928
162,2513.0,1.953727364229906
163,2518.0,1.9702722517736295
164,2525.0,1.9396212943348425
165,2535.0,1.9395840694222901
166,2545.0,1.9193438445097373
167,2555.0,1.9548616195971849
168,2565.0,1.9305823946846319
169,2575.0,1.9572101697720796
170,2585.0,1.9410099448595268
171,2595.0,1.9240027199469742
172,2605.0,1.8948744950344216
173,2615.0,1.8778682701218687
174,2625.0,1.8956080452093165
175,2635.0,1.9084998202967638
176,2645.0,1.9520985953842112
177,2655.0,1.9617583704716584
178,2665.0,1.8849521455591058
179,2675.0,1.905925920646553
180,2685.0,1.9002316957340006
181,2695.0,1.855748470821448
182,2705.0,1.8662162459088953
183,2715.0,1.8241580209963426
184,2725.0,1.8133717960837896
185,2735.0,1.8362045711712374
186,2745.0,1.7467123462586849
187,2755.0,1.752413121346132
188,2765.0,1.7667578964335795
189,2775.0,1.7857106715210267
190,2785.0,1.743571446608474
191,2795.0,1.6292722216959215
192,2805.0,1.655658996783369
193,2815.0,1.7472567718708163
194,2825.0,1.7687945469582635
195,2835.0,1.734333322045711
196,2845.0,1.7085160971331583
197,2855.0,1.6776108722206056
198,2865.0,1.7282406473080532
199,2875.0,1.7257784223955006
200,2884.0315,1.7149431287157286
201,2885.0,1.7139432017915595
202,2895.0,1.7091147110928593
203,2910.0,1.7522124750448094
204,2930.0,1.7126544936474093
205,2950.0,1.686428512250009
206,2970.0,1.6838005308526087
207,2990.0,1.6716355494552086
208,3010.0,1.6642395680578086
209,3030.0,1.6542565866604084
210,3050.0,1.6423366052630084
211,3070.0,1.6346966238656082
212,3090.0,1.622614642468208
213,3110.0,1.615701661070808
214,3130.0,1.5922246796734076
215,3150.0,1.5821616982760074
216,3170.0,1.5742797168786073
217,3190.0,1.5296317354812072
218,3210.0,1.5400127540838071
219,3230.0,1.498272772686407
220,3250.0,1.529826791289007
221,3270.0,1.5428738098916066
222,3290.0,1.5256978284942064
223,3310.0,1.5081208470968064
224,3311.31121,1.507164451742402
225,3330.0,1.4957250597696934
226,3350.0,1.4765330773056506
227,3370.0,1.4296230948416082
228,3390.0,1.4328961123775656
229,3410.0,1.427847129913523
230,3430.0,1.4206941474494803
231,3450.0,1.4180681649854376
232,3470.0,1.4101081825213952
233,3490.0,1.4164522000573525
234,3510.0,1.42045121759331
235,3530.0,1.3910782351292674
236,3550.0,1.4102682526652248
237,3570.0,1.3367752702011821
238,3590.0,1.3248552877371393
239,3610.0,1.3476023052730968
240,3630.0,1.3481283228090541
241,3640.0,1.350289831577033
242,3650.0,1.3858253403450118
243,3670.0,1.3767343578809692
244,3690.0,1.3240063754169267
245,3710.0,1.3629153929528839
246,3730.0,1.2995224104888414
247,3750.0,1.3943504280247987
248,3770.0,1.444005445560756
249,3790.0,1.5215424630967136
250,3801.8939600000003,1.5551571832773134
251,3810.0,1.5787361589479048
252,3830.0,1.37275247110672
253,3850.0,1.5722627832655358
254,3870.0,1.6207320954243511
255,3890.0,1.3920544075831667
256,3910.0,1.6684127197419825
257,3930.0,1.452651031900798
258,3950.0,1.5875933440596135
259,3970.0,1.2560366562184289
260,3990.0,1.6829439683772445
261,4010.0,1.7597092805360597
262,4030.0,1.7443445926948753
263,4050.0,1.725759904853691
264,4070.0,1.6748352170125067
265,4090.0,1.631200529171322
266,4110.0,1.4857428413301377
267,4130.0,1.6627011534889533
268,4150.0,1.679666465647769
269,4170.0,1.6732117778065843
270,4190.0,1.6586570899653998
271,4210.0,1.6554224021242154
272,4230.0,1.623087714283031
273,4250.0,1.6343930264418463
274,4270.0,1.589148338600662
275,4290.0,1.5624636507594774
276,4310.0,1.478426962918293
277,4330.0,1.4897352750771087
278,4350.0,1.4137705872359243
279,4365.15832,1.5656526427300803
280,4370.0,1.614454155272581
281,4390.0,1.5663643249099626
282,4410.0,1.5837044945473444
283,4430.0,1.601864664184726
284,4450.0,1.6038748338221076
285,4470.0,1.6204150034594893
286,4490.0,1.6224151730968712
287,4510.0,1.696325342734253
288,4530.0,1.6045855123716346
289,4550.0,1.6138656820090163
290,4570.0,1.661105851646398
291,4590.0,1.6121960212837796
292,4610.0,1.6263261909211613
293,4630.0,1.594386360558543
294,4650.0,1.600416530195925
295,4670.0,1.6169666998333065
296,4690.0,1.5922968694706883
297,4710.0,1.55308703910807
298,4730.0,1.5825572087454516
299,4750.0,1.5958673783828332
300,4770.0,1.5825175480202152
301,4790.0,1.573207717657597
302,4810.0,1.5566078872949787
303,4830.0,1.5586080569323602
304,4850.0,1.439398226569742
305,4870.0,1.3169533962071236
306,4890.0,1.5015785658445053
307,4910.0,1.5100387354818872
308,4930.0,1.4869889051192688
309,4950.0,1.5172690747566504
310,4970.0,1.5014892443940322
311,4990.0,1.4436894140314138
312,5010.0,1.3955905836687956
313,5011.87234,1.3991058242827383
314,5030.0,1.4338969396694818
315,5050.0,1.4213725026927775
316,5070.0,1.4500780657160728
317,5090.0,1.4068436287393682
318,5110.0,1.4161491917626636
319,5130.0,1.3850457547859591
320,5150.0,1.3547443178092544
321,5170.0,1.30909388083255
322,5190.0,1.3216254438558455
323,5210.0,1.3551650068791408
324,5230.0,1.3870825699024363
325,5250.0,1.4101181329257317
326,5270.0,1.321647695949027
327,5290.0,1.4060892589723226
328,5310.0,1.437214821995618
329,5330.0,1.3463113850189135
330,5350.0,1.404095948042209
331,5370.0,1.3956215110655044
332,5390.0,1.3725870740887998
333,5410.0,1.3544186371120952
334,5430.0,1.3612882001353905
335,5450.0,1.380283763158686
336,5470.0,1.3564493261819814
337,5490.0,1.3568648892052768
338,5510.0,1.3427264522285725
339,5530.0,1.3592960152518678
340,5550.0,1.3645515782751634
341,5570.0,1.3439571412984588
342,5590.0,1.3233547043217542
343,5610.0,1.3439582673450494
344,5630.0,1.3322598303683448
345,5650.0,1.3358993933916403
346,5670.0,1.3120659564149357
347,5690.0,1.3302515194382312
348,5710.0,1.3015720824615267
349,5730.0,1.356111645484822
350,5750.0,1.3201732085081175
351,5754.399369999999,1.3211497725270074
352,5770.0,1.3250694053392205
353,5790.0,1.291324372679915
354,5810.0,1.3173673400206098
355,5830.0,1.3345223073613044
356,5850.0,1.3072382747019993
357,5870.0,1.3017702420426938
358,5890.0,1.2276142093833884
359,5910.0,1.2843661767240833
360,5930.0,1.284553144064778
361,5950.0,1.2798921114054727
362,5970.0,1.2889670787461673
363,5990.0,1.271376046086862
364,6010.0,1.2570200134275566
365,6030.0,1.2725599807682513
366,6050.0,1.281635948108946
367,6070.0,1.2761669154496407
368,6090.0,1.2448388827903354
369,6110.0,1.24340985013103
370,6130.0,1.2007688174717246
371,6150.0,1.2130757848124194
372,6170.0,1.179324752153114
373,6190.0,1.2174907194938087
374,6210.0,1.2079816868345032
375,6230.0,1.1815016541751981
376,6250.0,1.1534056215158928
377,6270.0,1.1851085888565875
378,6290.0,1.194183556197282
379,6310.0,1.1709375235379769
380,6330.0,1.1775884908786716
381,6350.0,1.1729274582193663
382,6370.0,1.1666504255600607
383,6390.0,1.1773413929007555
384,6410.0,1.1597503602414503
385,6430.0,1.163978327582145
386,6450.0,1.1552782949228395
387,6470.0,1.1514242622635342
388,6490.0,1.132217229604229
389,6510.0,1.1517981969449236
390,6530.0,1.1439051642856182
391,6550.0,1.103688131626313
392,6570.0,1.0303390989670076
393,6590.0,1.1202230663077024
394,6606.93448,1.1299612113782846
395,6610.0,1.1317904113481505
396,6630.0,1.1251374386574873
397,6650.0,1.122526465966824
398,6670.0,1.1045594932761604
399,6690.0,1.114068520585497
400,6710.0,1.0855975478948339
401,6730.0,1.1007635752041705
402,6750.0,1.0860296025135072
403,6770.0,1.088268629822844
404,6790.0,1.0767666571321803
405,6810.0,1.077386684441517
406,6830.0,1.0828567117508539
407,6850.0,1.0624647390601902
408,6870.0,1.071166766369527
409,6890.0,1.0790577936788637
410,6910.0,1.0732148209882002
411,6930.0,1.0657538482975368
412,6950.0,1.0615248756068736
413,6970.0,1.0669959029162104
414,6990.0,1.0619579302255469
415,7010.0,1.0464979575348836
416,7030.0,1.0591579848442203
417,7050.0,1.0613940121535568
418,7070.0,1.0393890394628935
419,7090.0,1.0193210667722301
420,7110.0,1.0007100940815667
421,7130.0,0.9869461213909034
422,7150.0,0.9840101487002402
423,7170.0,0.9887511760095767
424,7190.0,0.9708672033189134
425,7210.0,0.98409423062825
426,7230.0,0.9939252579375867
427,7250.0,0.9961612852469233
428,7270.0,0.99742831255626
429,7290.0,0.9839083398655967
430,7310.0,0.9993143671749333
431,7330.0,0.9997743944842699
432,7350.0,1.0038694217936066
433,7370.0,1.0179834491029431
434,7390.0,1.00228047641228
435,7410.0,0.9986185037216165
436,7430.0,1.0122485310309532
437,7450.0,1.0113345583402897
438,7470.0,1.0185795856496265
439,7490.0,1.0150796129589632
440,7510.0,1.0211136402682999
441,7530.0,1.0294086675776364
442,7550.0,1.033262694886973
443,7570.0,1.0274167221963098
444,7585.77575,1.0155423367125733
445,7590.0,1.0124272203398887
446,7610.0,0.9994534892151473
447,7630.0,0.9850247580904059
448,7650.0,0.9710000269656645
449,7670.0,0.939521295840923
450,7690.0,0.9535395647161816
451,7710.0,0.9399178335914402
452,7730.0,0.9399551024666989
453,7750.0,0.9337693713419574
454,7770.0,0.938815640217216
455,7790.0,0.9448319090924746
456,7810.0,0.9420401779677332
457,7830.0,0.9348844468429919
458,7850.0,0.9249017157182503
459,7870.0,0.933826984593509
460,7890.0,0.9215002534687676
461,7910.0,0.9059415223440263
462,7930.0,0.9070267912192849
463,7950.0,0.9001150600945433
464,7970.0,0.920516328969802
465,7990.0,0.9191775978450606
466,8010.0,0.9231748667203191
467,8030.0,0.9237761355955778
468,8050.0,0.9222774044708363
469,8070.0,0.9279696733460949
470,8090.0,0.9186329422213535
471,8110.0,0.9235972110966121
472,8130.0,0.9404434799718706
473,8150.0,0.9456517488471292
474,8170.0,0.9502940177223879
475,8190.0,0.9302902865976465
476,8210.0,0.9194185554729051
477,8230.0,0.9226868243481636
478,8250.0,0.9212680932234222
479,8270.0,0.9279323620986808
480,8290.0,0.9192406309739395
481,8310.0,0.8945498998491981
482,8330.0,0.8898991687244566
483,8350.0,0.8884824375997152
484,8370.0,0.8912647064749738
485,8390.0,0.8694039753502324
486,8410.0,0.887380244225491
487,8430.0,0.8570325131007497
488,8450.0,0.8437347819760082
489,8470.0,0.8421560508512668
490,8490.0,0.8499503197265253
491,8510.0,0.817259588601784
492,8530.0,0.8498608574770425
493,8550.0,0.7989081263523012
494,8570.0,0.8657733952275598
495,8590.0,0.8486786641028183
496,8610.0,0.852836932978077
497,8630.0,0.8748522018533356
498,8650.0,0.8723024707285941
499,8670.0,0.8032487396038527
500,8690.0,0.8562950084791113
501,8709.6359,0.879418508299495
502,8710.0,0.8798515797739952
503,8730.0,0.8803661804056564
504,8750.0,0.8555077810373176
505,8770.0,0.8815583816689789
506,8790.0,0.8929829823006401
507,8810.0,0.8797595829323012
508,8830.0,0.8848821835639624
509,8850.0,0.8754577841956237
510,8870.0,0.8383173848272848
511,8890.0,0.8653369854589461
512,8910.0,0.8757925860906072
513,8930.0,0.8622461867222684
514,8950.0,0.8636497873539296
515,8970.0,0.8644083879855908
516,8990.0,0.861690988617252
517,9010.0,0.8247925892489132
518,9030.0,0.8543171898805744
519,9050.0,0.8835197905122356
520,9070.0,0.8817733911438969
521,9090.0,0.866286991775558
522,9110.0,0.8750455924072192
523,9130.0,0.8872781930388804
524,9150.0,0.8815717936705416
525,9170.0,0.8793403943022028
526,9190.0,0.884541994933864
527,9210.0,0.8532985955655252
528,9230.0,0.8219761961971864
529,9250.0,0.8337237968288477
530,9270.0,0.8417543974605088
531,9290.0,0.83653199809217
532,9310.0,0.8409255987238312
533,9330.0,0.8403101993554924
534,9350.0,0.8373507999871537
535,9370.0,0.8259874006188148
536,9390.0,0.835795001250476
537,9410.0,0.8195826018821373
538,9430.0,0.8369072025137985
539,9450.0,0.8259478031454597
540,9470.0,0.8397974037771209
541,9490.0,0.8398270044087821
542,9510.0,0.8268476050404433
543,9530.0,0.8242922056721045
544,9550.0,0.7974128063037657
545,9570.0,0.8177264069354269
546,9590.0,0.8336770075670881
547,9610.0,0.8244136081987493
548,9630.0,0.8261412088304104
549,9650.0,0.8155048094620717
550,9670.0,0.8140804100937329
551,9690.0,0.8237270107253941
552,9710.0,0.8145456113570553
553,9730.0,0.8081912119887165
554,9750.0,0.8044238126203777
555,9770.0,0.8065554132520388
556,9790.0,0.7971320138837001
557,9810.0,0.8113836145153613
558,9830.0,0.8041422151470224
559,9850.0,0.8077278157786837
560,9870.0,0.8021814164103449
561,9890.0,0.8005970170420061
562,9910.0,0.7954566176736673
563,9930.0,0.7980722183053285
564,9950.0,0.7981018189369897
565,9970.0,0.7976474195686509
566,9990.0,0.7941240202003121
567,10000.0,0.7920178205161427
568,10030.0,0.7859635600736912
569,10070.0,0.7744982128170894
570,10130.0,0.7848966919321865
571,10170.0,0.7769053446755846
572,10220.0,0.7768559106048323
573,10280.0,0.7762643897199294
574,10320.0,0.7662530424633276
575,10380.0,0.7603265215784247
576,10430.0,0.7609250875076724
577,10480.0,0.7516636534369199
578,10520.0,0.747390306180318
579,10580.0,0.7364567852954153
580,10630.0,0.7307493512246629
581,10680.0,0.7210039171539104
582,10720.0,0.7224675698973086
583,10780.0,0.7162990490124057
584,10820.0,0.7068537017558039
585,10870.0,0.7033302676850515
586,10920.0,0.6943928336142992
587,10980.0,0.6906493127293962
588,11020.0,0.6904169654727943
589,11080.0,0.6827934445878916
590,11130.0,0.6790270105171392
591,11170.0,0.6737036632605373
592,11220.0,0.6722802291897849
593,11280.0,0.6627997083048821
594,11330.0,0.6605692742341296
595,11380.0,0.6561578401633774
596,11430.0,0.649158406092625
597,11470.0,0.654098058836023
598,11481.5362,0.6534248214154827
599,11530.0,0.650919228442802
600,11570.0,0.6439222164646403
601,11620.0,0.6354787014919381
602,11670.0,0.6339031865192359
603,11730.0,0.6358111685519934
604,11770.0,0.6244511565738318
605,11830.0,0.6196521386065892
606,11870.0,0.6112001266284275
607,11920.0,0.6177876116557254
608,11980.0,0.6011915936884827
609,12030.0,0.6082630787157806
610,12070.0,0.6029640667376189
611,12120.0,0.6021965517649168
612,12180.0,0.6021665337976743
613,12230.0,0.5980050188249721
614,12270.0,0.5937550068468104
615,12320.0,0.5895134918741083
616,12370.0,0.5875349769014061
617,12430.0,0.5811209589341636
618,12480.0,0.5789794439614615
619,12530.0,0.5736079289887593
620,12580.0,0.5712254140160572
621,12620.0,0.5681884020378956
622,12670.0,0.5632198870651934
623,12720.0,0.5624523720924912
624,12780.0,0.5605633541252487
625,12830.0,0.5409688391525465
626,12880.0,0.5511913241798444
627,12920.0,0.5462963122016827
628,12980.0,0.5494162942344402
629,13020.0,0.5430652822562785
630,13080.0,0.5436802642890359
631,13130.0,0.5345097493163338
632,13180.0,0.5324502343436316
633,13182.5674,0.5324150345208133
634,13230.0,0.5319906428067747
635,13280.0,0.524432279902318
636,13320.0,0.5247377895787526
637,13380.0,0.5197385540934046
638,13430.0,0.520907191188948
639,13470.0,0.5172527008653826
640,13520.0,0.5141383379609259
641,13570.0,0.5079529750564693
642,13630.0,0.5058647395711212
643,13670.0,0.5067352492475559
644,13730.0,0.5066660137622079
645,13770.0,0.5050315234386425
646,13820.0,0.5048261605341858
647,13880.0,0.5007179250488378
648,13930.0,0.48734056214438115
649,13970.0,0.48505907182081587
650,14020.0,0.4804107089163592
651,14080.0,0.4826854734310112
652,14120.0,0.4774949831074458
653,14180.0,0.4804167476220978
654,14230.0,0.4756853847176411
655,14280.0,0.4698240218131844
656,14330.0,0.4752756589087278
657,14380.0,0.47717129600427105
658,14420.0,0.4673748056807058
659,14480.0,0.4734485701953577
660,14520.0,0.46947007987179235
661,14570.0,0.4711237169673357
662,14620.0,0.464453354062879
663,14670.0,0.46230799115842236
664,14720.0,0.45822462825396565
665,14770.0,0.459797265349509
666,14830.0,0.460698029864161
667,14880.0,0.4566146669597043
