,lambda (Angstroms),Total Flux (erg/s/cm^2/Angstrom)
0,1005.0,2.7265863289716292
1,1015.0,2.712855459111806
2,1025.0,1.873254589251983
3,1035.0,2.26194371939216
4,1045.0,3.219512849532337
5,1055.0,3.128191979672514
6,1065.0,2.6506311098126907
7,1075.0,2.9374902399528673
8,1085.0,2.5487993700930445
9,1095.0,3.0174885002332212
10,1096.4782,3.000409248850542
11,1105.0,2.9019460515872786
12,1115.0,2.817893329083508
13,1125.0,2.5463806065797376
14,1135.0,3.0142478840759668
15,1145.0,2.817075161572196
16,1155.0,2.9035424390684255
17,1165.0,2.922929716564655
18,1175.0,2.163336994060884
19,1185.0,2.808984271557113
20,1195.0,2.2748415490533427
21,1205.0,1.8829188265495718
22,1215.0,1.5887861040458011
23,1225.0,2.2279533815420307
24,1235.0,2.8081606590382595
25,1245.0,2.948757936534489
26,1255.0,2.8364452140307184
27,1258.92541,2.7441302783663644
28,1265.0,2.6012742629707493
29,1275.0,3.0392544566206636
30,1285.0,3.1176546502705786
31,1295.0,2.6085548439204933
32,1305.0,2.5972450375704077
33,1315.0,3.031995231220322
34,1325.0,2.9075454248702366
35,1335.0,2.6570456185201516
36,1345.0,2.9754258121700663
37,1355.0,2.8897760058199804
38,1365.0,2.6424961994698952
39,1375.0,2.69987639311981
40,1385.0,2.6869365867697246
41,1395.0,2.3022967804196393
42,1405.0,2.358056974069554
43,1415.0,2.480077167719468
44,1425.0,2.492207361369383
45,1435.0,2.4897775550192978
46,1442.0,2.573007690574238
47,1445.43977,2.5841250938253544
48,1447.0,2.589167782543521
49,1455.0,2.5091679125662294
50,1465.0,2.3338180750946154
51,1475.0,2.322508237623001
52,1485.0,2.3305884001513864
53,1495.0,2.3305885626797718
54,1505.0,2.200488725208158
55,1512.0,1.9952388389780278
56,1517.0,2.0905889202422205
57,1525.0,2.0356390502649293
58,1535.0,1.792399212793315
59,1545.0,1.8602893753217007
60,1555.0,1.7810895378500862
61,1565.0,1.829569700378472
62,1575.0,1.9200798629068578
63,1585.0,1.9806900254352433
64,1595.0,1.9976601879636293
65,1605.0,1.962910350492015
66,1615.0,1.9540205130204005
67,1625.0,1.873210675548786
68,1635.0,1.963720838077172
69,1645.0,1.9774610006055577
70,1655.0,1.8643211631339434
71,1659.58691,1.913249806654251
72,1665.0,1.9709918801716826
73,1672.0,1.8004927110117424
74,1677.0,1.979083304468928
75,1685.0,2.017864254000425
76,1695.0,1.907965440914796
77,1705.0,1.8400866278291672
78,1715.0,1.7439278147435384
79,1725.0,1.7196890016579096
80,1735.0,1.7908001885722806
81,1745.0,1.7415113754866518
82,1755.0,1.806152562401023
83,1765.0,1.6825237493153944
84,1775.0,1.6776849362297654
85,1785.0,1.6897961231441365
86,1795.0,1.7544473100585078
87,1805.0,1.7326284969728791
88,1815.0,1.5976796838872502
89,1825.0,1.6154508708016213
90,1835.0,1.5516220577159925
91,1845.0,1.4320232446303638
92,1855.0,1.421514431544735
93,1865.0,1.4417256184591063
94,1875.0,1.5209168053734772
95,1885.0,1.4005079922878485
96,1895.0,1.3350691792022198
97,1905.0,1.396480366116591
98,1905.46072,1.3936511392801096
99,1915.0,1.335068961341944
100,1925.0,1.2970874313961138
101,1935.0,1.3269859014502838
102,1945.0,1.3585043715044538
103,1955.0,1.2663828415586236
104,1967.0,1.3544510056236276
105,1976.0,1.3811096286723805
106,1984.0,1.3075884047157162
107,1995.0,1.2696067217753033
108,2005.0,1.2962551918294731
109,2015.0,1.255043661883643
110,2025.0,1.294642131937813
111,2035.0,1.2211106019919828
112,2045.0,1.2510090720461526
113,2055.0,1.1920175421003227
114,2065.0,1.1944360121544926
115,2074.0,1.2606946352032453
116,2078.0,1.1952440232249133
117,2085.0,1.2307929522628323
118,2095.0,1.1661414223170024
119,2105.0,1.1717998923711723
120,2115.0,1.173418362425342
121,2125.0,1.179076832479512
122,2135.0,1.111195302533682
123,2145.0,1.1160437725878518
124,2155.0,1.1451222426420218
125,2165.0,1.1119907126961917
126,2175.0,1.0966391827503614
127,2185.0,1.0732076528045313
128,2187.7616199999998,1.0819090949116303
129,2195.0,1.1047181132396215
130,2205.0,1.0756193330539863
131,2215.0,1.0303805528683514
132,2225.0,1.0012917726827162
133,2235.0,1.0465429924970813
134,2245.0,1.0142142123114462
135,2255.0,0.9819004321258112
136,2265.0,0.9980676519401762
137,2275.0,1.0142178717545411
138,2285.0,1.0319990915689063
139,2295.0,0.9802883113832711
140,2305.0,0.986755531197636
141,2315.0,0.950391751012001
142,2325.0,0.794192970826366
143,2335.0,0.899486190640731
144,2345.0,0.8817094104550959
145,2355.0,0.9277716302694609
146,2365.0,0.8752478500838259
147,2375.0,0.8897930698981908
148,2385.0,0.8445422897125558
149,2395.0,0.8817155095269208
150,2405.0,0.8542407293412858
151,2415.0,0.8663649491556508
152,2425.0,0.9011121689700157
153,2435.0,0.8720223887843807
154,2445.0,0.9083876085987456
155,2455.0,0.8970778284131106
156,2465.0,0.8898040482274755
157,2475.0,0.8639472680418405
158,2485.0,0.8760714878562055
159,2495.0,0.8162727076705705
160,2505.0,0.8986979274849355
161,2511.88643,0.8360959539790591
162,2513.0,0.8259727149298889
163,2518.0,0.8453644788797515
164,2525.0,0.8186991484095593
165,2535.0,0.8243556763092845
166,2545.0,0.8098092042090099
167,2555.0,0.8510207321087352
168,2565.0,0.8324352600084605
169,2575.0,0.8647567879081859
170,2585.0,0.8542503158079111
171,2595.0,0.8429368437076364
172,2605.0,0.8195023716073617
173,2615.0,0.808189899507087
174,2625.0,0.8316234274068124
175,2635.0,0.8502089553065377
176,2645.0,0.899501483206263
177,2655.0,0.9148550111059883
178,2665.0,0.8437425390057136
179,2675.0,0.8704100669054389
180,2685.0,0.8704095948051642
181,2695.0,0.8316201227048895
182,2705.0,0.8477816506046149
183,2715.0,0.8114171785043401
184,2725.0,0.8063247064040654
185,2735.0,0.8348512343037907
186,2745.0,0.7510527622035161
187,2755.0,0.7624472901032413
188,2765.0,0.7824858180029667
189,2775.0,0.807132345902692
190,2785.0,0.7706868738024173
191,2795.0,0.6620814017021426
192,2805.0,0.694161929601868
193,2815.0,0.7914534575015932
194,2825.0,0.8186849854013185
195,2835.0,0.7899175133010439
196,2845.0,0.7697940412007691
197,2855.0,0.7445825691004945
198,2865.0,0.8009060970002198
199,2875.0,0.8041376248999451
200,2884.0315,0.798444644072582
201,2885.0,0.7978341975868523
202,2895.0,0.7970271879252138
203,2910.0,0.846157173432756
204,2930.0,0.814642154109479
205,2950.0,0.796459134786202
206,2970.0,0.801874115462925
207,2990.0,0.7977520961396479
208,3010.0,0.7983990768163709
209,3030.0,0.7964590574930939
210,3050.0,0.792582038169817
211,3070.0,0.7929850188465398
212,3090.0,0.7889459995232628
213,3110.0,0.7900759801999859
214,3130.0,0.7746419608767088
215,3150.0,0.7726219415534318
216,3170.0,0.7727829222301549
217,3190.0,0.7361779029068778
218,3210.0,0.7546018835836008
219,3230.0,0.7209048642603236
220,3250.0,0.7605018449370468
221,3270.0,0.7815918256137697
222,3290.0,0.7724588062904927
223,3310.0,0.7629247869672157
224,3311.31121,0.762495692227872
225,3330.0,0.7563794405309235
226,3350.0,0.7428840711443035
227,3370.0,0.7016707017576836
228,3390.0,0.7106403323710638
229,3410.0,0.7112879629844439
230,3430.0,0.7098315935978239
231,3450.0,0.7129022242112041
232,3470.0,0.7106388548245841
233,3490.0,0.7226794854379642
234,3510.0,0.7323751160513443
235,3530.0,0.7086987466647243
236,3550.0,0.7335853772781045
237,3570.0,0.6657890078914845
238,3590.0,0.6595656385048645
239,3610.0,0.6880092691182447
240,3630.0,0.6942318997316247
241,3640.0,0.6992417150383148
242,3650.0,0.7376255303450048
243,3670.0,0.7342311609583849
244,3690.0,0.687199791571765
245,3710.0,0.7318054221851451
246,3730.0,0.6741090527985252
247,3750.0,0.7746336834119052
248,3770.0,0.8299853140252854
249,3790.0,0.9132189446386654
250,3801.8939600000003,0.9502214292231824
251,3810.0,0.9754396064465602
252,3830.0,0.7735003140260411
253,3850.0,0.9770550216055223
254,3870.0,1.0295687291850033
255,3890.0,0.8049354367644844
256,3910.0,1.0853381443439656
257,3930.0,0.8736208519234465
258,3950.0,1.0126075595029278
259,3970.0,0.6850952670824086
260,3990.0,1.1160469746618897
261,4010.0,1.1968566822413707
262,4030.0,1.1855363898208517
263,4050.0,1.1709960974003328
264,4070.0,1.1241158049798141
265,4090.0,1.0845255125592952
266,4110.0,0.9431122201387762
267,4130.0,1.1241149277182574
268,4150.0,1.1451246352977384
269,4170.0,1.1427143428772195
270,4190.0,1.1322040504567006
271,4210.0,1.1330137580361817
272,4230.0,1.1047234656156626
273,4250.0,1.1200731731951437
274,4270.0,1.0788728807746246
275,4290.0,1.0562325883541057
276,4310.0,0.9762402959335869
277,4330.0,0.991593003513068
278,4350.0,0.9196727110925491
279,4365.15832,1.0746200785863544
280,4370.0,1.1241115299530478
281,4390.0,1.0788716972118861
282,4410.0,1.099061864470725
283,4430.0,1.1200720317295636
284,4450.0,1.124932198988402
285,4470.0,1.1443223662472406
286,4490.0,1.1491725335060792
287,4510.0,1.225932700764918
288,4530.0,1.1370428680237565
289,4550.0,1.149173035282595
290,4570.0,1.1992632025414336
291,4590.0,1.1532033698002722
292,4610.0,1.1701835370591107
293,4630.0,1.1410937043179494
294,4650.0,1.1499738715767882
295,4670.0,1.1693740388356266
296,4690.0,1.1475542060944652
297,4710.0,1.1111943733533038
298,4730.0,1.1435145406121423
299,4750.0,1.159674707870981
300,4770.0,1.1491748751298196
301,4790.0,1.1427150423886583
302,4810.0,1.128965209647497
303,4830.0,1.1338153769063353
304,4850.0,1.017455544165174
305,4870.0,0.8978607114240126
306,4890.0,1.0853358786828513
307,4910.0,1.0966460459416898
308,4930.0,1.0764462132005284
309,4950.0,1.109576380459367
310,4970.0,1.0966465477182055
311,4990.0,1.0416967149770442
312,5010.0,0.9964478822358829
313,5011.87234,1.0002299310771534
314,5030.0,1.0368470799587033
315,5050.0,1.026337280828038
316,5070.0,1.0570574816973723
317,5090.0,1.0158376825667068
318,5110.0,1.027157883436041
319,5130.0,0.9980690843053758
320,5150.0,0.9697822851747101
321,5170.0,0.9261464860440447
322,5190.0,0.940692686913379
323,5210.0,0.9762468877827135
324,5230.0,1.0101790886520479
325,5250.0,1.0352292895213824
326,5270.0,0.9487734903907169
327,5290.0,1.0352296912600514
328,5310.0,1.0683698921293858
329,5330.0,0.9794810929987203
330,5350.0,1.0392802938680548
331,5370.0,1.0328204947373891
332,5390.0,1.0118006956067238
333,5410.0,0.9956468964760581
334,5430.0,1.0045310973453925
335,5450.0,1.025541298214727
336,5470.0,1.0037214990840615
337,5490.0,1.006151699953396
338,5510.0,0.9940279008227304
339,5530.0,1.0126121016920648
340,5550.0,1.0198823025613992
341,5570.0,1.0013025034307337
342,5590.0,0.9827147043000682
343,5610.0,1.0053329051694027
344,5630.0,0.9956491060387371
345,5650.0,1.0013033069080715
346,5670.0,0.979484507777406
347,5690.0,0.9996847086467405
348,5710.0,0.9730199095160749
349,5730.0,1.0295741103854092
350,5750.0,0.9956503112547438
351,5754.399369999999,0.9970700321386698
352,5770.0,1.0021047545090682
353,5790.0,0.9697892661158407
354,5810.0,0.9972617777226134
355,5830.0,1.0158462893293858
356,5850.0,0.9899918009361585
357,5870.0,0.9859533125429311
358,5890.0,0.9132268241497036
359,5910.0,0.9714083357564762
360,5930.0,0.9730248473632487
361,5950.0,0.9697933589700213
362,5970.0,0.9802978705767939
363,5990.0,0.9641363821835665
364,6010.0,0.9512098937903389
365,6030.0,0.9681794053971116
366,6050.0,0.978684917003884
367,6070.0,0.9746454286106567
368,6090.0,0.9447469402174292
369,6110.0,0.9447474518242018
370,6130.0,0.9035359634309744
371,6150.0,0.9172724750377469
372,6170.0,0.8849509866445195
373,6190.0,0.924546498251292
374,6210.0,0.9164670098580646
375,6230.0,0.8914165214648372
376,6250.0,0.8647500330716098
377,6270.0,0.8978825446783822
378,6290.0,0.9083870562851548
379,6310.0,0.8865705678919273
380,6330.0,0.8946510794986999
381,6350.0,0.8914195911054725
382,6370.0,0.8865721027122451
383,6390.0,0.8986926143190177
384,6410.0,0.8825311259257902
385,6430.0,0.8881886375325628
386,6450.0,0.8809181491393353
387,6470.0,0.8784936607461079
388,6490.0,0.8607161723528804
389,6510.0,0.881726683959653
390,6530.0,0.8752631955664255
391,6550.0,0.8364757071731982
392,6570.0,0.7645562187799707
393,6590.0,0.8558697303867433
394,6606.93448,0.866818304896476
395,6610.0,0.8688001640277393
396,6630.0,0.8631431669718608
397,6650.0,0.8615281699159822
398,6670.0,0.8445571728601038
399,6690.0,0.8550621758042253
400,6710.0,0.8275871787483468
401,6730.0,0.8437491816924683
402,6750.0,0.8300111846365898
403,6770.0,0.8332461875807113
404,6790.0,0.8227401905248328
405,6810.0,0.8243561934689543
406,6830.0,0.8308221964130759
407,6850.0,0.8114261993571973
408,6870.0,0.8211242023013188
409,6890.0,0.8300112052454404
410,6910.0,0.8251642081895618
411,6930.0,0.8186992111336833
412,6950.0,0.8154662140778048
413,6970.0,0.8219332170219263
414,6990.0,0.8178912199660479
415,7010.0,0.8034272229101693
416,7030.0,0.8170832258542908
417,7050.0,0.8203152287984123
418,7070.0,0.7993062317425338
419,7090.0,0.7802342346866554
420,7110.0,0.762619237630777
421,7130.0,0.7498512405748985
422,7150.0,0.7479112435190199
423,7170.0,0.7536482464631414
424,7190.0,0.7367602494072629
425,7210.0,0.7509832523513844
426,7230.0,0.761810255295506
427,7250.0,0.7650422582396275
428,7270.0,0.767305261183749
429,7290.0,0.7547812641278705
430,7310.0,0.7711832670719919
431,7330.0,0.7726392700161134
432,7350.0,0.777730272960235
433,7370.0,0.7928402759043565
434,7390.0,0.7781332788484779
435,7410.0,0.7754672817925995
436,7430.0,0.790093284736721
437,7450.0,0.7901752876808424
438,7470.0,0.798416290624964
439,7490.0,0.7959122935690854
440,7510.0,0.802942296513207
441,7530.0,0.8122332994573285
442,7550.0,0.81708330240145
443,7570.0,0.8122333053455715
444,7585.77575,0.8011445329928577
445,7590.0,0.7981753516343739
446,7610.0,0.7858925597968469
447,7630.0,0.7721547679593197
448,7650.0,0.7588209761217927
449,7670.0,0.7280331842842654
450,7690.0,0.7427423924467383
451,7710.0,0.7298116006092111
452,7730.0,0.7305398087716841
453,7750.0,0.7250450169341569
454,7770.0,0.7307822250966297
455,7790.0,0.7374894332591027
456,7810.0,0.7353886414215755
457,7830.0,0.7289238495840484
458,7850.0,0.7196320577465212
459,7870.0,0.7292482659089942
460,7890.0,0.717612474071467
461,7910.0,0.7027446822339399
462,7930.0,0.7045208903964127
463,7950.0,0.6983000985588856
464,7970.0,0.7193923067213585
465,7990.0,0.7187445148838313
466,8010.0,0.7234327230463041
467,8030.0,0.724724931208777
468,8050.0,0.7239171393712499
469,8070.0,0.7303003475337227
470,8090.0,0.7216545556961956
471,8110.0,0.7273097638586684
472,8130.0,0.7448469720211414
473,8150.0,0.7507461801836142
474,8170.0,0.7560793883460871
475,8190.0,0.7367665965085599
476,8210.0,0.7265858046710328
477,8230.0,0.7305450128335057
478,8250.0,0.7298172209959785
479,8270.0,0.7371724291584514
480,8290.0,0.7291716373209243
481,8310.0,0.7051718454833972
482,8330.0,0.70121205364587
483,8350.0,0.700486261808343
484,8370.0,0.7039594699708157
485,8390.0,0.6827896781332886
486,8410.0,0.7014568862957614
487,8430.0,0.6718000944582344
488,8450.0,0.6591933026207072
489,8470.0,0.6583055107831801
490,8490.0,0.6667907189456529
491,8510.0,0.6347909271081258
492,8530.0,0.6680831352705987
493,8550.0,0.6178213434330715
494,8570.0,0.6853775515955445
495,8590.0,0.6689737597580172
496,8610.0,0.6738229679204901
497,8630.0,0.6965291760829629
498,8650.0,0.6946703842454359
499,8670.0,0.6263075924079087
500,8690.0,0.6800448005703816
501,8709.6359,0.7038466611282558
502,8710.0,0.7042880157963861
503,8730.0,0.705257611958402
504,8750.0,0.6808542081204177
505,8770.0,0.7073598042824336
506,8790.0,0.7192394004444495
507,8810.0,0.7064709966064652
508,8830.0,0.7120485927684811
509,8850.0,0.7030791889304968
510,8870.0,0.6663937850925127
511,8890.0,0.6938683812545284
512,8910.0,0.7047789774165443
513,8930.0,0.69168757357856
514,8950.0,0.6935461697405759
515,8970.0,0.6947597659025918
516,8990.0,0.6924973620646075
517,9010.0,0.6560539582266234
518,9030.0,0.6860335543886391
519,9050.0,0.715691150550655
520,9070.0,0.7143997467126708
521,9090.0,0.6993683428746866
522,9110.0,0.7085819390367024
523,9130.0,0.7212695351987183
524,9150.0,0.7160181313607341
525,9170.0,0.7142417275227498
526,9190.0,0.7198983236847657
527,9210.0,0.6891099198467815
528,9230.0,0.6582425160087974
529,9250.0,0.6704451121708132
530,9270.0,0.678930708332829
531,9290.0,0.6741633044948447
532,9310.0,0.6790119006568606
533,9330.0,0.6788514968188765
534,9350.0,0.6763470929808922
535,9370.0,0.665438689142908
536,9390.0,0.6757012853049238
537,9410.0,0.6599438814669397
538,9430.0,0.6777234776289555
539,9450.0,0.6672190737909713
540,9470.0,0.6815236699529871
541,9490.0,0.682008266115003
542,9510.0,0.6694838622770188
543,9530.0,0.6673834584390346
544,9550.0,0.6409590546010504
545,9570.0,0.6617276507630662
546,9590.0,0.678133246925082
547,9610.0,0.6693248430870978
548,9630.0,0.6715074392491136
549,9650.0,0.6613260354111294
550,9670.0,0.6603566315731453
551,9690.0,0.6704582277351612
552,9710.0,0.6617318238971769
553,9730.0,0.6558324200591927
554,9750.0,0.6525200162212085
555,9770.0,0.6551066123832243
556,9790.0,0.6461382085452402
557,9810.0,0.660844804707256
558,9830.0,0.6540584008692717
559,9850.0,0.6580989970312876
560,9870.0,0.6530075931933035
561,9890.0,0.6518781893553193
562,9910.0,0.6471927855173351
563,9930.0,0.6502633816793508
564,9950.0,0.6507479778413667
565,9970.0,0.6507485740033825
566,9990.0,0.6476801701653984
567,10000.0,0.6458014682464062
568,10030.0,0.6401653648546185
569,10070.0,0.6292575603322349
570,10130.0,0.6404923535486593
571,10170.0,0.6330585490262757
572,10220.0,0.6337060433732962
573,10280.0,0.6339508365897207
574,10320.0,0.6244970320673371
575,10380.0,0.6194068252837616
576,10430.0,0.620702319630782
577,10480.0,0.6121378139778024
578,10520.0,0.6084220094554188
579,10580.0,0.5983248026718434
580,10630.0,0.5933142970188638
581,10680.0,0.5842657913658842
582,10720.0,0.5862869868435007
583,10780.0,0.5809547800599251
584,10820.0,0.5720669755375415
585,10870.0,0.5692404698845619
586,10920.0,0.5609999642315824
587,10980.0,0.5580927574480069
588,11020.0,0.5584179529256232
589,11080.0,0.5516307461420478
590,11130.0,0.5485612404890682
591,11170.0,0.5437954359666846
592,11220.0,0.543068930313705
593,11280.0,0.5344247235301296
594,11330.0,0.5328912178771499
595,11380.0,0.5291767122241704
596,11430.0,0.5228742065711909
597,11470.0,0.5283714020488072
598,11481.5362,0.5278589627405291
599,11530.0,0.5257075293887686
600,11570.0,0.5190028259963311
601,11620.0,0.510924696755784
602,11670.0,0.5097145675152369
603,11730.0,0.5120610124265804
604,11770.0,0.5009933090341429
605,11830.0,0.4966327539454864
606,11870.0,0.48847305055304874
607,11920.0,0.4954259213125017
608,11980.0,0.4792683662238452
609,12030.0,0.48670523698329815
610,12070.0,0.4816985335908605
611,12120.0,0.48129640435031346
612,12180.0,0.481704849261657
613,12230.0,0.47790872002110996
614,12270.0,0.4739510166286723
615,12320.0,0.4700748873881253
616,12370.0,0.46846175814757823
617,12430.0,0.46248620305892174
618,12480.0,0.4607100738183747
619,12530.0,0.45570394457782765
620,12580.0,0.4536868153372806
621,12620.0,0.45094211194484296
622,12670.0,0.44633898270429595
623,12720.0,0.4459368534637489
624,12780.0,0.4444862983750924
625,12830.0,0.42525716913454537
626,12880.0,0.4358450398939983
627,12920.0,0.4312423365015607
628,12980.0,0.4348007814129042
629,13020.0,0.4287420780204666
630,13080.0,0.4297955229318101
631,13130.0,0.420990393691263
632,13180.0,0.41929626445071605
633,13182.5674,0.4192798264544724
634,13230.0,0.4189774335487479
635,13280.0,0.41154767292238065
636,13320.0,0.4119560644212869
637,13380.0,0.4071111516696462
638,13430.0,0.40840839104327903
639,13470.0,0.4048567825421852
640,13520.0,0.40187102191581797
641,13570.0,0.3958142612894508
642,13630.0,0.3938803485378101
643,13670.0,0.39485374003671636
644,13730.0,0.3949388272850757
645,13770.0,0.3934072187839819
646,13820.0,0.39333045815761464
647,13880.0,0.389376545405974
648,13930.0,0.3761277847796068
649,13970.0,0.37394917627851304
650,14020.0,0.36942941565214577
651,14080.0,0.37185850290050515
652,14120.0,0.36677089439941135
653,14180.0,0.3698469816477707
654,14230.0,0.3652442210214034
655,14280.0,0.35951146039503623
656,14330.0,0.365091699768669
657,14380.0,0.3671159391423018
658,14420.0,0.35742233064120804
659,14480.0,0.36365041788956737
660,14520.0,0.35977480938847356
661,14570.0,0.3615570487621063
662,14620.0,0.3550152881357391
663,14670.0,0.3529985275093719
664,14720.0,0.3490437668830047
