,lambda (Angstroms),Total Flux (erg/s/cm^2/Angstrom)
0,1005.0,0.9106597334737951
1,1015.0,0.8729141545403336
2,1025.0,0.37831257560687187
3,1035.0,0.5947459966734102
4,1045.0,1.1661784177399488
5,1055.0,1.152237838806487
6,1065.0,0.9036892598730254
7,1075.0,1.0819766809395637
8,1085.0,0.840388102006102
9,1095.0,1.1330655230726405
10,1096.4782,1.127656703694696
11,1105.0,1.0964738933812417
12,1115.0,1.0494420814243146
13,1125.0,0.9536232694673872
14,1135.0,1.21610845751046
15,1145.0,1.0976266455535326
16,1155.0,1.1777748335966052
17,1165.0,1.221903021639678
18,1175.0,0.8577952096827507
19,1185.0,1.1736993977258234
20,1195.0,0.7596505857688961
21,1205.0,0.5429227738119689
22,1215.0,0.3624339618550415
23,1225.0,0.7555791498981141
24,1235.0,1.1975003379411868
25,1245.0,1.3351285259842596
26,1255.0,1.2689367140273322
27,1258.92541,1.1843630443099469
28,1265.0,1.0534860810512763
29,1275.0,1.4199262099345886
30,1285.0,1.498896338817901
31,1295.0,1.1632364677012137
32,1305.0,1.1295565965845262
33,1315.0,1.4454767254678387
34,1325.0,1.3839168543511513
35,1335.0,1.1980769832344638
36,1345.0,1.4623071121177762
37,1355.0,1.4053972410010886
38,1365.0,1.2369873698844012
39,1375.0,1.3136474987677136
40,1385.0,1.3270076276510263
41,1395.0,1.1742777565343387
42,1405.0,1.2131778854176511
43,1415.0,1.2091180143009637
44,1425.0,1.2491881431842762
45,1435.0,1.2259582720675886
46,1442.0,1.3002983622859074
47,1445.43977,1.3186736579588023
48,1447.0,1.3270084234958794
49,1455.0,1.2822885100322323
50,1465.0,1.1731186182026736
51,1475.0,1.161498726373115
52,1485.0,1.1852988345435564
53,1495.0,1.2091189427139977
54,1505.0,1.141169050884439
55,1512.0,1.0064491266037476
56,1517.0,1.0854391806889685
57,1525.0,1.0349092672253215
58,1535.0,0.8943693753957629
59,1545.0,1.0041294835662042
60,1555.0,0.9373435917366455
61,1565.0,0.9396656999070868
62,1575.0,0.9965788080775282
63,1585.0,1.0482599162479693
64,1595.0,1.0697500244184108
65,1605.0,1.039550132588852
66,1615.0,1.0412902407592934
67,1625.0,0.9727693489297347
68,1635.0,1.0343204571001758
69,1645.0,1.0482605652706174
70,1655.0,0.9518616734410585
71,1659.58691,0.9955515821168665
72,1665.0,1.0471111506640887
73,1672.0,0.9164387036280249
74,1677.0,1.0395520986022653
75,1685.0,1.0923827305610496
76,1695.0,1.0174935205095303
77,1705.0,0.9675453104580108
78,1715.0,0.9088931004064913
79,1725.0,0.898439890354972
80,1735.0,0.9536096803034525
81,1745.0,0.923993470251933
82,1755.0,0.9867122602004136
83,1765.0,0.8856680501488942
84,1775.0,0.9100598400973747
85,1785.0,0.9193526300458553
86,1795.0,0.9797454199943358
87,1805.0,0.9623262099428165
88,1815.0,0.881606999891297
89,1825.0,0.8920597898397775
90,1835.0,0.8479265797882581
91,1845.0,0.7712723697367386
92,1855.0,0.7677881596852192
93,1865.0,0.7869529496336998
94,1875.0,0.8514137395821803
95,1885.0,0.7782445295306609
96,1895.0,0.7428213194791414
97,1905.0,0.778827109427622
98,1905.46072,0.7773555600701283
99,1915.0,0.7468851744826717
100,1925.0,0.7300441562302912
101,1935.0,0.7428191379779108
102,1945.0,0.7718531197255304
103,1955.0,0.71958710147315
104,1967.0,0.7834648795702933
105,1976.0,0.7997269631431511
106,1984.0,0.7521051485412467
107,1995.0,0.7248100284636282
108,2005.0,0.7416510102112478
109,2015.0,0.7091299919588674
110,2025.0,0.7404859737064869
111,2035.0,0.6992549554541065
112,2045.0,0.7253859372017261
113,2055.0,0.6899609189493456
114,2065.0,0.6882169006969653
115,2074.0,0.7329319842698229
116,2078.0,0.7009925769688707
117,2085.0,0.7248008641922044
118,2095.0,0.681245845939824
119,2105.0,0.6800838276874435
120,2115.0,0.6835668094350631
121,2125.0,0.6899537911826826
122,2135.0,0.6330427729303023
123,2145.0,0.6522057546779219
124,2155.0,0.6731097364255413
125,2165.0,0.6463967181731609
126,2175.0,0.6365216999207804
127,2185.0,0.6249086816684001
128,2187.7616199999998,0.6326055877297856
129,2195.0,0.6527809881100513
130,2205.0,0.6295547999550568
131,2215.0,0.5929686118000622
132,2225.0,0.5731684236450677
133,2235.0,0.6185232354900732
134,2245.0,0.5883250473350787
135,2255.0,0.5624258591800841
136,2265.0,0.5755526710250896
137,2275.0,0.593554482870095
138,2285.0,0.6127202947151006
139,2295.0,0.578342106560106
140,2305.0,0.5785749184051114
141,2315.0,0.550584730250117
142,2325.0,0.43043454209512244
143,2335.0,0.5102263539401279
144,2345.0,0.4911221657851334
145,2355.0,0.5380449776301389
146,2365.0,0.4893237894751444
147,2375.0,0.5075586013201498
148,2385.0,0.4671984131651553
149,2395.0,0.5025072250101608
150,2405.0,0.48096403685516625
151,2415.0,0.49420484870017173
152,2425.0,0.5289916605451772
153,2435.0,0.5077364723901827
154,2445.0,0.5408982842351882
155,2455.0,0.5324200960801937
156,2465.0,0.5278909079251991
157,2475.0,0.5068107197702045
158,2485.0,0.51941353161521
159,2495.0,0.49415434346021553
160,2505.0,0.550310155305221
161,2511.88643,0.49442389171160095
162,2513.0,0.4853866793876313
163,2518.0,0.4971165222849356
164,2525.0,0.47429330234116157
165,2535.0,0.48312098813577004
166,2545.0,0.47522367393037857
167,2555.0,0.5154663597249871
168,2565.0,0.49891604551959556
169,2575.0,0.5309707313142041
170,2585.0,0.5230154171088126
171,2595.0,0.514594102903421
172,2605.0,0.49392078869802963
173,2615.0,0.48613847449263814
174,2625.0,0.5113991602872466
175,2635.0,0.5339898460818551
176,2645.0,0.5848605318764636
177,2655.0,0.6046032176710722
178,2665.0,0.5379369034656807
179,2675.0,0.5652885892602892
180,2685.0,0.5674362750548977
181,2695.0,0.5336379608495062
182,2705.0,0.5539056466441148
183,2715.0,0.5183063324387233
184,2725.0,0.5127310182333318
185,2735.0,0.5429857040279402
186,2745.0,0.4640083898225488
187,2755.0,0.4778280756171573
188,2765.0,0.5004187614117658
189,2775.0,0.5237054472063742
190,2785.0,0.48781613300098275
191,2795.0,0.3881638187955913
192,2805.0,0.41778050459019983
193,2815.0,0.5154581903848083
194,2825.0,0.5482678761794169
195,2835.0,0.5262015619740253
196,2845.0,0.5040752477686339
197,2855.0,0.47869693356324233
198,2865.0,0.5390336193578509
199,2875.0,0.5476863051524593
200,2884.0315,0.54238904662786
201,2885.0,0.541821020755087
202,2895.0,0.545769014324803
203,2910.0,0.6011120046793766
204,2930.0,0.5712039918188084
205,2950.0,0.5581969789582402
206,2970.0,0.5673139660976718
207,2990.0,0.5674879532371035
208,3010.0,0.5735859403765352
209,3030.0,0.5743409275159669
210,3050.0,0.5746309146553986
211,3070.0,0.5794509017948304
212,3090.0,0.579914888934262
213,3110.0,0.5854328760736938
214,3130.0,0.5731798632131255
215,3150.0,0.5735288503525572
216,3170.0,0.579450837491989
217,3190.0,0.5447228246314206
218,3210.0,0.5670228117708525
219,3230.0,0.5342707989102842
220,3250.0,0.5819487860497158
221,3270.0,0.6092427731891474
222,3290.0,0.6022727603285792
223,3310.0,0.5947227474680109
224,3311.31121,0.5945323589328657
225,3330.0,0.5918185168980311
226,3350.0,0.5807862710535068
227,3370.0,0.5375800252089822
228,3390.0,0.5512847793644579
229,3410.0,0.5547685335199333
230,3430.0,0.5574392876754088
231,3450.0,0.5640600418308845
232,3470.0,0.56469879598636
233,3490.0,0.5813655501418356
234,3510.0,0.5947203042973112
235,3530.0,0.5709700584527867
236,3550.0,0.6016898126082623
237,3570.0,0.5289835667637377
238,3590.0,0.5257303209192133
239,3610.0,0.5605150750746889
240,3630.0,0.5694578292301644
241,3640.0,0.5760197063079022
242,3650.0,0.61097958338564
243,3670.0,0.6115603375411155
244,3690.0,0.5638820916965911
245,3710.0,0.6057518458520667
246,3730.0,0.5414086000075422
247,3750.0,0.6347873541630178
248,3770.0,0.6969261083184933
249,3790.0,0.7759028624739688
250,3801.8939600000003,0.8087110155347228
251,3810.0,0.8310706373908912
252,3830.0,0.6336254427710009
253,3850.0,0.8281672481511106
254,3870.0,0.8804320535312204
255,3890.0,0.6829858589113302
256,3910.0,0.94837566429144
257,3930.0,0.7288624696715498
258,3950.0,0.8786892750516596
259,3970.0,0.5681190804317694
260,3990.0,0.9959908858118791
261,4010.0,1.080207691191989
262,4030.0,1.0726574965720987
263,4050.0,1.0558173019522086
264,4070.0,1.0122571073323183
265,4090.0,0.9867009127124281
266,4110.0,0.855456718092538
267,4130.0,1.0227065234726478
268,4150.0,1.0430363288527575
269,4170.0,1.0430361342328673
270,4190.0,1.0325759396129772
271,4210.0,1.035485744993087
272,4230.0,1.0076155503731967
273,4250.0,1.0267753557533066
274,4270.0,0.9855391611334162
275,4290.0,0.9611469665135259
276,4310.0,0.8798457718936358
277,4330.0,0.9170135772737456
278,4350.0,0.8525523826538554
279,4365.15832,1.002204265180322
280,4370.0,1.0500042620968233
281,4390.0,1.000051373415608
282,4410.0,1.0244444847343928
283,4430.0,1.0500045960531774
284,4450.0,1.0563847073719623
285,4470.0,1.0819448186907472
286,4490.0,1.088904930009532
287,4510.0,1.1731150413283167
288,4530.0,1.0790351526471014
289,4550.0,1.0952952639658862
290,4570.0,1.1504653752846707
291,4590.0,1.1028354866034558
292,4610.0,1.1220055979222403
293,4630.0,1.0935457092410252
294,4650.0,1.1045758205598097
295,4670.0,1.1278159318785947
296,4690.0,1.1057460431973796
297,4710.0,1.0703261545161642
298,4730.0,1.105166265834949
299,4750.0,1.1231663771537337
300,4770.0,1.1132864884725184
301,4790.0,1.108066599791303
302,4810.0,1.095866711110088
303,4830.0,1.1040068224288726
304,4850.0,0.9896039337476574
305,4870.0,0.8728810450664423
306,4890.0,1.056387156385227
307,4910.0,1.0680072677040118
308,4930.0,1.0494173790227965
309,4950.0,1.0854374903415813
310,4970.0,1.0720676016603659
311,4990.0,1.0139977129791509
312,5010.0,0.9686998242979354
313,5011.87234,0.9726690082852659
314,5030.0,1.0110979558919624
315,5050.0,1.0023880895801454
316,5070.0,1.0354882232683282
317,5090.0,0.9919283569565112
318,5110.0,1.006448490644694
319,5130.0,0.9762516243328769
320,5150.0,0.9472147580210598
321,5170.0,0.9001748917092428
322,5190.0,0.9164360253974256
323,5210.0,0.9582471590856086
324,5230.0,0.9965782927737915
325,5250.0,1.0250394264619744
326,5270.0,0.9321165601501573
327,5290.0,1.0267796938383402
328,5310.0,1.065099827526523
329,5330.0,0.969281961214706
330,5350.0,1.035490094902889
331,5370.0,1.0285202285910717
332,5390.0,1.0076203622792548
333,5410.0,0.9907704959674376
334,5430.0,1.0018006296556206
335,5450.0,1.0250407633438035
336,5470.0,1.0023908970319861
337,5490.0,1.0058710307201693
338,5510.0,0.9942541644083521
339,5530.0,1.015161298096535
340,5550.0,1.023871431784718
341,5570.0,1.0047115654729009
342,5590.0,0.9849626991610837
343,5610.0,1.0105218328492664
344,5630.0,1.0012319665374494
345,5650.0,1.0081921002256324
346,5670.0,0.9855462339138154
347,5690.0,1.0087723676019982
348,5710.0,0.9803185012901812
349,5730.0,1.0424626349783641
350,5750.0,1.0070327686665468
351,5754.399369999999,1.0086957599337356
352,5770.0,1.014593063673574
353,5790.0,0.980900404172436
354,5810.0,1.0111037446712978
355,5830.0,1.0320140851701598
356,5850.0,1.004134425669022
357,5870.0,1.0012347661678838
358,5890.0,0.9205081066667458
359,5910.0,0.9861284471656078
360,5930.0,0.9884537876644698
361,5950.0,0.9861291281633316
362,5970.0,0.9983254686621936
363,5990.0,0.9809038091610556
364,6010.0,0.9681281496599174
365,6030.0,0.9867114901587795
366,6050.0,0.9994898306576415
367,6070.0,0.9954241711565034
368,6090.0,0.9634855116553653
369,6110.0,0.9646458521542274
370,6130.0,0.9205121926530893
371,6150.0,0.9367705331519512
372,6170.0,0.9007678736508132
373,6190.0,0.9449032141496752
374,6210.0,0.9361925546485371
375,6230.0,0.9100608951473991
376,6250.0,0.881605235646261
377,6270.0,0.918190576145123
378,6290.0,0.9298069166439848
379,6310.0,0.9065782571428469
380,6330.0,0.9164495976417089
381,6350.0,0.9141269381405708
382,6370.0,0.9089012786394327
383,6390.0,0.9228396191382947
384,6410.0,0.9048369596371566
385,6430.0,0.9118073001360186
386,6450.0,0.9042566406348806
387,6470.0,0.9025149811337425
388,6490.0,0.8839333216326045
389,6510.0,0.9071606621314665
390,6530.0,0.9013530026303284
391,6550.0,0.8624463431291903
392,6570.0,0.7898576836280523
393,6590.0,0.8816110241269143
394,6606.93448,0.8934121048234727
395,6610.0,0.89554831273581
396,6630.0,0.8891613146952642
397,6650.0,0.8885803166547184
398,6670.0,0.8699963186141725
399,6690.0,0.8816113205736267
400,6710.0,0.8519953225330807
401,6730.0,0.870577324492535
402,6750.0,0.8560583264519891
403,6770.0,0.8595433284114432
404,6790.0,0.8490903303708974
405,6810.0,0.8514133323303517
406,6830.0,0.8583823342898058
407,6850.0,0.83805833624926
408,6870.0,0.8490903382087142
409,6890.0,0.8583823401681683
410,6910.0,0.8543183421276225
411,6930.0,0.8473493440870766
412,6950.0,0.8444463460465308
413,6970.0,0.8519953480059849
414,6990.0,0.8473493499654391
415,7010.0,0.8328313519248932
416,7030.0,0.8479293538843474
417,7050.0,0.8514133558438016
418,7070.0,0.8293453578032558
419,7090.0,0.80844035976271
420,7110.0,0.7904383617221641
421,7130.0,0.7765003636816182
422,7150.0,0.7747583656410724
423,7170.0,0.7811463676005266
424,7190.0,0.7631443695599808
425,7210.0,0.7788243715194348
426,7230.0,0.7910193734788891
427,7250.0,0.7950843754383432
428,7270.0,0.7979893773977974
429,7290.0,0.7846313793572516
430,7310.0,0.8026333813167058
431,7330.0,0.8049563832761599
432,7350.0,0.8107623852356141
433,7370.0,0.8270243871950682
434,7390.0,0.8113433891545224
435,7410.0,0.8090223911139766
436,7430.0,0.8252803930734307
437,7450.0,0.8252803950328849
438,7470.0,0.835154396992339
439,7490.0,0.8322493989517933
440,7510.0,0.8403794009112474
441,7530.0,0.8508314028707016
442,7550.0,0.8554774048301558
443,7570.0,0.8508314067896099
444,7585.77575,0.838923872235203
445,7590.0,0.8357354375970296
446,7610.0,0.8223775761391462
447,7630.0,0.8078587146812627
448,7650.0,0.7933418532233792
449,7670.0,0.7602409917654959
450,7690.0,0.7765011303076124
451,7710.0,0.762565268849729
452,7730.0,0.7637264073918455
453,7750.0,0.757918545933962
454,7770.0,0.7648876844760786
455,7790.0,0.7718558230181952
456,7810.0,0.7701139615603118
457,7830.0,0.7631461001024283
458,7850.0,0.7532742386445448
459,7870.0,0.7643083771866613
460,7890.0,0.7526935157287779
461,7910.0,0.7364326542708944
462,7930.0,0.738756792813011
463,7950.0,0.7323679313551276
464,7970.0,0.755017069897244
465,7990.0,0.7544372084393607
466,8010.0,0.7602433469814772
467,8030.0,0.7614044855235937
468,8050.0,0.7608246240657103
469,8070.0,0.7683747626078269
470,8090.0,0.7590839011499434
471,8110.0,0.7660520396920599
472,8130.0,0.7846351782341765
473,8150.0,0.7910233167762931
474,8170.0,0.7968304553184097
475,8190.0,0.7759245938605261
476,8210.0,0.7654707324026427
477,8230.0,0.7695368709447593
478,8250.0,0.7689570094868758
479,8270.0,0.7770861480289925
480,8290.0,0.768957286571109
481,8310.0,0.7434054251132255
482,8330.0,0.739340563655342
483,8350.0,0.7387597021974586
484,8370.0,0.7422448407395751
485,8390.0,0.7195949792816917
486,8410.0,0.7399211178238082
487,8430.0,0.7079812563659248
488,8450.0,0.6946253949080413
489,8470.0,0.6940445334501579
490,8490.0,0.7015936719922744
491,8510.0,0.6684938105343909
492,8530.0,0.7021749490765076
493,8550.0,0.6475870876186242
494,8570.0,0.7219192261607407
495,8590.0,0.7056603647028572
496,8610.0,0.7114665032449737
497,8630.0,0.7341156417870903
498,8650.0,0.7323727803292069
499,8670.0,0.6586229188713234
500,8690.0,0.71669405741344
501,8709.6359,0.7417820010683964
502,8710.0,0.7422472006566758
503,8730.0,0.7439885974311105
504,8750.0,0.7207599942055452
505,8770.0,0.7468923909799797
506,8790.0,0.7590897877544143
507,8810.0,0.7451521845288489
508,8830.0,0.7515415813032835
509,8850.0,0.7428299780777182
510,8870.0,0.7056643748521527
511,8890.0,0.7323767716265874
512,8910.0,0.743992168401022
513,8930.0,0.7300555651754567
514,8950.0,0.7317979619498912
515,8970.0,0.7335403587243259
516,8990.0,0.7317987554987605
517,9010.0,0.6946331522731951
518,9030.0,0.7259935490476297
519,9050.0,0.7561899458220643
520,9070.0,0.7550293425964989
521,9090.0,0.7387697393709336
522,9110.0,0.7486431361453681
523,9130.0,0.7620005329198027
524,9150.0,0.7567739296942374
525,9170.0,0.755031326468672
526,9190.0,0.7614187232431066
527,9210.0,0.7294801200175411
528,9230.0,0.6987035167919758
529,9250.0,0.7097369135664104
530,9270.0,0.718448310340845
531,9290.0,0.7126407071152796
532,9310.0,0.7178681038897143
533,9330.0,0.717868500664149
534,9350.0,0.7155458974385834
535,9370.0,0.7039322942130181
536,9390.0,0.7149656909874528
537,9410.0,0.6981260877618873
538,9430.0,0.7172904845363219
539,9450.0,0.7062568813107566
540,9470.0,0.7213562780851912
541,9490.0,0.7219356748596258
542,9510.0,0.7091620716340604
543,9530.0,0.707420468408495
544,9550.0,0.6812868651829297
545,9570.0,0.7010322619573643
546,9590.0,0.7184546587317988
547,9610.0,0.7085830555062335
548,9630.0,0.7114854522806681
549,9650.0,0.7004528490551027
550,9670.0,0.6992922458295373
551,9690.0,0.7103256426039719
552,9710.0,0.7010350393784066
553,9730.0,0.6946474361528412
554,9750.0,0.6911638329272757
555,9770.0,0.6940672297017104
556,9790.0,0.684776626476145
557,9810.0,0.7004560232505797
558,9830.0,0.6934884200250142
559,9850.0,0.6975528167994488
560,9870.0,0.6923272135738835
561,9890.0,0.6911666103483181
562,9910.0,0.6859410071227526
563,9930.0,0.6894244038971873
564,9950.0,0.6900058006716219
565,9970.0,0.6900061974460565
566,9990.0,0.6871025942204911
567,10000.0,0.6852155426077084
568,10030.0,0.6795543893435069
569,10070.0,0.668522184991238
570,10130.0,0.6795563784628349
571,10170.0,0.6720091741105662
572,10220.0,0.6725901686702301
573,10280.0,0.672591362141827
574,10320.0,0.6627191577895581
575,10380.0,0.657493351261155
576,10430.0,0.6592363458208189
577,10480.0,0.649946340380483
578,10520.0,0.6464641360282143
579,10580.0,0.6354313294998111
580,10630.0,0.6302053240594752
581,10680.0,0.620914318619139
582,10720.0,0.6232391142668703
583,10780.0,0.6174333077384672
584,10820.0,0.6081431033861984
585,10870.0,0.6052390979458624
586,10920.0,0.5971100925055264
587,10980.0,0.5936262859771233
588,11020.0,0.5936270816248544
589,11080.0,0.5866602750964514
590,11130.0,0.5837572696561153
591,11170.0,0.5784160653038465
592,11220.0,0.5777200598635106
593,11280.0,0.5686612533351073
594,11330.0,0.5670942478947715
595,11380.0,0.5630882424544353
596,11430.0,0.5564122370140995
597,11470.0,0.5623350326618307
598,11481.5362,0.5617994056406146
599,11530.0,0.5595501140566732
600,11570.0,0.5525246425592328
601,11620.0,0.5439315531874322
602,11670.0,0.5427154638156317
603,11730.0,0.545214756569471
604,11770.0,0.5334852850720305
605,11830.0,0.5288415778258699
606,11870.0,0.5203071063284294
607,11920.0,0.527743016956629
608,11980.0,0.5103813097104681
609,12030.0,0.5185122203386677
610,12070.0,0.5131127488412273
611,12120.0,0.5128246594694267
612,12180.0,0.513232952223266
613,12230.0,0.5092868628514654
614,12270.0,0.505106391354025
615,12320.0,0.5011013019822245
616,12370.0,0.4993632126104239
617,12430.0,0.49297650536426324
618,12480.0,0.4911774159924627
619,12530.0,0.48589532662066215
620,12580.0,0.48380623724886157
621,12620.0,0.48084776575142113
622,12670.0,0.4760286763796206
623,12720.0,0.47556558700782003
624,12780.0,0.47417387976165937
625,12830.0,0.45408279038985877
626,12880.0,0.4650027010180583
627,12920.0,0.46006822952061777
628,12980.0,0.46396152227445714
629,13020.0,0.45745805077701673
630,13080.0,0.45862134353085604
631,13130.0,0.4491592541590555
632,13180.0,0.44741816478725493
633,13182.5674,0.44740635015819175
634,13230.0,0.44718893952209304
635,13280.0,0.4393517610287165
636,13320.0,0.4397610182340152
637,13380.0,0.43465340404196334
638,13430.0,0.4360502255485868
639,13470.0,0.4322194827538855
640,13520.0,0.4290863042605089
641,13570.0,0.42270112576713237
642,13630.0,0.4205555115750805
643,13670.0,0.4217197687803792
644,13730.0,0.4218381545883273
645,13770.0,0.42021641179362607
646,13820.0,0.4202192333002495
647,13880.0,0.4159246191081976
648,13930.0,0.4018164406148211
649,13970.0,0.3994946978201198
650,14020.0,0.39473651932674325
651,14080.0,0.3972949051346913
652,14120.0,0.3919541623399901
653,14180.0,0.3952685481479382
654,14230.0,0.3903923696545616
655,14280.0,0.38423919116118505
656,14330.0,0.39028201266780854
657,14380.0,0.3923758341744319
658,14420.0,0.38215609137973067
659,14480.0,0.3887804771876788
660,14520.0,0.3847177343929775
661,14570.0,0.3865795558996009
662,14620.0,0.3796133774062244
663,14670.0,0.37752519891284786
