,lambda (Angstroms),Total Flux (erg/s/cm^2/Angstrom)
0,1005.0,0.9107504669475903
1,1015.0,0.8730043090806672
2,1025.0,0.37840215121374376
3,1035.0,0.5948349933468206
4,1045.0,1.1662668354798973
5,1055.0,1.152325677612974
6,1065.0,0.9037765197460507
7,1075.0,1.0820633618791273
8,1085.0,0.8404742040122041
9,1095.0,1.133151046145281
10,1096.4782,1.1277421411893922
11,1105.0,1.0965577867624836
12,1115.0,1.0495241628486291
13,1125.0,0.9537035389347744
14,1135.0,1.2161869150209197
15,1145.0,1.0977032911070652
16,1155.0,1.1778496671932106
17,1165.0,1.2219760432793558
18,1175.0,0.8578664193655015
19,1185.0,1.1737687954516467
20,1195.0,0.7597181715377922
21,1205.0,0.5429885476239376
22,1215.0,0.362497923710083
23,1225.0,0.7556412997962283
24,1235.0,1.1975606758823738
25,1245.0,1.3351870519685192
26,1255.0,1.2689934280546646
27,1258.92541,1.184419047069895
28,1265.0,1.0535421621025525
29,1275.0,1.4199824198691773
30,1285.0,1.4989526776358024
31,1295.0,1.1632929354024275
32,1305.0,1.1296131931690523
33,1315.0,1.4455334509356772
34,1325.0,1.3839737087023025
35,1335.0,1.1981339664689274
36,1345.0,1.4623642242355523
37,1355.0,1.4054544820021773
38,1365.0,1.2370447397688025
39,1375.0,1.3137049975354274
40,1385.0,1.3270652553020523
41,1395.0,1.1743355130686772
42,1405.0,1.2132357708353023
43,1415.0,1.2091760286019273
44,1425.0,1.2492462863685523
45,1435.0,1.2260165441351771
46,1442.0,1.3003567245718148
47,1445.43977,1.3187320645776048
48,1447.0,1.3270668469917586
49,1455.0,1.2823470200644647
50,1465.0,1.1731772364053474
51,1475.0,1.16155745274623
52,1485.0,1.1853576690871126
53,1495.0,1.2091778854279953
54,1505.0,1.141228101768878
55,1512.0,1.0065082532074956
56,1517.0,1.085498361377937
57,1525.0,1.0349685344506432
58,1535.0,0.8944287507915257
59,1545.0,1.0041889671324082
60,1555.0,0.937403183473291
61,1565.0,0.9397253998141736
62,1575.0,0.9966386161550562
63,1585.0,1.0483198324959389
64,1595.0,1.0698100488368214
65,1605.0,1.0396102651777042
66,1615.0,1.0413504815185868
67,1625.0,0.9728296978594694
68,1635.0,1.034380914200352
69,1645.0,1.0483211305412345
70,1655.0,0.9519223468821172
71,1659.58691,0.9956123051747329
72,1665.0,1.047172301328177
73,1672.0,0.9165004072560499
74,1677.0,1.0396141972045305
75,1685.0,1.0924454611220993
76,1695.0,1.0175570410190604
77,1705.0,0.9676096209160217
78,1715.0,0.9089582008129826
79,1725.0,0.8985057807099438
80,1735.0,0.953676360606905
81,1745.0,0.9240609405038661
82,1755.0,0.9867805204008272
83,1765.0,0.8857371002977883
84,1775.0,0.9101296801947494
85,1785.0,0.9194232600917106
86,1795.0,0.9798168399886718
87,1805.0,0.9623984198856328
88,1815.0,0.8816799997825939
89,1825.0,0.892133579679555
90,1835.0,0.8480011595765162
91,1845.0,0.7713477394734773
92,1855.0,0.7678643193704383
93,1865.0,0.7870298992673995
94,1875.0,0.8514914791643606
95,1885.0,0.7783230590613218
96,1895.0,0.7429006389582828
97,1905.0,0.7789072188552439
98,1905.46072,0.7774357058922566
99,1915.0,0.7469643489653432
100,1925.0,0.7301223124605825
101,1935.0,0.7428962759558216
102,1945.0,0.7719292394510607
103,1955.0,0.7196622029462999
104,1967.0,0.7835387591405868
105,1976.0,0.799799926286302
106,1984.0,0.7521772970824934
107,1995.0,0.7248810569272565
108,2005.0,0.7417210204224957
109,2015.0,0.7091989839177347
110,2025.0,0.7405539474129739
111,2035.0,0.699321910908213
112,2045.0,0.7254518744034522
113,2055.0,0.6900258378986912
114,2065.0,0.6882808013939304
115,2074.0,0.7329949685396456
116,2078.0,0.7010551539377414
117,2085.0,0.7248627283844088
118,2095.0,0.6813066918796479
119,2105.0,0.680143655374887
120,2115.0,0.6836256188701262
121,2125.0,0.6900115823653653
122,2135.0,0.6330995458606045
123,2145.0,0.6522615093558436
124,2155.0,0.6731644728510827
125,2165.0,0.6464504363463219
126,2175.0,0.636574399841561
127,2185.0,0.6249603633368002
128,2187.7616199999998,0.6326569881955718
129,2195.0,0.6528329762201025
130,2205.0,0.6296075999101135
131,2215.0,0.5930222236001245
132,2225.0,0.5732228472901354
133,2235.0,0.6185784709801464
134,2245.0,0.5883810946701573
135,2255.0,0.5624827183601683
136,2265.0,0.5756103420501791
137,2275.0,0.5936129657401902
138,2285.0,0.6127795894302012
139,2295.0,0.578402213120212
140,2305.0,0.578635836810223
141,2315.0,0.5506464605002339
142,2325.0,0.4304970841902449
143,2335.0,0.5102897078802558
144,2345.0,0.4911863315702668
145,2355.0,0.5381099552602777
146,2365.0,0.48938957895028873
147,2375.0,0.5076252026402998
148,2385.0,0.4672658263303106
149,2395.0,0.5025754500203216
150,2405.0,0.4810330737103325
151,2415.0,0.49427469740034347
152,2425.0,0.5290623210903543
153,2435.0,0.5078079447803654
154,2445.0,0.5409705684703763
155,2455.0,0.5324931921603873
156,2465.0,0.5279648158503982
157,2475.0,0.5068854395404091
158,2485.0,0.5194890632304201
159,2495.0,0.4942306869204311
160,2505.0,0.550387310610442
161,2511.88643,0.4945016060882021
162,2513.0,0.4854643587752626
163,2518.0,0.49719404456987115
164,2525.0,0.4743706046823231
165,2535.0,0.48319797627154004
166,2545.0,0.4753003478607571
167,2555.0,0.5155427194499741
168,2565.0,0.4989920910391912
169,2575.0,0.5310464626284082
170,2585.0,0.5230908342176251
171,2595.0,0.5146692058068422
172,2605.0,0.4939955773960592
173,2615.0,0.4862129489852762
174,2625.0,0.5114733205744932
175,2635.0,0.5340636921637102
176,2645.0,0.5849340637529272
177,2655.0,0.6046764353421443
178,2665.0,0.5380098069313614
179,2675.0,0.5653611785205784
180,2685.0,0.5675085501097954
181,2695.0,0.5337099216990123
182,2705.0,0.5539772932882294
183,2715.0,0.5183776648774464
184,2725.0,0.5128020364666634
185,2735.0,0.5430564080558805
186,2745.0,0.46407877964509753
187,2755.0,0.4778981512343145
188,2765.0,0.5004885228235316
189,2775.0,0.5237748944127485
190,2785.0,0.4878852660019655
191,2795.0,0.3882326375911826
192,2805.0,0.41784900918039963
193,2815.0,0.5155263807696167
194,2825.0,0.5483357523588337
195,2835.0,0.5262691239480507
196,2845.0,0.5041424955372676
197,2855.0,0.47876386712648467
198,2865.0,0.5391002387157017
199,2875.0,0.5477526103049187
200,2884.0315,0.5424550680057201
201,2885.0,0.5418870415101741
202,2895.0,0.5458350286496058
203,2910.0,0.6011780093587533
204,2930.0,0.5712699836376168
205,2950.0,0.5582629579164802
206,2970.0,0.5673799321953436
207,2990.0,0.567553906474207
208,3010.0,0.5736518807530705
209,3030.0,0.5744068550319339
210,3050.0,0.5746968293107974
211,3070.0,0.5795168035896607
212,3090.0,0.5799807778685241
213,3110.0,0.5854987521473876
214,3130.0,0.573245726426251
215,3150.0,0.5735947007051144
216,3170.0,0.579516674983978
217,3190.0,0.5447886492628412
218,3210.0,0.5670886235417048
219,3230.0,0.5343365978205682
220,3250.0,0.5820145720994316
221,3270.0,0.609308546378295
222,3290.0,0.6023385206571584
223,3310.0,0.5947884949360218
224,3311.31121,0.5945981055577313
225,3330.0,0.5918840337960622
226,3350.0,0.5808515421070134
227,3370.0,0.5376450504179645
228,3390.0,0.5513495587289157
229,3410.0,0.5548330670398667
230,3430.0,0.5575035753508177
231,3450.0,0.5641240836617689
232,3470.0,0.56476259197272
233,3490.0,0.5814291002836711
234,3510.0,0.5947836085946222
235,3530.0,0.5710331169055733
236,3550.0,0.6017526252165245
237,3570.0,0.5290461335274755
238,3590.0,0.5257926418384267
239,3610.0,0.5605771501493777
240,3630.0,0.5695196584603288
241,3640.0,0.5760814126158044
242,3650.0,0.61104116677128
243,3670.0,0.6116216750822311
244,3690.0,0.5639431833931822
245,3710.0,0.6058126917041332
246,3730.0,0.5414692000150845
247,3750.0,0.6348477083260355
248,3770.0,0.6969862166369866
249,3790.0,0.7759627249479376
250,3801.8939600000003,0.8087707318054446
251,3810.0,0.8311302747817823
252,3830.0,0.6336848855420018
253,3850.0,0.8282264963022213
254,3870.0,0.8804911070624409
255,3890.0,0.6830447178226604
256,3910.0,0.94843432858288
257,3930.0,0.7289209393430996
258,3950.0,0.8787475501033193
259,3970.0,0.5681771608635389
260,3990.0,0.9960487716237583
261,4010.0,1.0802653823839778
262,4030.0,1.0727149931441975
263,4050.0,1.0558746039044171
264,4070.0,1.0123142146646367
265,4090.0,0.9867578254248561
266,4110.0,0.8555134361850758
267,4130.0,1.0227630469452955
268,4150.0,1.0430926577055148
269,4170.0,1.0430922684657344
270,4190.0,1.0326318792259541
271,4210.0,1.0355414899861737
272,4230.0,1.0076711007463932
273,4250.0,1.0268307115066129
274,4270.0,0.9855943222668324
275,4290.0,0.9612019330270519
276,4310.0,0.8799005437872714
277,4330.0,0.917068154547491
278,4350.0,0.8526067653077106
279,4365.15832,1.0022585003286486
280,4370.0,1.0500585241936466
281,4390.0,1.0001057468312162
282,4410.0,1.0244989694687856
283,4430.0,1.0500591921063551
284,4450.0,1.0564394147439247
285,4470.0,1.0819996373814942
286,4490.0,1.0889598600190638
287,4510.0,1.1731700826566331
288,4530.0,1.0790903052942027
289,4550.0,1.0953505279317721
290,4570.0,1.1505207505693416
291,4590.0,1.1028909732069114
292,4610.0,1.1220611958444808
293,4630.0,1.0936014184820504
294,4650.0,1.1046316411196198
295,4670.0,1.1278718637571894
296,4690.0,1.1058020863947589
297,4710.0,1.0703823090323283
298,4730.0,1.1052225316698978
299,4750.0,1.1232227543074673
300,4770.0,1.1133429769450367
301,4790.0,1.1081231995826062
302,4810.0,1.095923422220176
303,4830.0,1.1040636448577454
304,4850.0,0.9896608674953148
305,4870.0,0.8729380901328845
306,4890.0,1.056444312770454
307,4910.0,1.0680645354080234
308,4930.0,1.049474758045593
309,4950.0,1.0854949806831624
310,4970.0,1.0721252033207318
311,4990.0,1.0140554259583014
312,5010.0,0.968757648595871
313,5011.87234,0.9727268430045322
314,5030.0,1.0111559117839248
315,5050.0,1.0024461791602906
316,5070.0,1.0355464465366566
317,5090.0,0.9919867139130223
318,5110.0,1.006506981289388
319,5130.0,0.9763102486657539
320,5150.0,0.9472735160421197
321,5170.0,0.9002337834184856
322,5190.0,0.9164950507948513
323,5210.0,0.9583063181712171
324,5230.0,0.996637585547583
325,5250.0,1.0250988529239486
326,5270.0,0.9321761203003146
327,5290.0,1.0268393876766804
328,5310.0,1.0651596550530462
329,5330.0,0.969341922429412
330,5350.0,1.0355501898057777
331,5370.0,1.0285804571821435
332,5390.0,1.0076807245585093
333,5410.0,0.9908309919348751
334,5430.0,1.001861259311241
335,5450.0,1.025101526687607
336,5470.0,1.0024517940639726
337,5490.0,1.0059320614403384
338,5510.0,0.9943153288167041
339,5530.0,1.0152225961930699
340,5550.0,1.023932863569436
341,5570.0,1.0047731309458017
342,5590.0,0.9850243983221675
343,5610.0,1.0105836656985332
344,5630.0,1.001293933074899
345,5650.0,1.008254200451265
346,5670.0,0.9856084678276307
347,5690.0,1.0088347352039964
348,5710.0,0.9803810025803623
349,5730.0,1.042525269956728
350,5750.0,1.0070955373330939
351,5754.399369999999,1.0087585580074716
352,5770.0,1.014656127347148
353,5790.0,0.980963808344872
354,5810.0,1.011167489342596
355,5830.0,1.0320781703403197
356,5850.0,1.0041988513380438
357,5870.0,1.0012995323357676
358,5890.0,0.9205732133334915
359,5910.0,0.9861938943312155
360,5930.0,0.9885195753289394
361,5950.0,0.9861952563266633
362,5970.0,0.9983919373243872
363,5990.0,0.9809706183221111
364,6010.0,0.968195299319835
365,6030.0,0.986778980317559
366,6050.0,0.9995576613152829
367,6070.0,0.9954923423130068
368,6090.0,0.9635540233107307
369,6110.0,0.9647147043084546
370,6130.0,0.9205813853061785
371,6150.0,0.9368400663039025
372,6170.0,0.9008377473016264
373,6190.0,0.9449734282993503
374,6210.0,0.9362631092970742
375,6230.0,0.9101317902947981
376,6250.0,0.881676471292522
377,6270.0,0.918262152290246
378,6290.0,0.9298788332879698
379,6310.0,0.9066505142856938
380,6330.0,0.9165221952834177
381,6350.0,0.9141998762811416
382,6370.0,0.9089745572788654
383,6390.0,0.9229132382765894
384,6410.0,0.9049109192743133
385,6430.0,0.9118816002720372
386,6450.0,0.9043312812697613
387,6470.0,0.9025899622674851
388,6490.0,0.884008643265209
389,6510.0,0.907236324262933
390,6530.0,0.9014290052606568
391,6550.0,0.8625226862583807
392,6570.0,0.7899343672561047
393,6590.0,0.8816880482538286
394,6606.93448,0.8934894172589453
395,6610.0,0.89562562547162
396,6630.0,0.8892386293905282
397,6650.0,0.8886576333094367
398,6670.0,0.870073637228345
399,6690.0,0.8816886411472533
400,6710.0,0.8520726450661615
401,6730.0,0.87065464898507
402,6750.0,0.8561356529039782
403,6770.0,0.8596206568228866
404,6790.0,0.849167660741795
405,6810.0,0.8514906646607032
406,6830.0,0.8584596685796115
407,6850.0,0.8381356724985198
408,6870.0,0.8491676764174283
409,6890.0,0.8584596803363366
410,6910.0,0.8543956842552449
411,6930.0,0.8474266881741532
412,6950.0,0.8445236920930616
413,6970.0,0.8520726960119698
414,6990.0,0.8474266999308783
415,7010.0,0.8329087038497865
416,7030.0,0.8480067077686949
417,7050.0,0.8514907116876032
418,7070.0,0.8294227156065115
419,7090.0,0.80851771952542
420,7110.0,0.7905157234443282
421,7130.0,0.7765777273632365
422,7150.0,0.7748357312821448
423,7170.0,0.7812237352010531
424,7190.0,0.7632217391199615
425,7210.0,0.7789017430388698
426,7230.0,0.7910967469577782
427,7250.0,0.7951617508766865
428,7270.0,0.7980667547955947
429,7290.0,0.7847087587145031
430,7310.0,0.8027107626334116
431,7330.0,0.8050337665523198
432,7350.0,0.8108397704712281
433,7370.0,0.8271017743901364
434,7390.0,0.8114207783090448
435,7410.0,0.8090997822279531
436,7430.0,0.8253577861468615
437,7450.0,0.8253577900657698
438,7470.0,0.8352317939846781
439,7490.0,0.8323267979035864
440,7510.0,0.8404568018224947
441,7530.0,0.8509088057414032
442,7550.0,0.8555548096603115
443,7570.0,0.8509088135792198
444,7585.77575,0.8390012805704058
445,7590.0,0.8358128751940592
446,7610.0,0.8224551522782924
447,7630.0,0.8079364293625254
448,7650.0,0.7934197064467585
449,7670.0,0.7603189835309917
450,7690.0,0.7765792606152248
451,7710.0,0.7626435376994579
452,7730.0,0.763804814783691
453,7750.0,0.757997091867924
454,7770.0,0.7649663689521571
455,7790.0,0.7719346460363903
456,7810.0,0.7701929231206234
457,7830.0,0.7632252002048565
458,7850.0,0.7533534772890895
459,7870.0,0.7643877543733227
460,7890.0,0.7527730314575558
461,7910.0,0.736512308541789
462,7930.0,0.7388365856260221
463,7950.0,0.7324478627102552
464,7970.0,0.7550971397944882
465,7990.0,0.7545174168787213
466,8010.0,0.7603236939629544
467,8030.0,0.7614849710471875
468,8050.0,0.7609052481314206
469,8070.0,0.7684555252156537
470,8090.0,0.7591648022998868
471,8110.0,0.7661330793841199
472,8130.0,0.784716356468353
473,8150.0,0.7911046335525862
474,8170.0,0.7969119106368193
475,8190.0,0.7760061877210523
476,8210.0,0.7655524648052854
477,8230.0,0.7696187418895185
478,8250.0,0.7690390189737516
479,8270.0,0.7771682960579848
480,8290.0,0.7690395731422178
481,8310.0,0.7434878502264509
482,8330.0,0.739423127310684
483,8350.0,0.7388424043949172
484,8370.0,0.7423276814791503
485,8390.0,0.7196779585633835
486,8410.0,0.7400042356476165
487,8430.0,0.7080645127318497
488,8450.0,0.6947087898160826
489,8470.0,0.6941280669003158
490,8490.0,0.7016773439845488
491,8510.0,0.6685776210687819
492,8530.0,0.7022588981530151
493,8550.0,0.6476711752372483
494,8570.0,0.7220034523214813
495,8590.0,0.7057447294057144
496,8610.0,0.7115510064899475
497,8630.0,0.7342002835741807
498,8650.0,0.7324575606584138
499,8670.0,0.6587078377426467
500,8690.0,0.71677911482688
501,8709.6359,0.7418671945017937
502,8710.0,0.7423324013133518
503,8730.0,0.7440741948622209
504,8750.0,0.7208459884110903
505,8770.0,0.7469787819599594
506,8790.0,0.7591765755088287
507,8810.0,0.7452393690576978
508,8830.0,0.7516291626065671
509,8850.0,0.7429179561554363
510,8870.0,0.7057527497043056
511,8890.0,0.7324655432531748
512,8910.0,0.744081336802044
513,8930.0,0.7301451303509132
514,8950.0,0.7318879238997825
515,8970.0,0.7336307174486517
516,8990.0,0.731889510997521
517,9010.0,0.6947243045463901
518,9030.0,0.7260850980952595
519,9050.0,0.7562818916441286
520,9070.0,0.7551216851929978
521,9090.0,0.7388624787418671
522,9110.0,0.7487362722907364
523,9130.0,0.7620940658396055
524,9150.0,0.7568678593884748
525,9170.0,0.7551256529373439
526,9190.0,0.7615134464862132
527,9210.0,0.7295752400350823
528,9230.0,0.6987990335839517
529,9250.0,0.7098328271328208
530,9270.0,0.7185446206816901
531,9290.0,0.7127374142305593
532,9310.0,0.7179652077794286
533,9330.0,0.7179660013282978
534,9350.0,0.715643794877167
535,9370.0,0.7040305884260362
536,9390.0,0.7150643819749055
537,9410.0,0.6982251755237746
538,9430.0,0.717389969072644
539,9450.0,0.7063567626215131
540,9470.0,0.7214565561703824
541,9490.0,0.7220363497192516
542,9510.0,0.7092631432681209
543,9530.0,0.70752193681699
544,9550.0,0.6813887303658593
545,9570.0,0.7011345239147285
546,9590.0,0.7185573174635977
547,9610.0,0.7086861110124669
548,9630.0,0.7115889045613362
549,9650.0,0.7005566981102054
550,9670.0,0.6993964916590747
551,9690.0,0.7104302852079438
552,9710.0,0.7011400787568132
553,9730.0,0.6947528723056823
554,9750.0,0.6912696658545515
555,9770.0,0.6941734594034208
556,9790.0,0.68488325295229
557,9810.0,0.7005630465011592
558,9830.0,0.6935958400500285
559,9850.0,0.6976606335988976
560,9870.0,0.692435427147767
561,9890.0,0.691275220696636
562,9910.0,0.6860500142455054
563,9930.0,0.6895338077943746
564,9950.0,0.6901156013432438
565,9970.0,0.690116394892113
566,9990.0,0.6872131884409823
567,10000.0,0.6853263352154169
568,10030.0,0.6796657786870137
569,10070.0,0.668634369982476
570,10130.0,0.6796697569256698
571,10170.0,0.6721233482211322
572,10220.0,0.6727053373404603
573,10280.0,0.672707724283654
574,10320.0,0.6628363155791164
575,10380.0,0.65761170252231
576,10430.0,0.659355691641638
577,10480.0,0.6500666807609661
578,10520.0,0.6465852720564285
579,10580.0,0.6355536589996221
580,10630.0,0.6303286481189502
581,10680.0,0.6210386372382782
582,10720.0,0.6233642285337406
583,10780.0,0.6175596154769344
584,10820.0,0.6082702067723967
585,10870.0,0.6053671958917247
586,10920.0,0.5972391850110528
587,10980.0,0.5937565719542465
588,11020.0,0.593758163249709
589,11080.0,0.5867925501929027
590,11130.0,0.5838905393122307
591,11170.0,0.578550130607693
592,11220.0,0.5778551197270211
593,11280.0,0.5687975066702147
594,11330.0,0.5672314957895428
595,11380.0,0.5632264849088708
596,11430.0,0.5565514740281989
597,11470.0,0.5624750653236613
598,11481.5362,0.5619396677712292
599,11530.0,0.5596922281133465
600,11570.0,0.5526682851184656
601,11620.0,0.5440771063748644
602,11670.0,0.5428629276312634
603,11730.0,0.5453645131389421
604,11770.0,0.5336365701440611
605,11830.0,0.5289951556517398
606,11870.0,0.5204622126568589
607,11920.0,0.5279000339132578
608,11980.0,0.5105406194209364
609,12030.0,0.5186734406773353
610,12070.0,0.5132754976824545
611,12120.0,0.5129893189388534
612,12180.0,0.513399904446532
613,12230.0,0.5094557257029309
614,12270.0,0.5052767827080501
615,12320.0,0.5012736039644489
616,12370.0,0.4995374252208478
617,12430.0,0.49315301072852646
618,12480.0,0.4913558319849254
619,12530.0,0.4860756532413243
620,12580.0,0.48398847449772314
621,12620.0,0.4810315315028422
622,12670.0,0.4762143527592412
623,12720.0,0.47575317401564005
624,12780.0,0.4743637595233187
625,12830.0,0.4542745807797176
626,12880.0,0.4651964020361165
627,12920.0,0.46026345904123556
628,12980.0,0.46415904454891427
629,13020.0,0.4576571015540334
630,13080.0,0.45882268706171203
631,13130.0,0.449362508318111
632,13180.0,0.44762332957450984
633,13182.5674,0.44761161305238345
634,13230.0,0.44739687904418607
635,13280.0,0.4395625220574329
636,13320.0,0.4399740364680304
637,13380.0,0.43486980808392667
638,13430.0,0.4362694510971735
639,13470.0,0.432440965507771
640,13520.0,0.4293106085210179
641,13570.0,0.4229282515342647
642,13630.0,0.42078602315016095
643,13670.0,0.42195253756075846
644,13730.0,0.4220743091766546
645,13770.0,0.42045482358725217
646,13820.0,0.420460466600499
647,13880.0,0.41616923821639523
648,13930.0,0.4020638812296421
649,13970.0,0.3997443956402396
650,14020.0,0.39498903865348645
651,14080.0,0.39755081026938266
652,14120.0,0.3922123246799802
653,14180.0,0.3955300962958764
654,14230.0,0.39065673930912326
655,14280.0,0.3845063823223701
656,14330.0,0.390552025335617
657,14380.0,0.3926486683488638
658,14420.0,0.38243118275946136
659,14480.0,0.3890589543753576
660,14520.0,0.384998468785955
661,14570.0,0.3868631117992019
662,14620.0,0.3798997548124488
663,14670.0,0.37781439782569565
