,lambda (Angstroms),Total Flux (erg/s/cm^2/Angstrom)
0,1005.0,0.9108865671582831
1,1015.0,0.8731395408911674
2,1025.0,0.37853651462405163
3,1035.0,0.5949684883569358
4,1045.0,1.1663994620898201
5,1055.0,1.1524574358227044
6,1065.0,0.9039074095555887
7,1075.0,1.082193383288473
8,1085.0,0.8406033570213571
9,1095.0,1.1332793307542415
10,1096.4782,1.1278702974314363
11,1105.0,1.0966836268343463
12,1115.0,1.0496472849851008
13,1125.0,0.9538239431358552
14,1135.0,1.2163046012866094
15,1145.0,1.097818259437364
16,1155.0,1.1779619175881184
17,1165.0,1.2220855757388729
18,1175.0,0.8579732338896274
19,1185.0,1.1738728920403818
20,1195.0,0.7598195501911362
21,1205.0,0.5430872083418907
22,1215.0,0.3625938664926452
23,1225.0,0.7557345246433996
24,1235.0,1.197651182794154
25,1245.0,1.3352748409449084
26,1255.0,1.269078499095663
27,1258.92541,1.184503051209817
28,1265.0,1.0536262836794668
29,1275.0,1.4200667347710603
30,1285.0,1.499037185862654
31,1295.0,1.163377636954248
32,1305.0,1.1296980880458416
33,1315.0,1.4456185391374352
34,1325.0,1.3840589902290292
35,1335.0,1.1982194413206229
36,1345.0,1.4624498924122167
37,1355.0,1.4055403435038103
38,1365.0,1.237130794595404
39,1375.0,1.3137912456869978
40,1385.0,1.3271516967785915
41,1395.0,1.1744221478701853
42,1405.0,1.2133225989617789
43,1415.0,1.2092630500533728
44,1425.0,1.2493335011449664
45,1435.0,1.2261039522365602
46,1442.0,1.3004442680006758
47,1445.43977,1.3188196745058087
48,1447.0,1.3271544822355776
49,1455.0,1.2824347851128133
50,1465.0,1.1732651637093579
51,1475.0,1.1616455423059024
52,1485.0,1.185445920902447
53,1495.0,1.2092662994989916
54,1505.0,1.1413166780955362
55,1512.0,1.0065969431131172
56,1517.0,1.0855871324113897
57,1525.0,1.0350574352886255
58,1535.0,0.89451781388517
59,1545.0,1.0042781924817146
60,1555.0,0.9374925710782591
61,1565.0,0.9398149496748038
62,1575.0,0.9967283282713484
63,1585.0,1.048409706867893
64,1595.0,1.0699000854644376
65,1605.0,1.0397004640609822
66,1615.0,1.0414408426575268
67,1625.0,0.9729202212540713
68,1635.0,1.0344715998506158
69,1645.0,1.0484119784471604
70,1655.0,0.952013357043705
71,1659.58691,0.9957033897615326
72,1665.0,1.04726402732431
73,1672.0,0.9165929626980873
74,1677.0,1.0397073451079284
75,1685.0,1.0925395569636738
76,1695.0,1.0176523217833557
77,1705.0,0.9677060866030378
78,1715.0,0.9090558514227197
79,1725.0,0.8986046162424017
80,1735.0,0.9537763810620836
81,1745.0,0.9241621458817656
82,1755.0,0.9868829107014475
83,1765.0,0.8858406755211296
84,1775.0,0.9102344403408115
85,1785.0,0.9195292051604935
86,1795.0,0.9799239699801755
87,1805.0,0.9625067347998575
88,1815.0,0.8817894996195393
89,1825.0,0.8922442644392212
90,1835.0,0.8481130292589033
91,1845.0,0.7714607940785853
92,1855.0,0.7679785588982672
93,1865.0,0.7871453237179492
94,1875.0,0.8516080885376311
95,1885.0,0.7784408533573131
96,1895.0,0.743019618176995
97,1905.0,0.779027382996677
98,1905.46072,0.7775559246254492
99,1915.0,0.7470831106893507
100,1925.0,0.7302395468060192
101,1935.0,0.7430119829226878
102,1945.0,0.7720434190393562
103,1955.0,0.7197748551560248
104,1967.0,0.7836495784960269
105,1976.0,0.7999093710010285
106,1984.0,0.7522855198943633
107,1995.0,0.7249875996226988
108,2005.0,0.7418260357393673
109,2015.0,0.7093024718560358
110,2025.0,0.7406559079727043
111,2035.0,0.6994223440893728
112,2045.0,0.7255507802060412
113,2055.0,0.6901232163227097
114,2065.0,0.6883766524393783
115,2074.0,0.7330894449443799
116,2078.0,0.7011490193910473
117,2085.0,0.7249555246727153
118,2095.0,0.6813979607893839
119,2105.0,0.6802333969060522
120,2115.0,0.6837138330227208
121,2125.0,0.6900982691393892
122,2135.0,0.6331847052560579
123,2145.0,0.6523451413727263
124,2155.0,0.6732465774893948
125,2165.0,0.6465310136060634
126,2175.0,0.6366534497227317
127,2185.0,0.6250378858394003
128,2187.7616199999998,0.6327340888942511
129,2195.0,0.6529109583851794
130,2205.0,0.6296867998426986
131,2215.0,0.5931026413002177
132,2225.0,0.5733044827577369
133,2235.0,0.6186613242152561
134,2245.0,0.5884651656727753
135,2255.0,0.5625680071302944
136,2265.0,0.5756968485878136
137,2275.0,0.5937006900453328
138,2285.0,0.6128685315028519
139,2295.0,0.578492372960371
140,2305.0,0.5787272144178902
141,2315.0,0.5507390558754094
142,2325.0,0.43059089733292855
143,2335.0,0.5103847387904478
144,2345.0,0.4912825802479669
145,2355.0,0.5382074217054861
146,2365.0,0.48948826316300525
147,2375.0,0.5077251046205244
148,2385.0,0.4673669460780436
149,2395.0,0.5026777875355627
150,2405.0,0.4811366289930819
151,2415.0,0.49437947045060104
152,2425.0,0.5291683119081202
153,2435.0,0.5079151533656394
154,2445.0,0.5410789948231586
155,2455.0,0.5326028362806777
156,2465.0,0.5280756777381969
157,2475.0,0.506997519195716
158,2485.0,0.5196023606532352
159,2495.0,0.49434520211075433
160,2505.0,0.5505030435682735
161,2511.88643,0.49461817765310373
162,2513.0,0.4855808778567096
163,2518.0,0.49731032799727454
164,2525.0,0.4744865581940654
165,2535.0,0.48331345847519513
166,2545.0,0.47541535875632496
167,2555.0,0.5156572590374547
168,2565.0,0.49910615931858454
169,2575.0,0.5311600595997144
170,2585.0,0.523203959880844
171,2595.0,0.5147818601619738
172,2605.0,0.49410776044310367
173,2615.0,0.4863246607242334
174,2625.0,0.5115845610053632
175,2635.0,0.5341744612864929
176,2645.0,0.5850443615676227
177,2655.0,0.6047862618487526
178,2665.0,0.5381191621298823
179,2675.0,0.5654700624110122
180,2685.0,0.5676169626921419
181,2695.0,0.5338178629732717
182,2705.0,0.5540847632544015
183,2715.0,0.5184846635355312
184,2725.0,0.5129085638166611
185,2735.0,0.5431624640977909
186,2745.0,0.46418436437892063
187,2755.0,0.4780032646600504
188,2765.0,0.5005931649411802
189,2775.0,0.52387906522231
190,2785.0,0.48798896550343973
191,2795.0,0.3883358657845695
192,2805.0,0.41795176606569934
193,2815.0,0.5156286663468291
194,2825.0,0.5484375666279588
195,2835.0,0.5263704669090886
196,2845.0,0.5042433671902184
197,2855.0,0.4788642674713482
198,2865.0,0.5392001677524779
199,2875.0,0.5478520680336078
200,2884.0315,0.5425541000725101
201,2885.0,0.5419860726428045
202,2895.0,0.5459340501368101
203,2910.0,0.6012770163778183
204,2930.0,0.5713689713658293
205,2950.0,0.5583619263538404
206,2970.0,0.5674788813418513
207,2990.0,0.5676528363298623
208,3010.0,0.5737507913178733
209,3030.0,0.5745057463058842
210,3050.0,0.5747957012938953
211,3070.0,0.5796156562819064
212,3090.0,0.5800796112699173
213,3110.0,0.5855975662579282
214,3130.0,0.5733445212459393
215,3150.0,0.5736934762339502
216,3170.0,0.5796154312219614
217,3190.0,0.5448873862099722
218,3210.0,0.5671873411979833
219,3230.0,0.5344352961859943
220,3250.0,0.5821132511740053
221,3270.0,0.6094072061620163
222,3290.0,0.6024371611500273
223,3310.0,0.5948871161380382
224,3311.31121,0.5946967254950297
225,3330.0,0.591982309143109
226,3350.0,0.5809494486872735
227,3370.0,0.5377425882314378
228,3390.0,0.5514467277756023
229,3410.0,0.5549298673197667
230,3430.0,0.5576000068639311
231,3450.0,0.5642201464080956
232,3470.0,0.5648582859522601
233,3490.0,0.5815244254964245
234,3510.0,0.5948785650405889
235,3530.0,0.5711277045847534
236,3550.0,0.6018468441289178
237,3570.0,0.5291399836730821
238,3590.0,0.5258861232172467
239,3610.0,0.5606702627614111
240,3630.0,0.5696124023055755
241,3640.0,0.5761739720776576
242,3650.0,0.6111335418497399
243,3670.0,0.6117136813939044
244,3690.0,0.5640348209380688
245,3710.0,0.6059039604822332
246,3730.0,0.5415601000263978
247,3750.0,0.6349382395705622
248,3770.0,0.6970763791147265
249,3790.0,0.7760525186588909
250,3801.8939600000003,0.8088603062115274
251,3810.0,0.831219730868119
252,3830.0,0.633774049698503
253,3850.0,0.8283153685288873
254,3870.0,0.8805796873592716
255,3890.0,0.6831330061896558
256,3910.0,0.9485223250200401
257,3930.0,0.7290086438504244
258,3950.0,0.8788349626808086
259,3970.0,0.5682642815111929
260,3990.0,0.9961356003415771
261,4010.0,1.0803519191719613
262,4030.0,1.0728012380023457
263,4050.0,1.05596055683273
264,4070.0,1.012399875663114
265,4090.0,0.9868431944934983
266,4110.0,0.8555985133238827
267,4130.0,1.022847832154267
268,4150.0,1.0431771509846512
269,4170.0,1.0431764698150354
270,4190.0,1.0327157886454197
271,4210.0,1.035625107475804
272,4230.0,1.0077544263061882
273,4250.0,1.0269137451365724
274,4270.0,0.9856770639669566
275,4290.0,0.9612843827973409
276,4310.0,0.8799827016277252
277,4330.0,0.9171500204581093
278,4350.0,0.8526883392884936
279,4365.15832,1.0023398530511385
280,4370.0,1.0501399173388815
281,4390.0,1.0001873069546283
282,4410.0,1.0245806965703748
283,4430.0,1.0501410861861213
284,4450.0,1.0565214758018682
285,4470.0,1.0820818654176148
286,4490.0,1.0890422550333616
287,4510.0,1.173252644649108
288,4530.0,1.079173034264855
289,4550.0,1.0954334238806014
290,4570.0,1.1506038134963479
291,4590.0,1.1029742031120948
292,4610.0,1.1221445927278413
293,4630.0,1.0936849823435881
294,4650.0,1.1047153719593346
295,4670.0,1.1279557615750813
296,4690.0,1.105886151190828
297,4710.0,1.0704665408065746
298,4730.0,1.1053069304223213
299,4750.0,1.1233073200380679
300,4770.0,1.1134277096538143
301,4790.0,1.108208099269561
302,4810.0,1.0960084888853077
303,4830.0,1.1041488785010545
304,4850.0,0.989746268116801
305,4870.0,0.8730236577325478
306,4890.0,1.0565300473482944
307,4910.0,1.0681504369640409
308,4930.0,1.0495608265797878
309,4950.0,1.0855812161955343
310,4970.0,1.0722116058112807
311,4990.0,1.0141419954270277
312,5010.0,0.9688443850427743
313,5011.87234,0.9728135950834313
314,5030.0,1.0112428456218685
315,5050.0,1.0025333135305086
316,5070.0,1.035633781439149
317,5090.0,0.9920742493477891
318,5110.0,1.0065947172564291
319,5130.0,0.9763981851650694
320,5150.0,0.9473616530737095
321,5170.0,0.9003221209823496
322,5190.0,0.9165835888909898
323,5210.0,0.95839505679963
324,5230.0,0.9967265247082702
325,5250.0,1.0251879926169103
326,5270.0,0.9322654605255505
327,5290.0,1.0269289284341907
328,5310.0,1.0652493963428307
329,5330.0,0.969431864251471
330,5350.0,1.035640332160111
331,5370.0,1.0286708000687512
332,5390.0,1.0077712679773914
333,5410.0,0.9909217358860315
334,5430.0,1.0019522037946718
335,5450.0,1.025192671703312
336,5470.0,1.002543139611952
337,5490.0,1.0060236075205924
338,5510.0,0.9944070754292323
339,5530.0,1.0153145433378723
340,5550.0,1.0240250112465128
341,5570.0,1.0048654791551528
342,5590.0,0.985116947063793
343,5610.0,1.010676414972433
344,5630.0,1.0013868828810732
345,5650.0,1.0083473507897134
346,5670.0,0.9857018186983536
347,5690.0,1.0089282866069937
348,5710.0,0.9804747545156339
349,5730.0,1.042619222424274
350,5750.0,1.0071896903329143
351,5754.399369999999,1.0088527551180755
352,5770.0,1.014750722857509
353,5790.0,0.9810589146035259
354,5810.0,1.0112631063495428
355,5830.0,1.0321742980955595
356,5850.0,1.0042954898415766
357,5870.0,1.0013966815875932
358,5890.0,0.9206708733336102
359,5910.0,0.9862920650796271
360,5930.0,0.988618256825644
361,5950.0,0.9862944485716608
362,5970.0,0.9984916403176777
363,5990.0,0.9810708320636944
364,6010.0,0.9682960238097112
365,6030.0,0.9868802155557281
366,6050.0,0.9996594073017451
367,6070.0,0.9955945990477619
368,6090.0,0.9636567907937786
369,6110.0,0.9648179825397956
370,6130.0,0.9206851742858124
371,6150.0,0.9369443660318293
372,6170.0,0.9009425577778462
373,6190.0,0.9450787495238631
374,6210.0,0.9363689412698798
375,6230.0,0.9102381330158966
376,6250.0,0.8817833247619136
377,6270.0,0.9183695165079304
378,6290.0,0.9299867082539472
379,6310.0,0.9067588999999642
380,6330.0,0.9166310917459809
381,6350.0,0.9143092834919978
382,6370.0,0.9090844752380146
383,6390.0,0.9230236669840315
384,6410.0,0.9050218587300484
385,6430.0,0.9119930504760652
386,6450.0,0.9044432422220821
387,6470.0,0.9027024339680989
388,6490.0,0.8841216257141158
389,6510.0,0.9073498174601327
390,6530.0,0.9015430092061495
391,6550.0,0.8626372009521662
392,6570.0,0.7900493926981831
393,6590.0,0.8818035844442
394,6606.93448,0.8936053859121543
395,6610.0,0.895741594575335
396,6630.0,0.8893546014334245
397,6650.0,0.8887736082915141
398,6670.0,0.8701896151496037
399,6690.0,0.8818046220076933
400,6710.0,0.8521886288657827
401,6730.0,0.8707706357238725
402,6750.0,0.856251642581962
403,6770.0,0.8597366494400515
404,6790.0,0.8492836562981411
405,6810.0,0.8516066631562307
406,6830.0,0.8585756700143202
407,6850.0,0.8382516768724098
408,6870.0,0.8492836837304995
409,6890.0,0.858575690588589
410,6910.0,0.8545116974466785
411,6930.0,0.8475427043047682
412,6950.0,0.8446397111628577
413,6970.0,0.8521887180209472
414,6990.0,0.8475427248790369
415,7010.0,0.8330247317371264
416,7030.0,0.848122738595216
417,7050.0,0.8516067454533056
418,7070.0,0.8295387523113952
419,7090.0,0.8086337591694848
420,7110.0,0.7906317660275743
421,7130.0,0.7766937728856639
422,7150.0,0.7749517797437534
423,7170.0,0.781339786601843
424,7190.0,0.7633377934599327
425,7210.0,0.7790178003180221
426,7230.0,0.7912128071761118
427,7250.0,0.7952778140342014
428,7270.0,0.7981828208922909
429,7290.0,0.7848248277503804
430,7310.0,0.8028268346084702
431,7330.0,0.8051498414665597
432,7350.0,0.8109558483246492
433,7370.0,0.8272178551827388
434,7390.0,0.8115368620408284
435,7410.0,0.809215868898918
436,7430.0,0.8254738757570076
437,7450.0,0.8254738826150971
438,7470.0,0.8353478894731866
439,7490.0,0.8324428963312763
440,7510.0,0.8405729031893658
441,7530.0,0.8510249100474554
442,7550.0,0.855670916905545
443,7570.0,0.8510249237636346
444,7585.77575,0.8391173930732101
445,7590.0,0.8359290315896036
446,7610.0,0.8225715164870117
447,7630.0,0.8080530013844195
448,7650.0,0.7935364862818274
449,7670.0,0.7604359711792354
450,7690.0,0.7766964560766433
451,7710.0,0.7627609409740512
452,7730.0,0.7639224258714592
453,7750.0,0.7581149107688671
454,7770.0,0.765084395666275
455,7790.0,0.772052880563683
456,7810.0,0.7703113654610909
457,7830.0,0.7633438503584988
458,7850.0,0.7534723352559067
459,7870.0,0.7645068201533147
460,7890.0,0.7528923050507227
461,7910.0,0.7366317899481306
462,7930.0,0.7389562748455385
463,7950.0,0.7325677597429465
464,7970.0,0.7552172446403543
465,7990.0,0.7546377295377623
466,8010.0,0.7604442144351703
467,8030.0,0.7616056993325782
468,8050.0,0.761026184229986
469,8070.0,0.7685766691273941
470,8090.0,0.7592861540248019
471,8110.0,0.7662546389222098
472,8130.0,0.7848381238196178
473,8150.0,0.7912266087170258
474,8170.0,0.7970340936144337
475,8190.0,0.7761285785118416
476,8210.0,0.7656750634092495
477,8230.0,0.7697415483066574
478,8250.0,0.7691620332040654
479,8270.0,0.7772915181014733
480,8290.0,0.7691630029988812
481,8310.0,0.7436114878962892
482,8330.0,0.7395469727936971
483,8350.0,0.738966457691105
484,8370.0,0.742451942588513
485,8390.0,0.7198024274859209
486,8410.0,0.7401289123833289
487,8430.0,0.7081893972807368
488,8450.0,0.6948338821781447
489,8470.0,0.6942533670755527
490,8490.0,0.7018028519729606
491,8510.0,0.6687033368703684
492,8530.0,0.7023848217677765
493,8550.0,0.6477973066651844
494,8570.0,0.7221297915625923
495,8590.0,0.7058712764600003
496,8610.0,0.7116777613574081
497,8630.0,0.734327246254816
498,8650.0,0.7325847311522241
499,8670.0,0.6588352160496319
500,8690.0,0.7169067009470399
501,8709.6359,0.7419949846518896
502,8710.0,0.7424602022983655
503,8730.0,0.7442025910088866
504,8750.0,0.7209749797194078
505,8770.0,0.747108368429929
506,8790.0,0.7593067571404502
507,8810.0,0.7453701458509713
508,8830.0,0.7517605345614924
509,8850.0,0.7430499232720136
510,8870.0,0.7058853119825347
511,8890.0,0.7325987006930559
512,8910.0,0.744215089403577
513,8930.0,0.7302794781140982
514,8950.0,0.7320228668246194
515,8970.0,0.7337662555351405
516,8990.0,0.7320256442456616
517,9010.0,0.6948610329561827
518,9030.0,0.7262224216667039
519,9050.0,0.756419810377225
520,9070.0,0.7552601990877461
521,9090.0,0.7390015877982674
522,9110.0,0.7488759765087886
523,9130.0,0.7622343652193097
524,9150.0,0.7570087539298308
525,9170.0,0.7552671426403519
526,9190.0,0.761655531350873
527,9210.0,0.7297179200613941
528,9230.0,0.6989423087719153
529,9250.0,0.7099766974824365
530,9270.0,0.7186890861929577
531,9290.0,0.7128824749034788
532,9310.0,0.718110863614
533,9330.0,0.7181122523245211
534,9350.0,0.7157906410350422
535,9370.0,0.7041780297455633
536,9390.0,0.7152124184560845
537,9410.0,0.6983738071666056
538,9430.0,0.7175391958771269
539,9450.0,0.706506584587648
540,9470.0,0.7216069732981691
541,9490.0,0.7221873620086903
542,9510.0,0.7094147507192115
543,9530.0,0.7076741394297326
544,9550.0,0.6815415281402537
545,9570.0,0.7012879168507749
546,9590.0,0.718711305561296
547,9610.0,0.7088406942718172
548,9630.0,0.7117440829823383
549,9650.0,0.7007124716928594
550,9670.0,0.6995528604033806
551,9690.0,0.7105872491139017
552,9710.0,0.7012976378244229
553,9730.0,0.694911026534944
554,9750.0,0.6914284152454652
555,9770.0,0.6943328039559864
556,9790.0,0.6850431926665075
557,9810.0,0.7007235813770286
558,9830.0,0.6937569700875498
559,9850.0,0.6978223587980709
560,9870.0,0.692597747508592
561,9890.0,0.6914381362191131
562,9910.0,0.6862135249296344
563,9930.0,0.6896979136401555
564,9950.0,0.6902803023506766
565,9970.0,0.6902816910611977
566,9990.0,0.687379079771719
567,10000.0,0.6854925241269796
568,10030.0,0.6798328627022739
569,10070.0,0.6688026474693332
570,10130.0,0.6798398246199221
571,10170.0,0.6722946093869814
572,10220.0,0.6728780903458055
573,10280.0,0.6728822674963943
574,10320.0,0.6630120522634536
575,10380.0,0.6577892294140425
576,10430.0,0.6595347103728665
577,10480.0,0.6502471913316906
578,10520.0,0.6467669760987499
579,10580.0,0.6357371532493388
580,10630.0,0.6305136342081629
581,10680.0,0.6212251151669869
582,10720.0,0.6235518999340461
583,10780.0,0.6177490770846351
584,10820.0,0.6084608618516943
585,10870.0,0.6055593428105184
586,10920.0,0.5974328237693425
587,10980.0,0.5939520009199314
588,11020.0,0.5939547856869907
589,11080.0,0.5869909628375796
590,11130.0,0.5840904437964036
591,11170.0,0.5787512285634628
592,11220.0,0.578057709522287
593,11280.0,0.5690018866728758
594,11330.0,0.5674373676316999
595,11380.0,0.5634338485905239
596,11430.0,0.5567603295493481
597,11470.0,0.5626851143164073
598,11481.5362,0.562150060967151
599,11530.0,0.5599053991983564
600,11570.0,0.5528837489573147
601,11620.0,0.5442954361560128
602,11670.0,0.5430841233547109
603,11730.0,0.5455891479931485
604,11770.0,0.533863497752107
605,11830.0,0.5292255223905447
606,11870.0,0.520694872149503
607,11920.0,0.5281355593482011
608,11980.0,0.5107795839866388
609,12030.0,0.5189152711853369
610,12070.0,0.5135196209442954
611,12120.0,0.5132363081429934
612,12180.0,0.513650332781431
613,12230.0,0.5097090199801291
614,12270.0,0.5055323697390876
615,12320.0,0.5015320569377856
616,12370.0,0.4997987441364837
617,12430.0,0.49341776877492133
618,12480.0,0.4916234559736194
619,12530.0,0.48634614317231745
620,12580.0,0.4842618303710155
621,12620.0,0.4813071801299739
622,12670.0,0.476492867328672
623,12720.0,0.4760345545273701
624,12780.0,0.47464857916580777
625,12830.0,0.4545622663645058
626,12880.0,0.46548695356320385
627,12920.0,0.4605563033221623
628,12980.0,0.46445532796059996
629,13020.0,0.4579556777195584
630,13080.0,0.4591247023579961
631,13130.0,0.44966738955669416
632,13180.0,0.44793107675539223
633,13182.5674,0.447919507393671
634,13230.0,0.44770878832732564
635,13280.0,0.4398786636005076
636,13320.0,0.4402935638190532
637,13380.0,0.43519441414687166
638,13430.0,0.43659828942005363
639,13470.0,0.43277318963859923
640,13520.0,0.42964706491178123
641,13570.0,0.42326894018496325
642,13630.0,0.42113179051278166
643,13670.0,0.42230169073132723
644,13730.0,0.4224285410591456
645,13770.0,0.4208124412776913
646,13820.0,0.42082231655087327
647,13880.0,0.41653616687869166
648,13930.0,0.4024350421518737
649,13970.0,0.4001189423704193
650,14020.0,0.3953678176436013
651,14080.0,0.3979346679714197
652,14120.0,0.3925995681899653
653,14180.0,0.3959224185177837
654,14230.0,0.3910532937909657
655,14280.0,0.3849071690641477
656,14330.0,0.39095704433732975
657,14380.0,0.39305791961051173
658,14420.0,0.38284381982905735
659,14480.0,0.38947667015687576
660,14520.0,0.3854195703754213
661,14570.0,0.3872884456486033
662,14620.0,0.3803293209217854
