,lambda (Angstroms),Total Flux (erg/s/cm^2/Angstrom)
0,1005.0,0.9106143667368976
1,1015.0,0.8728690772701668
2,1025.0,0.37826778780343595
3,1035.0,0.5947014983367052
4,1045.0,1.1661342088699744
5,1055.0,1.1521939194032436
6,1065.0,0.9036456299365127
7,1075.0,1.081933340469782
8,1085.0,0.840345051003051
9,1095.0,1.1330227615363202
10,1096.4782,1.1276139849473479
11,1105.0,1.096431946690621
12,1115.0,1.0494010407121572
13,1125.0,0.9535831347336936
14,1135.0,1.21606922875523
15,1145.0,1.0975883227767662
16,1155.0,1.1777374167983026
17,1165.0,1.221866510819839
18,1175.0,0.8577596048413754
19,1185.0,1.1736646988629116
20,1195.0,0.759616792884448
21,1205.0,0.5428898869059844
22,1215.0,0.36240198092752074
23,1225.0,0.7555480749490571
24,1235.0,1.1974701689705936
25,1245.0,1.3350992629921297
26,1255.0,1.268908357013666
27,1258.92541,1.1843350429299728
28,1265.0,1.0534580405256382
29,1275.0,1.4198981049672943
30,1285.0,1.4988681694089505
31,1295.0,1.163208233850607
32,1305.0,1.129528298292263
33,1315.0,1.4454483627339192
34,1325.0,1.3838884271755756
35,1335.0,1.1980484916172318
36,1345.0,1.4622785560588882
37,1355.0,1.4053686205005445
38,1365.0,1.2369586849422007
39,1375.0,1.313618749383857
40,1385.0,1.3269788138255132
41,1395.0,1.1742488782671694
42,1405.0,1.2131489427088256
43,1415.0,1.2090890071504818
44,1425.0,1.2491590715921381
45,1435.0,1.2259291360337943
46,1442.0,1.3002691811429536
47,1445.43977,1.3186444546494012
48,1447.0,1.3269792117479398
49,1455.0,1.2822592550161163
50,1465.0,1.1730893091013368
51,1475.0,1.1614693631865576
52,1485.0,1.1852694172717781
53,1495.0,1.2090894713569988
54,1505.0,1.1411395254422194
55,1512.0,1.0064195633018738
56,1517.0,1.0854095903444843
57,1525.0,1.0348796336126609
58,1535.0,0.8943396876978815
59,1545.0,1.0040997417831021
60,1555.0,0.9373137958683228
61,1565.0,0.9396358499535434
62,1575.0,0.9965489040387641
63,1585.0,1.0482299581239847
64,1595.0,1.0697200122092054
65,1605.0,1.039520066294426
66,1615.0,1.0412601203796468
67,1625.0,0.9727391744648674
68,1635.0,1.034290228550088
69,1645.0,1.0482302826353087
70,1655.0,0.9518313367205293
71,1659.58691,0.9955212205879331
72,1665.0,1.0470805753320442
73,1672.0,0.9164078518140125
74,1677.0,1.0395210493011326
75,1685.0,1.0923513652805248
76,1695.0,1.017461760254765
77,1705.0,0.9675131552290054
78,1715.0,0.9088605502032456
79,1725.0,0.898406945177486
80,1735.0,0.9535763401517262
81,1745.0,0.9239597351259665
82,1755.0,0.9866781301002068
83,1765.0,0.8856335250744471
84,1775.0,0.9100249200486873
85,1785.0,0.9193173150229277
86,1795.0,0.979709709997168
87,1805.0,0.9622901049714082
88,1815.0,0.8815704999456485
89,1825.0,0.8920228949198887
90,1835.0,0.847889289894129
91,1845.0,0.7712346848683693
92,1855.0,0.7677500798426096
93,1865.0,0.78691447481685
94,1875.0,0.8513748697910901
95,1885.0,0.7782052647653305
96,1895.0,0.7427816597395708
97,1905.0,0.7787870547138109
98,1905.46072,0.7773154871590641
99,1915.0,0.7468455872413358
100,1925.0,0.7300050781151456
101,1935.0,0.7427805689889554
102,1945.0,0.7718150598627652
103,1955.0,0.719549550736575
104,1967.0,0.7834279397851467
105,1976.0,0.7996904815715755
106,1984.0,0.7520690742706233
107,1995.0,0.7247745142318142
108,2005.0,0.741616005105624
109,2015.0,0.7090954959794338
110,2025.0,0.7404519868532435
111,2035.0,0.6992214777270532
112,2045.0,0.725352968600863
113,2055.0,0.6899284594746727
114,2065.0,0.6881849503484826
115,2074.0,0.7329004921349114
116,2078.0,0.7009612884844354
117,2085.0,0.7247699320961022
118,2095.0,0.681215422969912
119,2105.0,0.6800539138437217
120,2115.0,0.6835374047175315
121,2125.0,0.6899248955913413
122,2135.0,0.6330143864651512
123,2145.0,0.6521778773389609
124,2155.0,0.6730823682127707
125,2165.0,0.6463698590865805
126,2175.0,0.6364953499603903
127,2185.0,0.6248828408342001
128,2187.7616199999998,0.6325798874968924
129,2195.0,0.6527549940550257
130,2205.0,0.6295283999775284
131,2215.0,0.5929418059000311
132,2225.0,0.5731412118225339
133,2235.0,0.6184956177450366
134,2245.0,0.5882970236675393
135,2255.0,0.562397429590042
136,2265.0,0.5755238355125448
137,2275.0,0.5935252414350476
138,2285.0,0.6126906473575503
139,2295.0,0.578312053280053
140,2305.0,0.5785444592025557
141,2315.0,0.5505538651250584
142,2325.0,0.4304032710475612
143,2335.0,0.510194676970064
144,2345.0,0.49109008289256667
145,2355.0,0.5380124888150695
146,2365.0,0.4892908947375722
147,2375.0,0.507525300660075
148,2385.0,0.4671647065825777
149,2395.0,0.5024731125050803
150,2405.0,0.48092951842758314
151,2415.0,0.49416992435008583
152,2425.0,0.5289563302725886
153,2435.0,0.5077007361950914
154,2445.0,0.5408621421175941
155,2455.0,0.5323835480400968
156,2465.0,0.5278539539625995
157,2475.0,0.5067733598851023
158,2485.0,0.519375765807605
159,2495.0,0.4941161717301078
160,2505.0,0.5502715776526105
161,2511.88643,0.4943850345233004
162,2513.0,0.4853478396938157
163,2518.0,0.4970777611424678
164,2525.0,0.4742546511705808
165,2535.0,0.483082494067885
166,2545.0,0.4751853369651893
167,2555.0,0.5154281798624936
168,2565.0,0.4988780227597978
169,2575.0,0.5309328656571021
170,2585.0,0.5229777085544063
171,2595.0,0.5145565514517105
172,2605.0,0.4938833943490148
173,2615.0,0.48610123724631904
174,2625.0,0.5113620801436234
175,2635.0,0.5339529230409276
176,2645.0,0.5848237659382318
177,2655.0,0.6045666088355361
178,2665.0,0.5379004517328403
179,2675.0,0.5652522946301446
180,2685.0,0.5674001375274488
181,2695.0,0.533601980424753
182,2705.0,0.5538698233220574
183,2715.0,0.5182706662193616
184,2725.0,0.5126955091166658
185,2735.0,0.5429503520139701
186,2745.0,0.46397319491127437
187,2755.0,0.4777930378085786
188,2765.0,0.5003838807058829
189,2775.0,0.5236707236031871
190,2785.0,0.48778156650049137
191,2795.0,0.38812940939779567
192,2805.0,0.41774625229509993
193,2815.0,0.5154240951924042
194,2825.0,0.5482339380897084
195,2835.0,0.5261677809870127
196,2845.0,0.504041623884317
197,2855.0,0.4786634667816212
198,2865.0,0.5390003096789254
199,2875.0,0.5476531525762297
200,2884.0315,0.54235603593893
201,2885.0,0.5417880103775435
202,2895.0,0.5457360071624014
203,2910.0,0.6010790023396883
204,2930.0,0.5711709959094042
205,2950.0,0.55816398947912
206,2970.0,0.5672809830488359
207,2990.0,0.5674549766185517
208,3010.0,0.5735529701882677
209,3030.0,0.5743079637579834
210,3050.0,0.5745979573276994
211,3070.0,0.5794179508974152
212,3090.0,0.579881944467131
213,3110.0,0.5853999380368469
214,3130.0,0.5731469316065627
215,3150.0,0.5734959251762786
216,3170.0,0.5794179187459945
217,3190.0,0.5446899123157103
218,3210.0,0.5669899058854262
219,3230.0,0.5342378994551421
220,3250.0,0.5819158930248579
221,3270.0,0.6092098865945738
222,3290.0,0.6022398801642896
223,3310.0,0.5946898737340055
224,3311.31121,0.5944994856204329
225,3330.0,0.5917857584490156
226,3350.0,0.5807536355267534
227,3370.0,0.5375475126044911
228,3390.0,0.5512523896822289
229,3410.0,0.5547362667599667
230,3430.0,0.5574071438377044
231,3450.0,0.5640280209154422
232,3470.0,0.56466689799318
233,3490.0,0.5813337750709178
234,3510.0,0.5946886521486555
235,3530.0,0.5709385292263934
236,3550.0,0.6016584063041311
237,3570.0,0.5289522833818688
238,3590.0,0.5256991604596067
239,3610.0,0.5604840375373444
240,3630.0,0.5694269146150822
241,3640.0,0.5759888531539511
242,3650.0,0.6109487916928199
243,3670.0,0.6115296687705578
244,3690.0,0.5638515458482956
245,3710.0,0.6057214229260333
246,3730.0,0.5413783000037712
247,3750.0,0.6347571770815089
248,3770.0,0.6968960541592466
249,3790.0,0.7758729312369844
250,3801.8939600000003,0.8086811573993619
251,3810.0,0.8310408186954457
252,3830.0,0.6335957213855004
253,3850.0,0.8281376240755552
254,3870.0,0.8804025267656101
255,3890.0,0.682956429455665
256,3910.0,0.94834633214572
257,3930.0,0.7288332348357749
258,3950.0,0.8786601375258298
259,3970.0,0.5680900402158847
260,3990.0,0.9959619429059395
261,4010.0,1.0801788455959944
262,4030.0,1.0726287482860495
263,4050.0,1.0557886509761043
264,4070.0,1.012228553666159
265,4090.0,0.986672456356214
266,4110.0,0.855428359046269
267,4130.0,1.022678261736324
268,4150.0,1.0430081644263787
269,4170.0,1.0430080671164337
270,4190.0,1.0325479698064886
271,4210.0,1.0354578724965435
272,4230.0,1.0075877751865983
273,4250.0,1.0267476778766533
274,4270.0,0.9855115805667081
275,4290.0,0.9611194832567629
276,4310.0,0.8798183859468178
277,4330.0,0.9169862886368727
278,4350.0,0.8525251913269276
279,4365.15832,1.0021771476061587
280,4370.0,1.0499771310484116
281,4390.0,1.0000241867078041
282,4410.0,1.0244172423671962
283,4430.0,1.0499772980265887
284,4450.0,1.0563573536859812
285,4470.0,1.0819174093453736
286,4490.0,1.0888774650047661
287,4510.0,1.1730875206641582
288,4530.0,1.0790075763235507
289,4550.0,1.095267631982943
290,4570.0,1.1504376876423354
291,4590.0,1.1028077433017278
292,4610.0,1.1219777989611202
293,4630.0,1.0935178546205127
294,4650.0,1.104547910279905
295,4670.0,1.1277879659392973
296,4690.0,1.1057180215986897
297,4710.0,1.0702980772580821
298,4730.0,1.1051381329174745
299,4750.0,1.123138188576867
300,4770.0,1.113258244236259
301,4790.0,1.1080382998956515
302,4810.0,1.095838355555044
303,4830.0,1.1039784112144364
304,4850.0,0.9895754668738287
305,4870.0,0.8728525225332211
306,4890.0,1.0563585781926135
307,4910.0,1.0679786338520059
308,4930.0,1.0493886895113984
309,4950.0,1.0854087451707906
310,4970.0,1.0720388008301829
311,4990.0,1.0139688564895755
312,5010.0,0.9686709121489677
313,5011.87234,0.9726400909256329
314,5030.0,1.0110689779459812
315,5050.0,1.0023590447900725
316,5070.0,1.0354591116341643
317,5090.0,0.9918991784782556
318,5110.0,1.0064192453223468
319,5130.0,0.9762223121664385
320,5150.0,0.9471853790105299
321,5170.0,0.9001454458546214
322,5190.0,0.9164065126987129
323,5210.0,0.9582175795428043
324,5230.0,0.9965486463868958
325,5250.0,1.0250097132309872
326,5270.0,0.9320867800750786
327,5290.0,1.0267498469191703
328,5310.0,1.0650699137632615
329,5330.0,0.9692519806073531
330,5350.0,1.0354600474514446
331,5370.0,1.0284901142955358
332,5390.0,1.0075901811396273
333,5410.0,0.9907402479837187
334,5430.0,1.0017703148278103
335,5450.0,1.0250103816719016
336,5470.0,1.0023604485159932
337,5490.0,1.0058405153600847
338,5510.0,0.9942235822041761
339,5530.0,1.0151306490482674
340,5550.0,1.023840715892359
341,5570.0,1.0046807827364503
342,5590.0,0.9849318495805419
343,5610.0,1.0104909164246332
344,5630.0,1.0012009832687248
345,5650.0,1.0081610501128162
346,5670.0,0.9855151169569076
347,5690.0,1.0087411838009992
348,5710.0,0.9802872506450906
349,5730.0,1.042431317489182
350,5750.0,1.0070013843332735
351,5754.399369999999,1.0086643608968675
352,5770.0,1.0145615318367869
353,5790.0,0.9808687020862179
354,5810.0,1.0110718723356489
355,5830.0,1.0319820425850799
356,5850.0,1.004102212834511
357,5870.0,1.0012023830839418
358,5890.0,0.9204755533333729
359,5910.0,0.9860957235828038
360,5930.0,0.9884208938322349
361,5950.0,0.9860960640816658
362,5970.0,0.9982922343310968
363,5990.0,0.9808704045805278
364,6010.0,0.9680945748299588
365,6030.0,0.9866777450793897
366,6050.0,0.9994559153288207
367,6070.0,0.9953900855782517
368,6090.0,0.9634512558276827
369,6110.0,0.9646114260771137
370,6130.0,0.9204775963265447
371,6150.0,0.9367357665759756
372,6170.0,0.9007329368254066
373,6190.0,0.9448681070748376
374,6210.0,0.9361572773242686
375,6230.0,0.9100254475736995
376,6250.0,0.8815696178231306
377,6270.0,0.9181547880725615
378,6290.0,0.9297709583219924
379,6310.0,0.9065421285714235
380,6330.0,0.9164132988208544
381,6350.0,0.9140904690702855
382,6370.0,0.9088646393197164
383,6390.0,0.9228028095691473
384,6410.0,0.9047999798185783
385,6430.0,0.9117701500680093
386,6450.0,0.9042193203174403
387,6470.0,0.9024774905668713
388,6490.0,0.8838956608163023
389,6510.0,0.9071228310657332
390,6530.0,0.9013150013151642
391,6550.0,0.8624081715645951
392,6570.0,0.7898193418140261
393,6590.0,0.8815725120634572
394,6606.93448,0.8933734486057363
395,6610.0,0.895509656367905
396,6630.0,0.8891226573476321
397,6650.0,0.8885416583273592
398,6670.0,0.8699576593070862
399,6690.0,0.8815726602868134
400,6710.0,0.8519566612665403
401,6730.0,0.8705386622462675
402,6750.0,0.8560196632259945
403,6770.0,0.8595046642057216
404,6790.0,0.8490516651854487
405,6810.0,0.8513746661651758
406,6830.0,0.8583436671449028
407,6850.0,0.8380196681246299
408,6870.0,0.849051669104357
409,6890.0,0.8583436700840841
410,6910.0,0.8542796710638112
411,6930.0,0.8473106720435384
412,6950.0,0.8444076730232655
413,6970.0,0.8519566740029925
414,6990.0,0.8473106749827196
415,7010.0,0.8327926759624467
416,7030.0,0.8478906769421738
417,7050.0,0.8513746779219008
418,7070.0,0.8293066789016279
419,7090.0,0.808401679881355
420,7110.0,0.790399680861082
421,7130.0,0.7764616818408091
422,7150.0,0.7747196828205362
423,7170.0,0.7811076838002633
424,7190.0,0.7631056847799904
425,7210.0,0.7787856857597174
426,7230.0,0.7909806867394445
427,7250.0,0.7950456877191716
428,7270.0,0.7979506886988986
429,7290.0,0.7845926896786257
430,7310.0,0.8025946906583529
431,7330.0,0.8049176916380799
432,7350.0,0.810723692617807
433,7370.0,0.8269856935975342
434,7390.0,0.8113046945772613
435,7410.0,0.8089836955569883
436,7430.0,0.8252416965367154
437,7450.0,0.8252416975164425
438,7470.0,0.8351156984961695
439,7490.0,0.8322106994758967
440,7510.0,0.8403407004556237
441,7530.0,0.8507927014353508
442,7550.0,0.8554387024150779
443,7570.0,0.850792703394805
444,7585.77575,0.8388851680676016
445,7590.0,0.8356967187985148
446,7610.0,0.8223387880695732
447,7630.0,0.8078198573406313
448,7650.0,0.7933029266116896
449,7670.0,0.760201995882748
450,7690.0,0.7764620651538061
451,7710.0,0.7625261344248645
452,7730.0,0.7636872036959227
453,7750.0,0.757879272966981
454,7770.0,0.7648483422380392
455,7790.0,0.7718164115090976
456,7810.0,0.7700744807801558
457,7830.0,0.7631065500512142
458,7850.0,0.7532346193222723
459,7870.0,0.7642686885933307
460,7890.0,0.7526537578643889
461,7910.0,0.7363928271354473
462,7930.0,0.7387168964065055
463,7950.0,0.7323279656775639
464,7970.0,0.754977034948622
465,7990.0,0.7543971042196804
466,8010.0,0.7602031734907386
467,8030.0,0.7613642427617969
468,8050.0,0.7607843120328551
469,8070.0,0.7683343813039135
470,8090.0,0.7590434505749717
471,8110.0,0.7660115198460299
472,8130.0,0.7845945891170882
473,8150.0,0.7909826583881465
474,8170.0,0.7967897276592049
475,8190.0,0.775883796930263
476,8210.0,0.7654298662013214
477,8230.0,0.7694959354723796
478,8250.0,0.7689160047434379
479,8270.0,0.7770450740144962
480,8290.0,0.7689161432855545
481,8310.0,0.7433642125566127
482,8330.0,0.739299281827671
483,8350.0,0.7387183510987293
484,8370.0,0.7422034203697876
485,8390.0,0.7195534896408459
486,8410.0,0.7398795589119042
487,8430.0,0.7079396281829624
488,8450.0,0.6945836974540207
489,8470.0,0.694002766725079
490,8490.0,0.7015518359961372
491,8510.0,0.6684519052671954
492,8530.0,0.7021329745382539
493,8550.0,0.6475450438093121
494,8570.0,0.7218771130803703
495,8590.0,0.7056181823514286
496,8610.0,0.7114242516224868
497,8630.0,0.7340733208935452
498,8650.0,0.7323303901646034
499,8670.0,0.6585804594356617
500,8690.0,0.71665152870672
501,8709.6359,0.7417394043516977
502,8710.0,0.7422046003283379
503,8730.0,0.7439457987155552
504,8750.0,0.7207169971027726
505,8770.0,0.7468491954899898
506,8790.0,0.7590463938772072
507,8810.0,0.7451085922644245
508,8830.0,0.7514977906516417
509,8850.0,0.7427859890388591
510,8870.0,0.7056201874260764
511,8890.0,0.7323323858132937
512,8910.0,0.743947584200511
513,8930.0,0.7300107825877283
514,8950.0,0.7317529809749457
515,8970.0,0.733495179362163
516,8990.0,0.7317533777493802
517,9010.0,0.6945875761365975
518,9030.0,0.7259477745238149
519,9050.0,0.7561439729110322
520,9070.0,0.7549831712982494
521,9090.0,0.7387233696854668
522,9110.0,0.7485965680726842
523,9130.0,0.7619537664599014
524,9150.0,0.7567269648471187
525,9170.0,0.7549841632343359
526,9190.0,0.7613713616215533
527,9210.0,0.7294325600087705
528,9230.0,0.6986557583959879
529,9250.0,0.7096889567832052
530,9270.0,0.7184001551704225
531,9290.0,0.7125923535576398
532,9310.0,0.7178195519448571
533,9330.0,0.7178197503320745
534,9350.0,0.7154969487192917
535,9370.0,0.703883147106509
536,9390.0,0.7149163454937264
537,9410.0,0.6980765438809436
538,9430.0,0.717240742268161
539,9450.0,0.7062069406553784
540,9470.0,0.7213061390425956
541,9490.0,0.7218853374298129
542,9510.0,0.7091115358170302
543,9530.0,0.7073697342042475
544,9550.0,0.6812359325914649
545,9570.0,0.7009811309786822
546,9590.0,0.7184033293658995
547,9610.0,0.7085315277531168
548,9630.0,0.711433726140334
549,9650.0,0.7004009245275513
550,9670.0,0.6992401229147687
551,9690.0,0.710273321301986
552,9710.0,0.7009825196892033
553,9730.0,0.6945947180764206
554,9750.0,0.6911109164636379
555,9770.0,0.6940141148508553
556,9790.0,0.6847233132380725
557,9810.0,0.7004025116252898
558,9830.0,0.6934347100125071
559,9850.0,0.6974989083997244
560,9870.0,0.6922731067869418
561,9890.0,0.691112305174159
562,9910.0,0.6858865035613764
563,9930.0,0.6893697019485937
564,9950.0,0.6899509003358109
565,9970.0,0.6899510987230282
566,9990.0,0.6870472971102456
567,10000.0,0.6851601463038542
568,10030.0,0.6794986946717534
569,10070.0,0.668466092495619
570,10130.0,0.6794996892314175
571,10170.0,0.6719520870552831
572,10220.0,0.6725325843351151
573,10280.0,0.6725331810709135
574,10320.0,0.6626605788947791
575,10380.0,0.6574341756305775
576,10430.0,0.6591766729104095
577,10480.0,0.6498861701902415
578,10520.0,0.6464035680141071
579,10580.0,0.6353701647499056
580,10630.0,0.6301436620297376
581,10680.0,0.6208521593095695
582,10720.0,0.6231765571334351
583,10780.0,0.6173701538692337
584,10820.0,0.6080795516930992
585,10870.0,0.6051750489729312
586,10920.0,0.5970455462527632
587,10980.0,0.5935611429885617
588,11020.0,0.5935615408124273
589,11080.0,0.5865941375482256
590,11130.0,0.5836906348280577
591,11170.0,0.5783490326519233
592,11220.0,0.5776525299317553
593,11280.0,0.5685931266675537
594,11330.0,0.5670256239473858
595,11380.0,0.5630191212272176
596,11430.0,0.5563426185070497
597,11470.0,0.5622650163309153
598,11481.5362,0.5617292745753073
599,11530.0,0.5594790570283367
600,11570.0,0.5524528212796164
601,11620.0,0.5438587765937161
602,11670.0,0.5426417319078158
603,11730.0,0.5451398782847355
604,11770.0,0.5334096425360153
605,11830.0,0.528764788912935
606,11870.0,0.5202295531642147
607,11920.0,0.5276645084783145
608,11980.0,0.510301654855234
609,12030.0,0.5184316101693338
610,12070.0,0.5130313744206136
611,12120.0,0.5127423297347133
612,12180.0,0.513149476111633
613,12230.0,0.5092024314257327
614,12270.0,0.5050211956770125
615,12320.0,0.5010151509911122
616,12370.0,0.49927610630521196
617,12430.0,0.49288825268213166
618,12480.0,0.4910882079962314
619,12530.0,0.4858051633103311
620,12580.0,0.4837151186244308
621,12620.0,0.4807558828757105
622,12670.0,0.4759358381898103
623,12720.0,0.47547179350391006
624,12780.0,0.4740789398808297
625,12830.0,0.4539868951949294
626,12880.0,0.46490585050902916
627,12920.0,0.45997061476030887
628,12980.0,0.4638627611372286
629,13020.0,0.45735852538850835
630,13080.0,0.458520671765428
631,13130.0,0.44905762707952773
632,13180.0,0.4473155823936275
633,13182.5674,0.44730371871109587
634,13230.0,0.44708496976104656
635,13280.0,0.4392463805143582
636,13320.0,0.4396545091170076
637,13380.0,0.4345452020209817
638,13430.0,0.4359406127742934
639,13470.0,0.4321087413769427
640,13520.0,0.42897415213025447
641,13570.0,0.4225875628835662
642,13630.0,0.42044025578754024
643,13670.0,0.42160338439018963
644,13730.0,0.42172007729416366
645,13770.0,0.42009720589681304
646,13820.0,0.42009861665012477
647,13880.0,0.4158023095540988
648,13930.0,0.40169272030741054
649,13970.0,0.3993698489100599
650,14020.0,0.3946102596633716
651,14080.0,0.39716695256734563
652,14120.0,0.39182508116999504
653,14180.0,0.3951377740739691
654,14230.0,0.3902601848272808
655,14280.0,0.3841055955805925
656,14330.0,0.39014700633390426
657,14380.0,0.39223941708721594
658,14420.0,0.3820185456898654
659,14480.0,0.3886412385938394
660,14520.0,0.3845773671964887
661,14570.0,0.38643777794980044
662,14620.0,0.3794701887031122
