,lambda (Angstroms),Total Flux (erg/s/cm^2/Angstrom)
0,1006.0,2.01164073225143
1,1017.65,0.8700962805165616
2,1029.44,1.2958598233531193
3,1041.36,2.745019361148859
4,1053.42,2.550038893516025
5,1065.61,2.609428420842373
6,1077.95,2.2884879423523916
7,1090.44,2.874387458046082
8,1096.4782,2.858645799189043
9,1103.06,2.8414864251419947
10,1115.83,2.615444875370017
11,1128.76,3.1300033061803796
12,1141.83,2.961721720000289
13,1155.05,3.137220115616143
14,1168.42,2.491988493027941
15,1181.95,2.609416851022079
16,1195.64,1.5687351895985566
17,1209.48,0.9474525099709785
18,1223.49,2.2570718097121367
19,1237.66,3.0376800900356353
20,1251.99,2.8876383509414736
21,1258.92541,3.0209802195335747
22,1266.48,3.1662275744708883
23,1281.15,3.173527701106497
24,1295.99,2.6214578292095934
25,1310.99,3.247447958693855
26,1326.17,2.861158089731928
27,1341.53,3.087038222323813
28,1357.06,2.941318356383185
29,1372.78,2.8089384920826914
30,1388.67,2.407368629249686
31,1404.75,2.579548768056815
32,1421.02,2.627508908504078
33,1437.47,2.7323990505051516
34,1445.43977,2.711481464707876
35,1454.12,2.6886991821906285
36,1470.96,2.6518193041962173
37,1487.99,2.621459427578354
38,1505.22,2.396319552409488
39,1522.65,2.18546967868962
40,1540.28,2.0537398064187484
41,1558.12,2.165439935669325
42,1576.16,2.246700066368899
43,1594.41,2.0775201985899203
44,1612.87,2.039600332332389
45,1631.55,2.0116104676687545
46,1650.44,1.952290604526568
47,1659.58691,1.9963356031977
48,1669.55,2.0443111979308233
49,1688.88,1.9568022206576763
50,1708.44,1.7846232555535504
51,1728.22,1.8687343020893574
52,1748.24,1.8644353613232736
53,1768.48,1.801146432197123
54,1788.96,1.7805275157690812
55,1809.67,1.7359886115100602
56,1830.63,1.6126897204782362
57,1851.83,1.5401008421445208
58,1873.27,1.4741819765089146
59,1894.96,1.4143431241005051
60,1905.46072,1.370617800957071
61,1916.9,1.322982899521794
62,1939.1,1.338301385481458
63,1961.55,1.2958498543911185
64,1984.27,1.1955183048867746
65,2007.24,1.217736738332427
66,2030.49,1.1602551526820752
67,2054.0,1.0803235492997194
68,2077.78,1.1157119275033596
69,2101.84,1.0753602866109955
70,2126.18,1.0151986266226272
71,2150.8,0.9966749475382546
72,2175.71,0.9584142486758777
73,2187.7616199999998,0.9337623858461209
74,2200.9,0.9068891411593781
75,2226.38,0.9048055266435986
76,2252.16,0.8965119284404275
77,2278.24,0.9068933465498651
78,2304.62,0.908984780971911
79,2331.31,0.8761092322503193
80,2358.31,0.8821837003850898
81,2385.61,0.8740971848324688
82,2413.24,0.8862586872237171
83,2441.18,0.9110882064713277
84,2469.45,0.8903517436628078
85,2498.04,0.8801622982544035
86,2511.88643,0.8753414495060899
87,2526.97,0.8700887337298904
88,2556.23,0.9027381179620666
89,2585.83,0.8883044950390458
90,2615.77,0.8801608649608282
91,2646.06,0.9027362275169669
92,2676.7,0.8761155827074617
93,2707.7,0.8405469303218657
94,2739.05,0.8176402705706259
95,2770.77,0.8214146030328483
96,2802.85,0.8581449279189799
97,2835.31,0.8176392448081269
98,2868.14,0.834757553910736
99,2884.0315,0.848793993372345
100,2901.35,0.8640912120201304
101,2934.95,0.8366811975491325
102,2968.93,0.8252031829144746
103,3003.31,0.7990271681075429
104,3038.09,0.8045651531283375
105,3073.27,0.8045651379768582
106,3108.85,0.8252021226531051
107,3144.85,0.8027151071484646
108,3181.27,0.8252020914629365
109,3218.1,0.817637075600828
110,3255.37,0.8271050595492182
111,3293.06,0.8157570433167208
112,3311.31121,0.8157570354562084
113,3331.19,0.8157568717935779
114,3369.77,0.8064195541633657
115,3408.79,0.8045642329106215
116,3448.26,0.7808389079530147
117,3488.19,0.782638579208215
118,3528.58,0.7971882466762227
119,3569.44,0.7405629102747072
120,3610.77,0.7754625700036688
121,3652.58,0.7491372257807769
122,3694.88,0.8720828775237015
123,3737.66,0.8082745253147727
124,3780.94,0.81763316898933
125,3801.8939600000003,0.8456197908338636
126,3824.72,0.8761068477042896
127,3869.01,0.7772475590407419
128,3913.81,0.8082742670532292
129,3959.13,0.9258819716765757
130,4004.98,1.0532986728456057
131,4051.35,1.026958370625495
132,4098.26,1.0151980648858918
133,4145.72,1.0222377555616204
134,4193.73,1.0340774426526813
135,4242.29,1.0151971261590738
136,4291.41,0.9829998060156223
137,4341.1,1.0630464821571513
138,4365.15832,1.057221981722779
139,4391.37,1.050876423070416
140,4442.22,1.0412466126355469
141,4493.66,1.1054868044001553
142,4545.69,1.108026998364241
143,4598.33,1.1157071946023627
144,4651.57,1.0803173930772412
145,4705.44,1.0630475939007142
146,4759.92,1.0654977969982233
147,4815.04,1.0460480024816061
148,4870.8,1.0679582103508627
149,4927.2,1.1826384206059932
150,4984.25,1.2833686332842769
151,5011.87234,1.1572784011370931
152,5041.97,1.019888871007132
153,5100.35,0.9739901323773816
154,5159.41,0.9280173967920259
155,5219.15,0.9898166642510651
156,5279.59,1.0371799348440398
157,5340.72,0.9966772085261802
158,5402.56,0.9891344853870269
159,5465.12,0.9985167654713504
160,5528.41,1.001281048823921
161,5592.42,0.971529335399969
162,5657.18,0.973320625333805
163,5722.69,0.9737689186254296
164,5754.399369999999,0.979490721135028
165,5788.95,0.9857254545667286
166,5855.99,0.8791412190160715
167,5923.79,0.9363929921316061
168,5992.39,0.939848774369448
169,6061.78,0.9348855656155682
170,6131.97,0.8848303659839957
171,6202.98,0.881375175702788
172,6274.8,0.9014899946579162
173,6347.46,0.9171928231914672
174,6420.96,0.9062776613034407
175,6495.31,0.9115105091078656
176,6570.52,0.8994193667187705
177,6606.93448,0.8885586093427374
178,6646.61,0.8767247845523568
179,6723.57,0.8702887896024479
180,6801.43,0.8690877947115967
181,6880.18,0.8660907998791469
182,6959.85,0.8646958051070673
183,7040.44,0.8549948103953579
184,7121.97,0.826922815745331
185,7204.44,0.8193418211569864
186,7287.86,0.8339968266309807
187,7372.25,0.8378458321686261
188,7457.62,0.8506758377705786
189,7543.97,0.8452088434368387
190,7585.77575,0.8333724975022343
191,7631.33,0.8204750575337727
192,7719.69,0.8189654674891306
193,7809.08,0.8075438822232799
194,7899.51,0.7806693017826167
195,7990.8,0.7985217253320126
196,8083.32,0.7987061545881208
197,8176.92,0.7756895888550004
198,8271.61,0.7648720281790479
199,8367.39,0.7603074725602632
200,8464.28,0.7319659220914381
201,8562.29,0.7334843768189688
202,8661.44,0.7578618368356476
203,8709.6359,0.7498183574422196
204,8761.73,0.7411247526449795
205,8863.19,0.7485001007930074
206,8965.82,0.7089164644873905
207,9069.64,0.7250948439938785
208,9174.66,0.696622239445346
209,9280.9,0.6711186511075428
210,9388.37,0.6341650791133436
211,9497.08,0.6817115235956236
212,9607.05,0.678112984820132
213,9718.29,0.665125462919744
214,9830.74,0.6736149570972104
215,9944.57,0.6740824696114034
216,10000.0,0.6695570406714612
217,10059.7,0.6646830014974295
218,10176.2,0.6545105535834945
219,10294.1,0.6470081243212377
220,10413.3,0.6404887123783961
221,10533.9,0.6272113190872325
222,10655.9,0.625626944447747
223,10779.3,0.6177555884599395
224,10904.1,0.6014782511238101
225,11030.4,0.5877909337716214
226,11158.1,0.5830746350711107
227,11287.3,0.5757403563545408
228,11418.0,0.5669290976219117
229,11481.5362,0.5590181973103805
230,11550.2,0.5504697014603774
231,11684.0,0.546432125914319
232,11819.3,0.5408045887590001
233,11956.1,0.5325300899944202
234,12094.6,0.5234176347393449
235,12234.6,0.5137512178750089
236,12376.3,0.5004478445201772
237,12519.6,0.48636851211546756
238,12664.8,0.4872462283390276
239,12811.5,0.48089798295332686
240,12959.9,0.4743057810771306
241,13109.9,0.46769662015105634
242,13182.5674,0.46427191049378913
243,13261.7,0.4605434708441242
244,13415.3,0.45204027623308085
245,13570.6,0.4395301458743892
246,13727.8,0.4385260873271495
247,13886.7,0.4314220930322615
248,14047.5,0.42170817054882553
249,14210.2,0.4057193198768414
250,14374.7,0.40432653723675915
251,14541.2,0.38632183018767896
252,14709.6,0.39215019495005066
253,14879.9,0.4021196315238743
254,15052.2,0.39524414368870003
255,15135.6125,0.3943356450580803
256,15226.5,0.3933483015695477
257,15402.8,0.39335995034386767
258,15581.2,0.37585073787273143
259,15761.6,0.3865636575487798
260,15944.1,0.37639371597937193
261,16128.7,0.3561849131645079
262,16315.5,0.3554602557115469
263,16504.4,0.35875873701312966
264,16695.5,0.3449313636766154
265,16888.8,0.34336113570200427
266,17084.4,0.32997705969665536
267,17282.2,0.3210071290532095
268,17378.0083,0.3145121819517612
269,17482.4,0.30744145122979427
270,17684.8,0.288294640357607
271,17889.6,0.27938012817072966
272,18096.7,0.2745039022239411
273,18306.3,0.25471098740768394
274,18518.3,0.24929337127673673
275,18732.7,0.24050405383109952
276,18949.6,0.23147504751599363
277,19169.0,0.22332635233141904
278,19391.0,0.21514098072259696
279,19615.5,0.2069489202443062
280,19842.7,0.19995219578698917
281,19952.6231,0.1972946058502822
282,20072.4,0.19441197925236045
283,20304.9,0.18815653080174952
284,20540.0,0.18189169238997047
285,20777.8,0.17623448748005524
286,21018.4,0.17039393953503593
287,21261.8,0.16409804855491245
288,21338.5,0.16278204470045285
289,22908.6765,0.14333749932501835
290,25345.3,0.11361107344176373
291,26302.679900000003,0.10736305289739252
292,29014.6,0.09009886196624095
293,30199.5172,0.0847347159550334
294,32012.6,0.07667591516384883
295,34673.685,0.06974542839020374
296,35757.2,0.06689755245278012
297,39810.7171,0.059708617980709984
298,40433.8,0.05851273169869478
299,43528.4,0.05528072427753287
300,45708.818999999996,0.053881909155461774
301,47439.4,0.052476993870759076
302,51701.8,0.05092838237109146
303,52480.746,0.05089434794330672
304,56347.2,0.04993397515938352
305,58016.0,0.051093221192228845
306,58952.0,0.05254023378016223
307,59887.0,0.05414223032900595
308,60255.9586,0.054452598188669904
309,60821.0,0.0548604420209281
310,61740.0,0.05467034866888591
311,62659.0,0.05479815531684372
312,63575.0,0.05679587206279514
313,64492.0,0.05655888544274869
314,65395.0,0.055526945946672415
315,66296.0,0.05414131318259188
316,67000.0,0.05299412180456506
317,67217.0,0.05263203554804499
318,68143.0,0.04970064254290575
319,69063.0,0.04938130413607193
320,69242.2916,0.049642024212315394
321,69975.0,0.05063387455479945
322,70885.0,0.053520713620011234
323,71559.6261,0.05649702983768316
324,71795.0,0.05751397585698709
325,72705.0,0.06218598144357314
326,73614.0,0.06841242119984428
327,73954.515,0.07006840936988498
328,74522.0,0.07264840693097424
329,75429.0,0.0759865631270809
330,76335.0,0.07814247030863837
331,76429.5536,0.07823794715585358
332,77242.0,0.0787638841628486
333,78146.0,0.07671777062281455
334,78987.42450000001,0.0745175818772212
335,79050.0,0.07434808190324167
336,79954.0,0.07071309229664624
337,80856.0,0.06671791726882645
338,81630.8998,0.06294180560589681
339,81758.0,0.06233248705781112
340,82658.0,0.058048454231886454
341,83558.0,0.05374982140596178
342,84362.84430000001,0.04994002160720663
343,84459.0,0.04952417241458773
344,85357.0,0.04557043252890771
345,86255.0,0.041530192643227694
346,87151.0,0.037368191599163894
347,87186.21900000001,0.03722663947034297
348,88048.0,0.03394799149385559
349,88944.0,0.03079225746898691
350,89838.0,0.0279052328950666
351,90104.0836,0.027082029904979044
352,90733.0,0.025189174437697536
353,91626.0,0.023186826032655834
354,92518.0,0.02140869828652235
355,93119.6005,0.02088012092784771
356,93410.0,0.02069097384345826
357,94300.0,0.02001767061374094
358,95190.0,0.01970356738402362
359,96080.0,0.0195823641543063
360,96236.03790000001,0.01956341881955076
361,96968.0,0.019559908016874045
362,97856.0,0.01956974878982264
363,98743.0,0.019593166318657554
364,99456.7731,0.01955006429072292
365,99641.0,0.019549878103799514
366,100545.0,0.01961076626771672
367,101448.0,0.019878671811983575
368,102348.0,0.020284629497299377
369,102785.297,0.020565102157350405
370,103250.0,0.02085724832166321
371,104150.0,0.02165337141278142
372,105048.0,0.022640954674808256
373,105947.0,0.023854207851380777
374,106225.216,0.024243890956089083
375,106845.0,0.02513726706338824
376,107741.0,0.026552851051069616
377,108638.0,0.028654045735165813
378,109525.0,0.030248133455113783
379,109780.26,0.0315418641950785
380,110388.0,0.03462083395171949
381,111321.0,0.033662824633695694
382,112576.0,0.032330407598197435
383,113454.28,0.0316910580477175
384,115773.0,0.029993065537324226
385,117251.259,0.029424546354577162
386,120781.0,0.02807358308143057
387,121175.312,0.027119045480853032
388,122180.0,0.02465141653203894
389,123595.0,0.02561194542045809
390,125026.0,0.026160907639064306
391,125230.691,0.026151318598238084
392,126474.0,0.02606019341432807
393,127938.0,0.025589076115501465
394,129420.0,0.024658757784312237
395,129421.79100000001,0.024657469402353163
396,130918.0,0.023503315296486332
397,132434.0,0.022754342227870632
398,133753.155,0.022532037539555197
399,133968.0,0.02248619407815526
400,135519.0,0.022409177958858988
401,137088.0,0.022424116971640512
402,138229.477,0.022462675354653645
403,138676.0,0.02246321891125303
404,140281.0,0.022482506067990154
405,141906.0,0.02246299213010718
406,142855.609,0.02242175671865003
407,143549.0,0.022358523585835163
408,145211.0,0.022108668084346177
409,146893.0,0.02185155607862748
410,147636.563,0.021985303135740916
411,148594.0,0.02216054317201761
412,150314.0,0.022634214116866093
413,152055.0,0.022686662032552835
414,152577.522,0.022653613769700577
415,153815.0,0.022570199286164397
416,155597.0,0.022255419044423547
417,157398.0,0.021015996084055834
418,157683.84,0.02103571055181952
419,159221.0,0.02115223090115613
420,161065.0,0.021328251696051077
421,162930.0,0.02124530559110481
422,162961.05099999998,0.021244592488182404
423,164816.0,0.02119119151103545
424,166725.0,0.021163541810221054
425,168414.875,0.021125682585911736
426,168655.0,0.02112511475693383
427,170608.0,0.021117756920313445
428,172584.0,0.021117705161397996
429,174051.222,0.021115698267549478
430,174582.0,0.021116439843231697
431,176604.0,0.021118891003608392
432,178649.0,0.021123911835937936
433,179876.201,0.021125152391521042
434,180717.0,0.021117595237294305
435,182810.0,0.021101207593195948
436,184927.0,0.021086939632108406
437,185896.125,0.021079132188161133
438,187068.0,0.021091443225097796
439,189234.0,0.021119099035152925
440,191426.0,0.021144317103315824
441,192117.51799999998,0.02115295584496413
442,193642.0,0.021154784580638582
443,195884.0,0.021157311490279235
444,198153.0,0.021162094299366947
445,198547.123,0.02116332515158898
446,200447.0,0.02117144691628102
447,202768.0,0.021181140513394127
448,205116.0,0.021190621110559818
449,205191.907,0.021191025977634365
450,207491.0,0.02116826595044677
451,209894.0,0.021146103352018632
452,212059.073,0.021128117300055843
453,212324.0,0.02112643440258133
454,214783.0,0.02111047704413562
455,217270.0,0.021096723302592525
456,219156.062,0.02108594741519291
457,219786.0,0.021082821580589516
458,222331.0,0.021075337393915546
459,224905.0,0.0210671537410673
460,226490.56699999998,0.021063665275723946
461,227510.0,0.02104366550676668
462,230144.0,0.020994454657064128
463,232809.0,0.02094415613221321
464,234070.535,0.020922778261176087
465,235505.0,0.0209028404711602
466,238232.0,0.020864475240494288
467,240991.0,0.02083087829461704
468,241904.18300000002,0.02082053865081763
469,243781.0,0.02079236999455091
470,246604.0,0.020749603765570675
471,249459.0,0.020707987866265477
472,250000.0,0.020701255810572233
473,252348.0,0.020669894749322897
474,255270.0,0.020630485852688014
475,258226.0,0.02059311189702316
476,261216.0,0.02055487288232833
477,264241.0,0.020521725718632054
478,267301.0,0.020487770405934337
479,270396.0,0.020453106944235175
480,273527.0,0.020420692243563094
481,275422.87,0.020402633923387925
482,276694.0,0.020393355496168452
483,279898.0,0.02036962646668926
484,283139.0,0.020345185460277873
485,286418.0,0.020323191612692894
486,289734.0,0.020294485788175727
487,293089.0,0.02028388625824355
488,296483.0,0.02027299302289636
489,299916.0,0.020229206082134167
490,303389.0,0.020217184571715553
491,306902.0,0.02020462849164052
492,310456.0,0.020158496977667657
493,314051.0,0.02014469002979696
494,316227.766,0.020136199455970574
495,317687.0,0.02014057410227068
496,321366.0,0.02015121395933968
497,325087.0,0.020127427253211316
498,328852.0,0.020137346052304765
499,332660.0,0.02014710432241043
500,336512.0,0.02012146809773791
501,340408.0,0.020130537378287197
502,344350.0,0.02013924423247747
503,348337.0,0.020111722626099133
504,352371.0,0.02011970462757137
505,356451.0,0.020090724202684585
506,360579.0,0.020097913419857956
507,363078.055,0.020079712413232854
508,364754.0,0.02008261082896047
509,368978.0,0.02008930845731255
510,373250.0,0.020133508331441355
511,377572.0,0.02013966054492092
512,381944.0,0.020145465097751246
513,386367.0,0.020150697036719345
514,390841.0,0.02015535636182522
515,395367.0,0.02015961811985588
516,399945.0,0.020123982310811327
517,404576.0,0.02012702398147858
518,409261.0,0.020129418178644654
519,414000.0,0.020091264902309544
520,416869.38300000003,0.02009190790802656
521,418794.0,0.020108916358997656
522,423643.0,0.020110683758462408
523,428548.0,0.020111836118613904
524,433511.0,0.02011254075947667
525,438531.0,0.020112614021038443
526,443609.0,0.020112039563311493
527,448745.0,0.02006951738629581
528,453942.0,0.020067698470028192
529,459198.0,0.02002341549448411
530,464515.0,0.01997833577968808
531,469894.0,0.019932242985652385
532,475335.0,0.01988533711237701
533,478630.092,0.019856639583517348
534,480839.0,0.019852343300729953
535,486407.0,0.019841225277714297
536,492040.0,0.019787284828065015
537,497737.0,0.019732731527576472
538,503501.0,0.019677536648865582
539,509331.0,0.019621709767726703
540,515229.0,0.019565231732571107
541,521195.0,0.019465902543398802
542,527230.0,0.019366112624415417
543,533335.0,0.01930765239982659
544,539511.0,0.019164712293837954
545,545758.0,0.019063092306449522
546,549540.874,0.019001964412310265
547,552077.0,0.01897228033032368
548,558470.0,0.01885644063956479
549,564937.0,0.018740721981636163
550,571479.0,0.018624919235359826
551,578096.0,0.018468232400735776
552,584790.0,0.01835265123540808
553,591562.0,0.01821277061819876
554,598412.0,0.01801709054910782
555,605341.0,0.017862105906957294
556,612350.0,0.01770751157056921
557,619441.0,0.017514297297587623
558,626614.0,0.017322063088012544
559,630957.3439999999,0.017207577863195288
560,633870.0,0.017138321377588778
561,641210.0,0.016929076450595184
562,648634.0,0.016759318148415286
563,656145.0,0.016553438850506717
564,663743.0,0.016349638556869477
565,671429.0,0.016147614727322776
566,679204.0,0.01591176482168583
567,687068.0,0.01571388883995863
568,695024.0,0.015482879161598814
569,703072.0,0.015254535786606382
570,711214.0,0.015028753634619751
571,719449.0,0.014805635245819716
572,724435.96,0.014673546205477719
573,727780.0,0.014589492622957528
574,736207.0,0.01435027599609555
575,744732.0,0.014114542883006861
576,753356.0,0.0139137920950565
577,762079.0,0.013684523632244462
578,770903.0,0.013458635117300817
579,779830.0,0.01323602417295563
580,788860.0,0.012987190799208903
581,797995.0,0.012771532618790703
582,807235.0,0.01253054963170103
583,816582.0,0.012321639460669949
584,826038.0,0.01208819972842753
585,831763.771,0.01195077566120871
586,835603.0,0.011861153727273034
587,845279.0,0.011641811943104124
588,855067.0,0.011426310642624041
589,864968.0,0.011214649294437148
590,874984.0,0.011006626835752174
591,885116.0,0.010802242735173486
592,895365.0,0.010577296461305445
593,905733.0,0.010380486951356783
594,916221.0,0.010163813673931864
595,926830.0,0.00997424609763505
596,937562.0,0.009765523159675073
597,948418.0,0.009560974328656298
598,954992.586,0.009453740683008185
599,959401.0,0.009383163155145762
600,970510.0,0.009189469184706322
601,981748.0,0.008999565440913144
602,993116.0,0.008813511692965032
603,1004620.0,0.00863120655605484
604,1016250.0,0.008452532338194483
605,1028020.0,0.008277505808167279
606,1039920.0,0.008105909273985143
607,1051960.0,0.00793780042763616
608,1064140.0,0.007772959269120327
609,1076470.0,0.0075940834904257275
610,1088930.0,0.007436157707576198
611,1096478.2,0.007333529481395533
612,1101540.0,0.007265384906651098
613,1114290.0,0.007099438980901555
