,lambda (Angstroms),Total Flux (erg/s/cm^2/Angstrom)
0,1006.0,2.0117621967542907
1,1017.65,0.8702168415496847
2,1029.44,1.295979470059358
3,1041.36,2.7451380834465766
4,1053.42,2.5501566805480747
5,1065.61,2.609545262527118
6,1077.95,2.288603827057175
7,1090.44,2.8745023741382454
8,1096.4782,2.858760247012454
9,1103.06,2.8415992754259847
10,1115.83,2.6155546261100513
11,1128.76,3.1301099185411383
12,1141.83,2.961825160000868
13,1155.05,3.1373203468484294
14,1168.42,2.4920854790838227
15,1181.95,2.609510553066236
16,1195.64,1.56882556879567
17,1209.48,0.9475395299129356
18,1223.49,2.2571554291364104
19,1237.66,3.0377602701069057
20,1251.99,2.887715052824421
21,1258.92541,3.0210552380486173
22,1266.48,3.1663027234126657
23,1281.15,3.1736031033194907
24,1295.99,2.62153348762878
25,1310.99,3.2475238760815657
26,1326.17,2.861234269195785
27,1341.53,3.0871146669714378
28,1357.06,2.941395069149555
29,1372.78,2.8090154762480743
30,1388.67,2.4074458877490588
31,1404.75,2.579626304170445
32,1421.02,2.627586725512234
33,1437.47,2.732477151515455
34,1445.43977,2.711559703312818
35,1454.12,2.6887775465718855
36,1470.96,2.651897912588652
37,1487.99,2.6215382827350617
38,1505.22,2.3963986572284637
39,1522.65,2.185549036068859
40,1540.28,2.0538194192562456
41,1558.12,2.165519807007975
42,1576.16,2.2467801991066967
43,1594.41,2.0776005957697605
44,1612.87,2.0396809969971663
45,1631.55,2.011691403006264
46,1650.44,1.9523718135797037
47,1659.58691,1.9964169447893323
48,1669.55,2.0443935937924693
49,1688.88,1.9568866619730285
50,1708.44,1.7847097666606508
51,1728.22,1.8688229062680726
52,1748.24,1.864526083969821
53,1768.48,1.8012392965913686
54,1788.96,1.7806225473072432
55,1809.67,1.7360858345301808
56,1830.63,1.6127891614347085
57,1851.83,1.5402025264335628
58,1873.27,1.474285929526744
59,1894.96,1.4144493723015155
60,1905.46072,1.3707251603187973
61,1916.9,1.323088698565382
62,1939.1,1.3384041564443743
63,1961.55,1.2959495631733553
64,1984.27,1.1956149146603239
65,2007.24,1.2178302149972808
66,2030.49,1.1603454580462256
67,2054.0,1.0804106478991582
68,2077.78,1.1157957825100786
69,2101.84,1.0754408598329865
70,2126.18,1.0152758798678816
71,2150.8,0.9967488426147638
72,2175.71,0.9584847460276329
73,2187.7616199999998,0.9338312393565436
74,2200.9,0.9069594234781344
75,2226.38,0.9048785799307957
76,2252.16,0.8965877853212825
77,2278.24,0.906972039649595
78,2304.62,0.9090663429157332
79,2331.31,0.876193696750958
80,2358.31,0.8822711011552693
81,2385.61,0.8741875544974063
82,2413.24,0.8863520616711514
83,2441.18,0.9111846194139832
84,2469.45,0.8904512309884233
85,2498.04,0.8802648947632106
86,2511.88643,0.8754455518241806
87,2526.97,0.8701922011896711
88,2556.23,0.9028403538861997
89,2585.83,0.8884054851171376
90,2615.77,0.8802605948824849
91,2646.06,0.9028346825509007
92,2676.7,0.8762127481223851
93,2707.7,0.8406427909655971
94,2739.05,0.8177348117118777
95,2770.77,0.8215078090985448
96,2802.85,0.8582367837569397
97,2835.31,0.8177297344243805
98,2868.14,0.8348466617322079
99,2884.0315,0.8488824323302234
100,2901.35,0.8641796360603913
101,2934.95,0.8367695926473977
102,2968.93,0.8252915487434239
103,3003.31,0.7991155043226288
104,3038.09,0.8046534593850124
105,3073.27,0.8046534139305745
106,3108.85,0.8252903679593153
107,3144.85,0.8028033214453938
108,3181.27,0.8252902743888096
109,3218.1,0.8177252268024838
110,3255.37,0.8271931786476544
111,3293.06,0.8158451299501626
112,3311.31121,0.8158451063686251
113,3331.19,0.8158446153807337
114,3369.77,0.8065066624900974
115,3408.79,0.8046506987318646
116,3448.26,0.7809247238590441
117,3488.19,0.7827237376246452
118,3528.58,0.7972727400286681
119,3569.44,0.7406467308241218
120,3610.77,0.7755457100110064
121,3652.58,0.7492196773423307
122,3694.88,0.8721646325711044
123,3737.66,0.8083555759443181
124,3780.94,0.8177135069679901
125,3801.8939600000003,0.8456997837834538
126,3824.72,0.8761865431128688
127,3869.01,0.7773266771222257
128,3913.81,0.8083528011596877
129,3959.13,0.9259599150297272
130,4004.98,1.0533760185368173
131,4051.35,1.0270351118764849
132,4098.26,1.0152741946576755
133,4145.72,1.0223132666848616
134,4193.73,1.0341523279580436
135,4242.29,1.0152713784772212
136,4291.41,0.9830734180468668
137,4341.1,1.0631194464714535
138,4365.15832,1.0572946324331074
139,4391.37,1.0509492692112476
140,4442.22,1.0413198379066404
141,4493.66,1.1055604132004657
142,4545.69,1.108100995092723
143,4598.33,1.1157815838070881
144,4651.57,1.0803921792317237
145,4705.44,1.0631227817021427
146,4759.92,1.0655733909946699
147,4815.04,1.0461240074448184
148,4870.8,1.0680346310525881
149,4927.2,1.1827152618179797
150,4984.25,1.2834458998528304
151,5011.87234,1.1573558736538276
152,5041.97,1.0199666130213967
153,5100.35,0.974068397132145
154,5159.41,0.9280961903760778
155,5219.15,0.9898959927531951
156,5279.59,1.0372598045321197
157,5340.72,0.9967576255785406
158,5402.56,0.9892154561610805
159,5465.12,0.998598296414051
160,5528.41,1.0013631464717634
161,5592.42,0.9716120061999068
162,5657.18,0.9734038760014152
163,5722.69,0.9738527558762888
164,5754.399369999999,0.9795748423148337
165,5788.95,0.9858103637001858
166,5855.99,0.8792276570482144
167,5923.79,0.9364809763948184
168,5992.39,0.939938323108344
169,6061.78,0.9349766968467048
170,6131.97,0.8849230979519871
171,6202.98,0.8814695271083639
172,6274.8,0.9015859839737489
173,6347.46,0.9172904695744016
174,6420.96,0.906376983910322
175,6495.31,0.9116115273235965
176,6570.52,0.8995221001563116
177,6606.93448,0.8886621732404607
178,6646.61,0.8768283536570705
179,6723.57,0.8703923688073437
180,6801.43,0.86919138413479
181,6880.18,0.8661943996374409
182,6959.85,0.8647994153212021
183,7040.44,0.8550984311860736
184,7121.97,0.8270264472359928
185,7204.44,0.8194454634709594
186,7287.86,0.8341004798929421
187,7372.25,0.8379494965058781
188,7457.62,0.850779513311736
189,7543.97,0.8453125303105158
190,7585.77575,0.8334761898624719
191,7631.33,0.8205791726013181
192,7719.69,0.8190704024673916
193,7809.08,0.8076496466698396
194,7899.51,0.7807759053478504
195,7990.8,0.798629175996038
196,8083.32,0.7988144637643622
197,8176.92,0.7757987665650014
198,8271.61,0.7649820845371438
199,8367.39,0.7604184176807894
200,8464.28,0.7320777662743143
201,8562.29,0.7335971304569067
202,8661.44,0.7579755105069428
203,8709.6359,0.7499324783332394
204,8761.73,0.7412402579349384
205,8863.19,0.7486183023790223
206,8965.82,0.7090373934621715
207,9069.64,0.7252185319816352
208,9174.66,0.6967487183360378
209,9280.9,0.6712479533226282
210,9388.37,0.634297237340031
211,9497.08,0.6818465707868706
212,9607.05,0.6782509544603961
213,9718.29,0.6652663887592319
214,9830.74,0.6737588712916313
215,9944.57,0.6742294088342101
216,10000.0,0.6697054529446363
217,10059.7,0.6648330044922885
218,10176.2,0.6546636607504838
219,10294.1,0.647164372963713
220,10413.3,0.6406481371351883
221,10533.9,0.6273739572616975
222,10655.9,0.6257928333432411
223,10779.3,0.6179247653798186
224,10904.1,0.6016507533714304
225,11030.4,0.5879668013148641
226,11158.1,0.5832539052133322
227,11287.3,0.5759230690636225
228,11418.0,0.567115292865735
229,11481.5362,0.5592060854924124
230,11550.2,0.5506611043811321
231,11684.0,0.5466303777429571
232,11819.3,0.541009766277
233,11956.1,0.5327422699832606
234,12094.6,0.5236369042180347
235,12234.6,0.5139776536250265
236,12376.3,0.5006815335605317
237,12519.6,0.4866095363464027
238,12664.8,0.48749468501708276
239,12811.5,0.4811539488599806
240,12959.9,0.47456934323139194
241,13109.9,0.46796786045316896
242,13182.5674,0.46454687046950954
243,13261.7,0.4608244125323726
244,13415.3,0.4523328286992425
245,13570.6,0.4398344376231676
246,13727.8,0.4388422619814485
247,13886.7,0.43175027909678454
248,14047.5,0.4220485116464765
249,14210.2,0.4060719596305242
250,14374.7,0.40469161171027745
251,14541.2,0.3866994905630368
252,14709.6,0.392540584850152
253,14879.9,0.40252289457162294
254,15052.2,0.39566043106610005
255,15135.6125,0.39475823766993795
256,15226.5,0.3937829047086431
257,15402.8,0.393817851031603
258,15581.2,0.37633221361819436
259,15761.6,0.3870689726463394
260,15944.1,0.3769231479381158
261,16128.7,0.35673873949352364
262,16315.5,0.3560387671346406
263,16504.4,0.3593622110393889
264,16695.5,0.3455600910298463
265,16888.8,0.3440154071060128
266,17084.4,0.3306571790899661
267,17282.2,0.32171338715962844
268,17378.0083,0.3152311008552838
269,17482.4,0.3081863536893828
270,17684.8,0.2890899210728209
271,17889.6,0.28022638451218895
272,18096.7,0.2754017066718234
273,18306.3,0.25566096222305174
274,18518.3,0.2502961138302101
275,18732.7,0.2415601614932986
276,18949.6,0.23258514254798093
277,19169.0,0.22449105699425714
278,19391.0,0.21636094216779092
279,19615.5,0.20822476073291857
280,19842.7,0.20128458736096755
281,19952.6231,0.1986543577702632
282,20072.4,0.19582793775708138
283,20304.9,0.18968159240524854
284,20540.0,0.18352707716991135
285,20777.8,0.17798146244016572
286,21018.4,0.17225381860510774
287,21261.8,0.16607214566473735
288,21338.5,0.1647921341013585
289,22908.6765,0.1460844107550791
290,25345.3,0.1183972203252912
291,26302.679900000003,0.11295044093882413
292,29014.6,0.09882438589872287
293,30199.5172,0.09483138323102418
294,32012.6,0.0891687454915465
295,34673.685,0.08575513812045901
296,35757.2,0.08428725735834033
297,39810.7171,0.08226099626044239
298,40433.8,0.08167699509608434
299,43528.4,0.08148397283259862
300,45708.818999999996,0.08222639114247839
301,47439.4,0.08193158161227723
302,51701.8,0.08311714711327438
303,52480.746,0.08358277865723321
304,56347.2,0.08351972547815056
305,58016.0,0.08506626357668655
306,58952.0,0.0867305013404867
307,59887.0,0.08854949098701784
308,60255.9586,0.0889454860868234
309,60821.0,0.08934952606278429
310,61740.0,0.08915324600665774
311,62659.0,0.08927486595053116
312,63575.0,0.09126641618838544
313,64492.0,0.09102325632824608
314,65395.0,0.08998523784001725
315,66296.0,0.08859353954777566
316,67000.0,0.08744160884474839
317,67217.0,0.087061106644135
318,68143.0,0.08405112762871725
319,69063.0,0.08365371240821581
320,69242.2916,0.08389921670527953
321,69975.0,0.08468162366439835
322,70885.0,0.08730834086003372
323,71559.6261,0.09009181641573087
324,71795.0,0.09099852757096126
325,72705.0,0.09524434433071943
326,73614.0,0.10104506359953283
327,73954.515,0.10254157518895013
328,74522.0,0.1044962207929227
329,75429.0,0.10683488938124269
330,76335.0,0.10799241092591513
331,76429.5536,0.10798369245728512
332,77242.0,0.10702545248854581
333,78146.0,0.10332791186844367
334,78987.42450000001,0.09959060895788044
335,79050.0,0.099295045709725
336,79954.0,0.0938388768899387
337,80856.0,0.08802655180647936
338,81630.8998,0.0826893434532115
339,81758.0,0.08184406117343337
340,82658.0,0.07588916269565937
341,83558.0,0.06991966421788536
342,84362.84430000001,0.06461565697917826
343,84459.0,0.06409991724376318
344,85357.0,0.05921329758672314
345,86255.0,0.05424017792968308
346,87151.0,0.04914737479749168
347,87186.21900000001,0.0489692357057893
348,88048.0,0.04516537448156677
349,88944.0,0.041463572406960726
350,89838.0,0.03803169868519979
351,90104.0836,0.037046330792747176
352,90733.0,0.03487592331309261
353,91626.0,0.0324794780979675
354,92518.0,0.030307694859567053
355,93119.6005,0.02951362048186152
356,93410.0,0.02932832153037478
357,94300.0,0.02866681184122282
358,95190.0,0.028364502152070863
359,96080.0,0.0282550924629189
360,96236.03790000001,0.0282382148127739
361,96968.0,0.02841512405062213
362,97856.0,0.028643846369467915
363,98743.0,0.02888589895597266
364,99456.7731,0.029018733594195493
365,99641.0,0.02908583431139854
366,100545.0,0.02947689880315016
367,101448.0,0.030074615435950726
368,102348.0,0.03080928849189813
369,102785.297,0.031249479202428147
370,103250.0,0.031699544964989626
371,104150.0,0.032801514238344265
372,105048.0,0.03409426402442477
373,105947.0,0.03561302355414234
374,106225.216,0.036097252549336295
375,106845.0,0.03725180119016472
376,107741.0,0.03904495315320885
377,108638.0,0.04152413720549744
378,109525.0,0.04349200036534135
379,109780.26,0.044893295839001486
380,110388.0,0.04822590185515849
381,111321.0,0.04765727390108708
382,112576.0,0.046848622794592315
383,113454.28,0.046575817578873475
384,115773.0,0.04582539661197268
385,117251.259,0.04586098493781297
386,120781.0,0.045965549244291706
387,121175.312,0.045173610540057335
388,122180.0,0.04304924959611682
389,123595.0,0.04449323626137426
390,125026.0,0.045531122917192926
391,125230.691,0.04559146988753194
392,126474.0,0.04585938024298421
393,127938.0,0.04581102834650439
394,129420.0,0.045308673352936715
395,129421.79100000001,0.04530790216553748
396,130918.0,0.044430145889459004
397,132434.0,0.0439612266836119
398,133753.155,0.043982612267948515
399,133968.0,0.04395718223446579
400,135519.0,0.04402753387657696
401,137088.0,0.04419155091492154
402,138229.477,0.04433856636446471
403,138676.0,0.044352456733759094
404,140281.0,0.04441971820397046
405,141906.0,0.04444877639032155
406,142855.609,0.04443592530275472
407,143549.0,0.044327170757505495
408,145211.0,0.04396820425303853
409,146893.0,0.04360066823588244
410,147636.563,0.043685600067540215
411,148594.0,0.043804029516052834
412,150314.0,0.044175642350598274
413,152055.0,0.044124786097658505
414,152577.522,0.04406073341160173
415,153815.0,0.043893597858493186
416,155597.0,0.043458257133270645
417,157398.0,0.042096988252167504
418,157683.84,0.04209736433126766
419,159221.0,0.0421308927034684
420,161065.0,0.04220735508815324
421,162930.0,0.04202371677331443
422,162961.05099999998,0.04202132721258539
423,164816.0,0.04184617453310636
424,166725.0,0.04169322543066316
425,168414.875,0.04154444932509273
426,168655.0,0.04153774427080149
427,170608.0,0.04148047076094034
428,172584.0,0.04142991548419399
429,174051.222,0.041390408654900686
430,174582.0,0.04138051952969509
431,176604.0,0.04134247301082518
432,178649.0,0.04130653550781381
433,179876.201,0.04128319703645868
434,180717.0,0.041241985711882916
435,182810.0,0.04114182277958785
436,184927.0,0.04104281889632522
437,185896.125,0.04099622085219943
438,187068.0,0.041005129675293385
439,189234.0,0.041026497105458776
440,191426.0,0.04104535130994748
441,192117.51799999998,0.04105198242099348
442,193642.0,0.041014953741915744
443,195884.0,0.0409603344708377
444,198153.0,0.04090728289810084
445,198547.123,0.04089846797682448
446,200447.0,0.04086254074884307
447,202768.0,0.040818421540182385
448,205116.0,0.04077346333167946
449,205191.907,0.04077210828119783
450,207491.0,0.0406259978513403
451,209894.0,0.0404749100560559
452,212059.073,0.040340764011278646
453,212324.0,0.040325903207743985
454,214783.0,0.040187631132406865
455,217270.0,0.040050169907777586
456,219156.062,0.039945578184847404
457,219786.0,0.039912064741768546
458,222331.0,0.039781812181746645
459,224905.0,0.039649461223201905
460,226490.56699999998,0.0395694865176133
461,227510.0,0.03946479652030005
462,230144.0,0.039196763971192386
463,232809.0,0.03892506839663964
464,234070.535,0.03879888747603568
465,235505.0,0.03866852141348061
466,238232.0,0.03842022572148287
467,240991.0,0.038174234883851126
468,241904.18300000002,0.0380935964030622
469,243781.0,0.03790710998365273
470,246604.0,0.03762621129671202
471,249459.0,0.03734376359879644
472,250000.0,0.03729139581524041
473,252348.0,0.037057684247968695
474,255270.0,0.036766457558064056
475,258226.0,0.03647433569106949
476,261216.0,0.036178418646985
477,264241.0,0.035884577155896165
478,267301.0,0.03558691121780301
479,270396.0,0.035285520832705516
480,273527.0,0.03498327673068928
481,275422.87,0.03480183244209305
482,276694.0,0.034688666488505354
483,279898.0,0.034403079400067774
484,283139.0,0.03411375638083363
485,286418.0,0.03382377483807869
486,289734.0,0.03352405736452718
487,293089.0,0.03323925877473065
488,296483.0,0.03295097906868909
489,299916.0,0.032626618246402506
490,303389.0,0.03233075371514666
491,306902.0,0.03203108547492156
492,310456.0,0.03169449093300297
493,314051.0,0.03138687008939089
494,316227.766,0.031200475732928223
495,317687.0,0.031105722306812036
496,321366.0,0.03086644187801904
497,325087.0,0.030589881759633952
498,328852.0,0.03034403815691429
499,332660.0,0.030095112967231295
500,336512.0,0.02980780429321373
501,340408.0,0.029552212134861595
502,344350.0,0.029293132697432403
503,348337.0,0.028994767878297398
504,352371.0,0.028728713882714106
505,356451.0,0.028422572608053757
506,360579.0,0.02814934025957387
507,363078.055,0.027961374496225516
508,364754.0,0.027880632486881406
509,368978.0,0.027676525371937648
510,373250.0,0.02750752499432407
511,377572.0,0.02729798163476277
512,381944.0,0.027085595293253745
513,386367.0,0.026870091110158038
514,390841.0,0.02665146908547565
515,395367.0,0.026429854359567635
516,399945.0,0.026165746932433984
517,404576.0,0.025937671944435747
518,409261.0,0.02570625453593396
519,414000.0,0.02543159470692864
520,416869.38300000003,0.02528903706237755
521,418794.0,0.025243149076992967
522,423643.0,0.025086451275387223
523,428548.0,0.024927308355841712
524,433511.0,0.02476582227843001
525,438531.0,0.024601842063115338
526,443609.0,0.024435318689934482
527,448745.0,0.024224952158887435
528,453942.0,0.02405329541008458
529,459198.0,0.023837246483452323
530,464515.0,0.02361840733906425
531,469894.0,0.023396528956957156
532,475335.0,0.023171811337131032
533,478630.092,0.023035430282528784
534,480839.0,0.02298882990218986
535,486407.0,0.022871075833142886
536,492040.0,0.022709254484195043
537,497737.0,0.02254559458272942
538,503501.0,0.022380009946596745
539,509331.0,0.022212529303180104
540,515229.0,0.022043095197713324
541,521195.0,0.0218295076301964
542,527230.0,0.021614137873246245
543,533335.0,0.021438757199479765
544,539511.0,0.021177536881513873
545,545758.0,0.020956276919348565
546,549540.874,0.02082270097815567
547,552077.0,0.02076704099097103
548,558470.0,0.020585721918694372
549,564937.0,0.020403765944908493
550,571479.0,0.020220957706079477
551,578096.0,0.01999649720220733
552,584790.0,0.019812353706224233
553,591562.0,0.01960311185459628
554,598412.0,0.019337271647323462
555,605341.0,0.01911131772087188
556,612350.0,0.018884934711707626
557,619441.0,0.018619091892762875
558,626614.0,0.018353389264037633
559,630957.3439999999,0.01819441796400703
560,633870.0,0.018110364132766336
561,641210.0,0.017863829351785553
562,648634.0,0.017656354445245857
563,656145.0,0.01741231655152015
564,663743.0,0.01716991567060843
565,671429.0,0.01692884418196833
566,679204.0,0.016653494465057483
567,687068.0,0.016415666519875888
568,695024.0,0.01614423748479644
569,703072.0,0.015875007359819143
570,711214.0,0.015607860903859256
571,719449.0,0.01534290573745915
572,724435.96,0.015185481137138957
573,727780.0,0.015093477868872584
574,736207.0,0.01483422798828665
575,744732.0,0.014578228649020586
576,753356.0,0.0143569762851695
577,762079.0,0.014106970896733387
578,770903.0,0.013860105351902451
579,779830.0,0.013616272518866891
580,788860.0,0.01334597239762671
581,797995.0,0.01310859785637211
582,807235.0,0.012845648895103088
583,816582.0,0.012614518382009847
584,826038.0,0.012358599185282588
585,831763.771,0.0122075634148232
586,835603.0,0.012113861181819103
587,845279.0,0.011884235829312374
588,855067.0,0.011658331927872124
589,864968.0,0.011436147883311444
590,874984.0,0.011217480507256525
591,885116.0,0.011002328205520459
592,895365.0,0.010766489383916337
593,905733.0,0.01055866085407035
594,916221.0,0.010330841021795592
595,926830.0,0.010129998292905153
596,937562.0,0.00990986947902522
597,948418.0,0.009693782985968891
598,954992.586,0.009579561927709795
599,959401.0,0.009506949465437288
600,970510.0,0.009308127554118967
601,981748.0,0.009113036322739429
602,993116.0,0.008921735078895097
603,1004620.0,0.00873411966816452
604,1016250.0,0.008550077014583452
605,1028020.0,0.008369617424501838
606,1039920.0,0.00819252782195543
607,1051960.0,0.008018861282908478
608,1064140.0,0.00784839780736098
609,1076470.0,0.007663830471277183
610,1088930.0,0.007500153122728593
611,1096478.2,0.007394040629436399
612,1101540.0,0.007324914719953292
613,1114290.0,0.007156496942704665
614,1127200.0,0.006991802636486645
