,lambda (Angstroms),Total Flux (erg/s/cm^2/Angstrom)
0,1006.0,2.0120051257600116
1,1017.65,0.8704579636159311
2,1029.44,1.2962187634718356
3,1041.36,2.745375528042012
4,1053.42,2.5503922546121744
5,1065.61,2.6097789458966085
6,1077.95,2.288835596466741
7,1090.44,2.874732206322572
8,1096.4782,2.8589891426592753
9,1103.06,2.841824975993964
10,1115.83,2.61577412759012
11,1128.76,3.1303231432626557
12,1141.83,2.9620320400020255
13,1155.05,3.137520809313002
14,1168.42,2.492279451195586
15,1181.95,2.6096979571545513
16,1195.64,1.5690063271898969
17,1209.48,0.9477135697968497
18,1223.49,2.2573226679849574
19,1237.66,3.0379206302494466
20,1251.99,2.887868456590316
21,1258.92541,3.021205275078702
22,1266.48,3.16645302129622
23,1281.15,3.1737539077454775
24,1295.99,2.621684804467153
25,1310.99,3.2476757108569863
26,1326.17,2.861386628123498
27,1341.53,3.0872675562666876
28,1357.06,2.9415484946822947
29,1372.78,2.8091694445788407
30,1388.67,2.407600404747804
31,1404.75,2.5797813763977056
32,1421.02,2.627742359528545
33,1437.47,2.7326333535360625
34,1445.43977,2.7117161805227017
35,1454.12,2.688934275334399
36,1470.96,2.6520551293735215
37,1487.99,2.6216959930484776
38,1505.22,2.396556866866416
39,1522.65,2.185707750827337
40,1540.28,2.05397864493124
41,1558.12,2.165679549685275
42,1576.16,2.246940464582292
43,1594.41,2.077761390129441
44,1612.87,2.0398423263267214
45,1631.55,2.0118532736812824
46,1650.44,1.9525342316859755
47,1659.58691,1.9965796279725974
48,1669.55,2.044558385515762
49,1688.88,1.9570555446037332
50,1708.44,1.784882788874852
51,1728.22,1.8690001146255026
52,1748.24,1.8647075292629156
53,1768.48,1.8014250253798603
54,1788.96,1.7808126103835675
55,1809.67,1.7362802805704218
56,1830.63,1.6129880433476533
57,1851.83,1.5404058950116468
58,1873.27,1.4744938355624027
59,1894.96,1.414661868703536
60,1905.46072,1.37093987904225
61,1916.9,1.3233002966525584
62,1939.1,1.3386096983702067
63,1961.55,1.2961489807378288
64,1984.27,1.195808134207422
65,2007.24,1.218017168326989
66,2030.49,1.1605260687745262
67,2054.0,1.0805848450980358
68,2077.78,1.115963492523517
69,2101.84,1.0756020062769684
70,2126.18,1.0154303863583902
71,2150.8,0.9968966327677822
72,2175.71,0.9586257407311435
73,2187.7616199999998,0.9339689463773886
74,2200.9,0.907099988115647
75,2226.38,0.9050246865051897
76,2252.16,0.8967394990829923
77,2278.24,0.907129425849055
78,2304.62,0.9092294668033775
79,2331.31,0.8763626257522352
80,2358.31,0.8824459026956283
81,2385.61,0.8743682938272812
82,2413.24,0.88653881056602
83,2441.18,0.9113774452992941
84,2469.45,0.8906502056396541
85,2498.04,0.8804700877808247
86,2511.88643,0.8756537564603621
87,2526.97,0.8703991361092327
88,2556.23,0.9030448257344659
89,2585.83,0.8886074652733209
90,2615.77,0.880460054725798
91,2646.06,0.9030315926187684
92,2676.7,0.876407078952232
93,2707.7,0.8408345122530599
94,2739.05,0.8179238939943811
95,2770.77,0.8216942212299381
96,2802.85,0.8584204954328594
97,2835.31,0.8179107136568877
98,2868.14,0.8350248773751517
99,2884.0315,0.8490593102459804
100,2901.35,0.8643564841409129
101,2934.95,0.836946382843928
102,2968.93,0.8254682804013226
103,3003.31,0.7992921767528006
104,3038.09,0.8048300718983622
105,3073.27,0.8048299658380073
106,3108.85,0.8254668585717357
107,3144.85,0.802979750039252
108,3181.27,0.8254666402405559
109,3218.1,0.8179015292057955
110,3255.37,0.827369416844527
111,3293.06,0.816021303217046
112,3311.31121,0.8160212481934584
113,3331.19,0.8160201025550452
114,3369.77,0.8066808791435606
115,3408.79,0.8048236303743505
116,3448.26,0.7810963556711028
117,3488.19,0.7828940544575056
118,3528.58,0.797441726733559
119,3569.44,0.7408143719229509
120,3610.77,0.7757119900256815
121,3652.58,0.7493845804654385
122,3694.88,0.8723281426659104
123,3737.66,0.8085176772034088
124,3780.94,0.81787418292531
125,3801.8939600000003,0.8458597696826339
126,3824.72,0.8763459339300272
127,3869.01,0.7774849132851933
128,3913.81,0.8085098693726045
129,3959.13,0.9261158017360301
130,4004.98,1.0535307099192401
131,4051.35,1.0271885943784647
132,4098.26,1.0154264542012428
133,4145.72,1.0224642889313438
134,4193.73,1.0343020985687683
135,4242.29,1.0154198831135157
136,4291.41,0.9832206421093558
137,4341.1,1.063265375100058
138,4365.15832,1.0574399338537641
139,4391.37,1.0510949614929115
140,4442.22,1.041466288448828
141,4493.66,1.1057076308010865
142,4545.69,1.108248988549687
143,4598.33,1.1159303622165393
144,4651.57,1.0805417515406885
145,4705.44,1.0632731573049998
146,4759.92,1.065724578987563
147,4815.04,1.0462760173712427
148,4870.8,1.0681874724560392
149,4927.2,1.1828689442419524
150,4984.25,1.2836004329899375
151,5011.87234,1.1575108186872964
152,5041.97,1.0201220970499256
153,5100.35,0.9742249266416717
154,5159.41,0.9282537775441816
155,5219.15,0.9900546497574552
156,5279.59,1.0374195439082796
157,5340.72,0.9969184596832615
158,5402.56,0.9893773977091879
159,5465.12,0.9987613582994523
160,5528.41,1.0015273417674482
161,5592.42,0.9717773477997825
162,5657.18,0.9735703773366355
163,5722.69,0.9740204303780073
164,5754.399369999999,0.979743084674445
165,5788.95,0.9859801819671001
166,5855.99,0.8794005331125002
167,5923.79,0.936656944921243
168,5992.39,0.9401174205861361
169,6061.78,0.9351589593089777
170,6131.97,0.8851085618879698
171,6202.98,0.8816582299195159
172,6274.8,0.9017779626054142
173,6347.46,0.9174857623402705
174,6420.96,0.9065756291240846
175,6495.31,0.9118135637550585
176,6570.52,0.8997275670313939
177,6606.93448,0.8888693010359072
178,6646.61,0.8770354918664978
179,6723.57,0.8705995272171352
180,6801.43,0.8693985629811767
181,6880.18,0.8664015991540287
182,6959.85,0.8650066357494716
183,7040.44,0.8553056727675052
184,7121.97,0.8272337102173165
185,7204.44,0.8196527480989052
186,7287.86,0.8343077864168649
187,7372.25,0.8381568251803823
188,7457.62,0.8509868643940506
189,7543.97,0.84551990405787
190,7585.77575,0.833683574582947
191,7631.33,0.8207874027364088
192,7719.69,0.8192802724239138
193,7809.08,0.8078611755629592
194,7899.51,0.7809891124783176
195,7990.8,0.7988440773240886
196,8083.32,0.799031082116845
197,8176.92,0.7760171219850032
198,8271.61,0.7652021972533355
199,8367.39,0.7606403079218419
200,8464.28,0.7323014546400667
201,8562.29,0.7338226377327823
202,8661.44,0.7582028578495332
203,8709.6359,0.7501607201152789
204,8761.73,0.7414712685148562
205,8863.19,0.7488547055510518
206,8965.82,0.7092792514117335
207,9069.64,0.7254659079571487
208,9174.66,0.6970016761174214
209,9280.9,0.671506557752799
210,9388.37,0.6345615537934055
211,9497.08,0.6821166651693649
212,9607.05,0.6785268937409243
213,9718.29,0.6655482404382079
214,9830.74,0.6740466996804729
215,9944.57,0.6745232872798238
216,10000.0,0.6700022774909867
217,10059.7,0.6651330104820067
218,10176.2,0.654969875084462
219,10294.1,0.6474768702486637
220,10413.3,0.6409669866487726
221,10533.9,0.6276992336106277
222,10655.9,0.6261246111342291
223,10779.3,0.6182631192195768
224,10904.1,0.6019957578666707
225,11030.4,0.5883185364013498
226,11158.1,0.5836124454977751
227,11287.3,0.5762884944817858
228,11418.0,0.5674876833533817
229,11481.5362,0.5595818618564762
230,11550.2,0.5510439102226417
231,11684.0,0.5470268814002334
232,11819.3,0.541420121313
233,11956.1,0.5331666299609413
234,12094.6,0.5240754431754141
235,12234.6,0.5144305251250618
236,12376.3,0.5011489116412408
237,12519.6,0.4870915848082729
238,12664.8,0.4879915983731931
239,12811.5,0.48166588067328814
240,12959.9,0.4750964675399146
241,13109.9,0.4685103410573942
242,13182.5674,0.46509679042095037
243,13261.7,0.4613862959088694
244,13415.3,0.45291793363156585
245,13570.6,0.44044302112072437
246,13727.8,0.43947461129004645
247,13886.7,0.43240665122583066
248,14047.5,0.42272919384177854
249,14210.2,0.4067772391378899
250,14374.7,0.40542176065731406
251,14541.2,0.3874548113137526
252,14709.6,0.3933213646503546
253,14879.9,0.40332942066712024
254,15052.2,0.39649300582090014
255,15135.6125,0.39560342289365324
256,15226.5,0.39465211098683384
257,15402.8,0.3947336524070737
258,15581.2,0.3772951651091201
259,15761.6,0.38807960284145854
260,15944.1,0.37798201185560354
261,16128.7,0.35784639215155517
262,16315.5,0.357195789980828
263,16504.4,0.36056915909190745
264,16695.5,0.3468175457363081
265,16888.8,0.34532394991402987
266,17084.4,0.3320174178765875
267,17282.2,0.3231259033724663
268,17378.0083,0.31666893866232887
269,17482.4,0.30967615860855996
270,17684.8,0.2906804825032487
271,17889.6,0.2819188971951076
272,18096.7,0.277197315567588
273,18306.3,0.2575609118537874
274,18518.3,0.2523015989371569
275,18732.7,0.24367237681769674
276,18949.6,0.23480533261195552
277,19169.0,0.2268204663199333
278,19391.0,0.21880086505817883
279,19615.5,0.21077644171014331
280,19842.7,0.2039493705089243
281,19952.6231,0.20137386161022516
282,20072.4,0.19865985476652323
283,20304.9,0.1927317156122466
284,20540.0,0.1867978467297931
285,20777.8,0.1814754123603867
286,21018.4,0.1759735767452514
287,21261.8,0.17002033988438717
288,21338.5,0.16881231290316986
289,22908.6765,0.1515782336152006
290,25345.3,0.12796951409234614
291,26302.679900000003,0.12412521702168734
292,29014.6,0.11627543376368672
293,30199.5172,0.11502471778300571
294,32012.6,0.11415440614694183
295,34673.685,0.11777455758096952
296,35757.2,0.1190666671694608
297,39810.7171,0.1273657528199072
298,40433.8,0.12800552189086345
299,43528.4,0.13389046994273013
300,45708.818999999996,0.1389153551165116
301,47439.4,0.14084075709531357
302,51701.8,0.14749467659764023
303,52480.746,0.1489596400850862
304,56347.2,0.15069122611568464
305,58016.0,0.15301234834560196
306,58952.0,0.15511103646113564
307,59887.0,0.1573640123030416
308,60255.9586,0.15793126188313042
309,60821.0,0.1583276941464967
310,61740.0,0.15811904068220137
311,62659.0,0.15822828721790605
312,63575.0,0.160207504439566
313,64492.0,0.15995199809924085
314,65395.0,0.1589018216267069
315,66296.0,0.15749799227814318
316,67000.0,0.15633658292511504
317,67217.0,0.15591924883631497
318,68143.0,0.15275209780034024
319,69063.0,0.15219852895250358
320,69242.2916,0.15241360169120777
321,69975.0,0.15277712188359616
322,70885.0,0.15488359534007867
323,71559.6261,0.15728138957182627
324,71795.0,0.15796763099890962
325,72705.0,0.161361070105012
326,73614.0,0.16631034839890993
327,73954.515,0.16748790682708042
328,74522.0,0.16819184851681968
329,75429.0,0.16853154188956626
330,76335.0,0.16769229216046866
331,76429.5536,0.1674751830601482
332,77242.0,0.1635485891399402
333,78146.0,0.15654819435970188
334,78987.42450000001,0.1497366631191989
335,79050.0,0.14918897332269165
336,79954.0,0.14009044607652363
337,80856.0,0.13064382088178517
338,81630.8998,0.12218441914784087
339,81758.0,0.1208672094046779
340,82658.0,0.1115705796232052
341,83558.0,0.10225934984173249
342,84362.84430000001,0.0939669277231215
343,84459.0,0.0932514069021141
344,85357.0,0.08649902770235399
345,86255.0,0.07966014850259387
346,87151.0,0.07270574119414724
347,87186.21900000001,0.07245442817668196
348,88048.0,0.06760014045698912
349,88944.0,0.06280620228290835
350,89838.0,0.058284630265466174
351,90104.0836,0.05697493256828344
352,90733.0,0.05424942106388275
353,91626.0,0.05106478222859084
354,92518.0,0.04810568800565645
355,93119.6005,0.04678061958988915
356,93410.0,0.04660301690420782
357,94300.0,0.04596509429618657
358,95190.0,0.04568637168816534
359,96080.0,0.045600549080144104
360,96236.03790000001,0.04558780679922019
361,96968.0,0.04612555611811831
362,97856.0,0.046792041528758474
363,98743.0,0.04747136423060287
364,99456.7731,0.047956072201140634
365,99641.0,0.04815774672659659
366,100545.0,0.04920916387401703
367,101448.0,0.05046650268388502
368,102348.0,0.05185860648109564
369,102785.297,0.05261823329258363
370,103250.0,0.05338413825164246
371,104150.0,0.05509779988946993
372,105048.0,0.05700088272365779
373,105947.0,0.05913065495966544
374,106225.216,0.05980397573583071
375,106845.0,0.06148086944371768
376,107741.0,0.0640291573574873
377,108638.0,0.0672643201461607
378,109525.0,0.06997973418579648
379,109780.26,0.07159615912684746
380,110388.0,0.07543603766203645
381,111321.0,0.07564617243586984
382,112576.0,0.07588505318738205
383,113454.28,0.07634533664118542
384,115773.0,0.07749005876126959
385,117251.259,0.07873386210428457
386,120781.0,0.08174948157001397
387,121175.312,0.08128274065846594
388,122180.0,0.07984491572427257
389,123595.0,0.08225581794320662
390,125026.0,0.08427155347345015
391,125230.691,0.08447177246611964
392,126474.0,0.08545775390029649
393,127938.0,0.08625493280851024
394,129420.0,0.08660850449018564
395,129421.79100000001,0.0866087676919061
396,130918.0,0.08628380707540434
397,132434.0,0.08637499559509443
398,133753.155,0.08688376172473515
399,133968.0,0.08689915854708684
400,135519.0,0.08726424571201291
401,137088.0,0.08772641880148357
402,138229.477,0.08809034838408686
403,138676.0,0.08813093237877122
404,140281.0,0.08829414247593106
405,141906.0,0.08842034491075026
406,142855.609,0.08846426247096409
407,143549.0,0.08826446510084615
408,145211.0,0.08768727659042325
409,146893.0,0.08709889255039235
410,147636.563,0.08708619393113881
411,148594.0,0.08709100220412326
412,150314.0,0.08725849881806264
413,152055.0,0.08700103422786984
414,152577.522,0.08687497269540405
415,153815.0,0.08654039500315076
416,155597.0,0.08586393331096484
417,157398.0,0.08425897258839084
418,157683.84,0.08422067189016394
419,159221.0,0.08408821630809292
420,161065.0,0.08396556187235756
421,162930.0,0.08358053913773367
422,162961.05099999998,0.08357479666139137
423,164816.0,0.08315614057724817
424,166725.0,0.08275259267154737
425,168414.875,0.08238198280345471
426,168655.0,0.0823630032985368
427,170608.0,0.08220589844219411
428,172584.0,0.08205433612978598
429,174051.222,0.0819398294296031
430,174582.0,0.08190867890262189
431,176604.0,0.08178963702525875
432,178649.0,0.08167178285156555
433,179876.201,0.08159928632633395
434,180717.0,0.08149076666106014
435,182810.0,0.08122305315237165
436,184927.0,0.08095457742475884
437,185896.125,0.080830398180276
438,187068.0,0.08083250257568456
439,189234.0,0.08084129324607048
440,191426.0,0.08084741972321079
441,192117.51799999998,0.08085003557305216
442,193642.0,0.08073529206447007
443,195884.0,0.08056638043195465
444,198153.0,0.08039766009556862
445,198547.123,0.08036875362729548
446,200447.0,0.08024472841396715
447,202768.0,0.0800929835937589
448,205116.0,0.07993914777391874
449,205191.907,0.07993427288832478
450,207491.0,0.07954146165312737
451,209894.0,0.07913252346413044
452,212059.073,0.07876605743372422
453,212324.0,0.0787248408180693
454,214783.0,0.07834193930894935
455,217270.0,0.0779570631181477
456,219156.062,0.07766483972415639
457,219786.0,0.07757055106412661
458,222331.0,0.07719476175740884
459,224905.0,0.0768140761874711
460,226490.56699999998,0.076581129001392
461,227510.0,0.07630705854736679
462,230144.0,0.07560138259944889
463,232809.0,0.07488689292549248
464,234070.535,0.07455110590575488
465,235505.0,0.07419988329812142
466,238232.0,0.07353172668346003
467,240991.0,0.07286094806231928
468,241904.18300000002,0.07263971190755135
469,243781.0,0.07213658996185637
470,246604.0,0.07137942635899472
471,249459.0,0.07061531506385835
472,250000.0,0.07047167582457678
473,252348.0,0.06983326324526028
474,255270.0,0.06903840096881611
475,258226.0,0.06823678327916213
476,261216.0,0.06742551017629832
477,264241.0,0.06661028003042438
478,267301.0,0.06578519284154036
479,270396.0,0.06495034860964621
480,273527.0,0.06410844570494165
481,275422.87,0.0636002294795033
482,276694.0,0.06327928847317917
483,279898.0,0.06246998526682481
484,283139.0,0.06165089822194513
485,286418.0,0.06082494128885027
486,289734.0,0.05998320051723009
487,293089.0,0.05915000380770485
488,296483.0,0.05830695116027454
489,299916.0,0.057421442574939176
490,303389.0,0.05655789200200888
491,306902.0,0.05568399944148364
492,310456.0,0.05476647884367359
493,314051.0,0.05387123020857873
494,316227.766,0.05332902828684353
495,317687.0,0.053036018715894744
496,321366.0,0.05229689771537775
497,325087.0,0.05151479077247921
498,328852.0,0.050757422366133335
499,332660.0,0.049991130256873025
500,336512.0,0.04918047668416537
501,340408.0,0.048395561648010385
502,344350.0,0.04760090962734228
503,348337.0,0.046760858382693934
504,352371.0,0.04594673239299958
505,356451.0,0.045086269418792096
506,360579.0,0.044252193939005695
507,363078.055,0.043724698662210834
508,364754.0,0.04347667580272328
509,368978.0,0.04285095920118784
510,373250.0,0.042255558320089495
511,377572.0,0.04161462381444646
512,381944.0,0.04096585568425873
513,386367.0,0.04030887925703542
514,390841.0,0.039643694532776524
515,395367.0,0.038970326838991154
516,399945.0,0.038249276175679296
517,404576.0,0.03755896787035007
518,409261.0,0.036859927250512584
519,414000.0,0.036112254316166825
520,416869.38300000003,0.03568329537107953
521,418794.0,0.03551161451298359
522,423643.0,0.03503798630923685
523,428548.0,0.03455825283029732
524,433511.0,0.03407238531633669
525,438531.0,0.03358029814726912
526,443609.0,0.033081876943180454
527,448745.0,0.03253582170407068
528,453942.0,0.03202448929019735
529,459198.0,0.03146490846138875
530,464515.0,0.030898550457816587
531,469894.0,0.030325100899566693
532,475335.0,0.029744759786639076
533,478630.092,0.02939301168055166
534,480839.0,0.029261803105109667
535,486407.0,0.028930776944000067
536,492040.0,0.0285531937964551
537,497737.0,0.02817132069303531
538,503501.0,0.027784956542059067
539,509331.0,0.02739416837408691
540,515229.0,0.026998822127997757
541,521195.0,0.026556717803791603
542,527230.0,0.026110188370907905
543,533335.0,0.02570096679878612
544,539511.0,0.0252031860568657
545,545758.0,0.02474264614514665
546,549540.874,0.02446417410984648
547,552077.0,0.02435656231226574
548,558470.0,0.02404428447695354
549,564937.0,0.023729853871453148
550,571479.0,0.02341303464751878
551,578096.0,0.023053026805150437
552,584790.0,0.022731758647856544
553,591562.0,0.022383794327391314
554,598412.0,0.021977633843754743
555,605341.0,0.021609741348701056
556,612350.0,0.021239780993984457
557,619441.0,0.020828681083113375
558,626614.0,0.020416041616087816
559,630957.3439999999,0.020168098165630522
560,633870.0,0.020054449643121457
561,641210.0,0.01973333515416629
562,648634.0,0.019450427038907002
563,656145.0,0.019130071953547018
564,663743.0,0.018810469898086338
565,671429.0,0.01849130309125944
566,679204.0,0.018136953751800796
567,687068.0,0.01781922187971041
568,695024.0,0.0174669541311917
569,703072.0,0.01711595050624467
570,711214.0,0.016766075442338265
571,719449.0,0.01641744672073802
572,724435.96,0.016209351000461433
573,727780.0,0.016101448360702698
574,736207.0,0.01580213197266885
575,744732.0,0.015505600181048036
576,753356.0,0.0152433446653955
577,762079.0,0.014951865425711237
578,770903.0,0.014663045821105718
579,779830.0,0.014376769210689415
580,788860.0,0.014063535594462327
581,797995.0,0.013782728331534924
582,807235.0,0.013475847421907206
583,816582.0,0.013200276224689642
584,826038.0,0.012899398098992704
585,831763.771,0.012721138922052178
586,835603.0,0.012619276090911239
587,845279.0,0.012369083601728873
588,855067.0,0.012122374498368288
589,864968.0,0.011879145061060036
590,874984.0,0.011639187850265225
591,885116.0,0.011402499146214403
592,895365.0,0.011144875229138122
593,905733.0,0.010915008659497486
594,916221.0,0.010664895717523047
595,926830.0,0.010441502683445356
596,937562.0,0.010198562117725515
597,948418.0,0.00995940030059408
598,954992.586,0.009831204417113017
599,959401.0,0.00975452208602034
600,970510.0,0.009545444292944256
601,981748.0,0.009339978086391998
602,993116.0,0.009138181850755225
603,1004620.0,0.00893994589238388
604,1016250.0,0.008745166367361387
605,1028020.0,0.008553840657170955
606,1039920.0,0.008365764917896007
607,1051960.0,0.008180982993453116
608,1064140.0,0.007999274883842288
609,1076470.0,0.007803324432980093
610,1088930.0,0.007628143953033383
611,1096478.2,0.007515062925518132
612,1101540.0,0.007443974346557682
613,1114290.0,0.007270612866310887
614,1127200.0,0.007100912818468839
615,1140250.0,0.006934787773980944
616,1153450.0,0.006772080947372498
