,lambda (Angstroms),Total Flux (erg/s/cm^2/Angstrom)
0,1006.0,3.947104640805529
1,1017.65,2.777498577380669
2,1029.44,3.174863287442549
3,1041.36,4.595310858599259
4,1053.42,4.371281203242708
5,1065.61,4.401308408980988
6,1077.95,4.0506443005979165
7,1090.44,4.606458878093496
8,1096.4782,4.576172873853924
9,1103.06,4.546033827029361
10,1115.83,4.294809132620831
11,1128.76,4.78386888996599
12,1141.83,4.58981254259563
13,1155.05,4.739240368744355
14,1168.42,4.067642368412166
15,1181.95,4.158388819833667
16,1195.64,3.0907097230088594
17,1209.48,2.4421337997031376
18,1223.49,3.7241246063857125
19,1237.66,4.4767888648219785
20,1251.99,4.298487575011936
21,1258.92541,4.418152432394655
22,1266.48,4.552778483607009
23,1281.15,4.539453463723062
24,1295.99,3.9665194354287348
25,1310.99,4.571420458042286
26,1326.17,4.163788412927199
27,1341.53,4.368073300083475
28,1357.06,4.200519178829372
29,1372.78,4.046037930528373
30,1388.67,3.6221276738169945
31,1404.75,3.771700290058721
32,1421.02,3.796785779253553
33,1437.47,3.878548200719747
34,1445.43977,3.8464255928381395
35,1454.12,3.8151248428371396
36,1470.96,3.761718790717576
37,1487.99,3.7146462807653093
38,1505.22,3.472597499410197
39,1522.65,3.2446424466522403
40,1540.28,3.095611122491438
41,1558.12,3.189803713357649
42,1576.16,3.2533600328210133
43,1594.41,3.0662702673113915
44,1612.87,3.010234416828782
45,1631.55,2.9639126678030423
46,1650.44,2.8860548338043155
47,1659.58691,2.9211233819192066
48,1669.55,2.96225054725306
49,1688.88,2.861454513425382
50,1708.44,2.6758303943529875
51,1728.22,2.746345063307386
52,1748.24,2.728284773745559
53,1768.48,2.651083272210525
54,1788.96,2.6163868121592655
55,1809.67,2.5576122668632895
56,1830.63,2.419905889779579
57,1851.83,2.332744554179642
58,1873.27,2.2520882600634797
59,1894.96,2.177340134159582
60,1905.46072,2.126396825475367
61,1916.9,2.073000911148965
62,1939.1,2.077139105500856
63,1961.55,2.023381378617971
64,1984.27,1.9116076568015274
65,2007.24,1.922258013750308
66,2030.49,1.8530673389161396
67,2054.0,1.7612957059978043
68,2077.78,1.7847080781459106
69,2101.84,1.7322394185110679
70,2126.18,1.6598197270932764
71,2150.8,1.6288970038925352
72,2175.71,1.5780912120594541
73,2187.7616199999998,1.5473699516645592
74,2200.9,1.5160188618416985
75,2226.38,1.5052511101592148
76,2252.16,1.4881711282763879
77,2278.24,1.489663916193218
78,2304.62,1.4827644739097043
79,2331.31,1.4407923937525031
80,2358.31,1.4376646757216136
81,2385.61,1.4202737274903812
82,2413.24,1.423018326038771
83,2441.18,1.4383252867134728
84,2469.45,1.4079537941677973
85,2498.04,1.3880202560750887
86,2511.88643,1.3784802433790055
87,2526.97,1.369398117930864
88,2556.23,1.3946189870965788
89,2585.83,1.3726705300666797
90,2615.77,1.356925746841167
91,2646.06,1.3718110984142875
92,2676.7,1.3374115847860408
93,2707.7,1.2939726669506737
94,2739.05,1.2631068839139394
95,2770.77,1.2588281576643314
96,2802.85,1.2874140272076031
97,2835.31,1.2386674145322478
98,2868.14,1.2474508586440187
99,2884.0315,1.2574527715444974
100,2901.35,1.2696445342850027
101,2934.95,1.2362095570005618
102,2968.93,1.218638440092071
103,3003.31,1.1862975972635268
104,3038.09,1.18559902851493
105,3073.27,1.1792907338462806
106,3108.85,1.193547713257578
107,3144.85,1.1646053804528198
108,3181.27,1.1805617354320064
109,3218.1,1.1663925713431387
110,3255.37,1.1691775087422127
111,3293.06,1.1510711339252313
112,3311.31121,1.147798421851911
113,3331.19,1.14527358162632
114,3369.77,1.131036467690647
115,3408.79,1.1242254685778956
116,3448.26,1.0954873141704045
117,3488.19,1.0922157343505128
118,3528.58,1.1016357291182208
119,3569.44,1.0398210283558675
120,3610.77,1.0694716320634527
121,3652.58,1.037836270123316
122,3694.88,1.155409672417796
123,3737.66,1.0861681090645539
124,3780.94,1.0900300398282676
125,3801.8939600000003,1.1153554347212
126,3824.72,1.1437843120123528
127,3869.01,1.0409314802915766
128,3913.81,1.0679186595399222
129,3959.13,1.1814399480116862
130,4004.98,1.3047224439611649
131,4051.35,1.2742010491340618
132,4098.26,1.2582109600389701
133,4145.72,1.2609712749301862
134,4193.73,1.2684819938077103
135,4242.29,1.2452231166715422
136,4291.41,1.2085967417759782
137,4341.1,1.2841629673753152
138,4365.15832,1.276169175073601
139,4391.37,1.2681581402629307
140,4442.22,1.2552973479661618
141,4493.66,1.3162690695837473
142,4545.69,1.3155033051156866
143,4598.33,1.3198387838472125
144,4651.57,1.2810661411357087
145,4705.44,1.2603734709090237
146,4759.92,1.259362043881925
147,4815.04,1.2364099539822615
148,4870.8,1.2547772012100329
149,4927.2,1.3658737855652392
150,4984.25,1.4629790716904967
151,5011.87234,1.33513373080146
152,5041.97,1.1963923498159892
153,5100.35,1.1478714454449601
154,5159.41,1.0992460015917058
155,5219.15,1.1583620182562266
156,5279.59,1.2030105972184566
157,5340.72,1.159762187588429
158,5402.56,1.1494418911460782
159,5465.12,1.1560142587813713
160,5528.41,1.1559358413842757
161,5592.42,1.1233090880648242
162,5657.18,1.1221916514929187
163,5722.69,1.119697531668559
164,5754.399369999999,1.1239950925938558
165,5788.95,1.1291286604965638
166,5855.99,1.0204077884485792
167,5923.79,1.0754987030539884
168,5992.39,1.0767681299261282
169,6061.78,1.0695933876616643
170,6131.97,1.017301157663931
171,6202.98,1.0115828027395966
172,6274.8,1.0294086414853265
173,6347.46,1.0427957181111236
174,6420.96,1.0295380326169878
175,6495.31,1.032401266406253
176,6570.52,1.0179131008822533
177,6606.93448,1.0058917750843945
178,6646.61,0.9931769614408535
179,6723.57,0.9850320814621101
180,6801.43,0.982102217180081
181,6880.18,0.9773565906425803
182,6959.85,0.9741925357061654
183,7040.44,0.9627020523708363
184,7121.97,0.9328196965409643
185,7204.44,0.9234074682165494
186,7287.86,0.9362101453497774
187,7372.25,0.9381852838450196
188,7457.62,0.9491196616544618
189,7543.97,0.941735278778104
190,7585.77575,0.9289706425590117
191,7631.33,0.9153714761764314
192,7719.69,0.9125007717253064
193,7809.08,0.8997022057351969
194,7899.51,0.871434624210579
195,7990.8,0.8878807990708868
196,8083.32,0.8866400324817278
197,8176.92,0.8621816343759637
198,8271.61,0.8499054507580707
199,8367.39,0.8438654816280486
200,8464.28,0.814031418994849
201,8562.29,0.8140401088629481
202,8661.44,0.8368902432412975
203,8709.6359,0.8281043449499133
204,8761.73,0.8188823014910589
205,8863.19,0.8252284469730002
206,8965.82,0.7846037396086363
207,9069.64,0.7997289767852098
208,9174.66,0.770191057196342
209,9280.9,0.7436097782292757
210,9388.37,0.7055660385776319
211,9497.08,0.7520097369350323
212,9607.05,0.7472956706887193
213,9718.29,0.7331797385323142
214,9830.74,0.7405285483040894
215,9944.57,0.739841377795607
216,10000.0,0.734753671073473
217,10059.7,0.7295085914053652
218,10176.2,0.7186120862458711
219,10294.1,0.7103768986209411
220,10413.3,0.7031166487066778
221,10533.9,0.6890897163269784
222,10655.9,0.6867471014818429
223,10779.3,0.6781088041712716
224,10904.1,0.6610558243952643
225,11030.4,0.6465835419777184
226,11158.1,0.6410735770947366
227,11287.3,0.6329363095702162
228,11418.0,0.6233127394041572
229,11481.5362,0.6150069562946407
230,11550.2,0.6062347235865657
231,11684.0,0.6017611687965676
232,11819.3,0.5956927647376236
233,11956.1,0.5869725114097333
234,12094.6,0.577408762243704
235,12234.6,0.5672861638087285
236,12376.3,0.553521069535614
237,12519.6,0.538974802708957
238,12664.8,0.5393793934749682
239,12811.5,0.5325531349720332
240,12959.9,0.5254773806309592
241,13109.9,0.5183794537363426
242,13182.5674,0.5147179617314591
243,13261.7,0.510898769459266
244,13415.3,0.5022194198524267
245,13570.6,0.48953118486582403
246,13727.8,0.48834684269007433
247,13886.7,0.48106061513456144
248,14047.5,0.4711622803899015
249,14210.2,0.4549868384560944
250,14374.7,0.45340540023783216
251,14541.2,0.43520974392573086
252,14709.6,0.4408449804244825
253,14879.9,0.450619109734087
254,15052.2,0.4435460209498524
255,15135.6125,0.44254186132582884
256,15226.5,0.44154077405103587
257,15402.8,0.44152576316899284
258,15581.2,0.4239895734846112
259,15761.6,0.43467521351228805
260,15944.1,0.4244776747376263
261,16128.7,0.404240957160626
262,16315.5,0.4034880522668901
263,16504.4,0.4067579685708156
264,16695.5,0.3929016975580054
265,16888.8,0.39130223922845964
266,17084.4,0.3778885850677811
267,17282.2,0.36888874359036694
268,17378.0083,0.36237930859127415
269,17482.4,0.35532037580620823
270,17684.8,0.33619643938121135
271,17889.6,0.32730507288002875
272,18096.7,0.3224522525558348
273,18306.3,0.3026830259022808
274,18518.3,0.29728936917254095
275,18732.7,0.28852428236661537
276,18949.6,0.2795197892313297
277,19169.0,0.2713958897666839
278,19391.0,0.2632356077195035
279,19615.5,0.255068919342963
280,19842.7,0.24809787213071355
281,19952.6231,0.24545270526785024
282,20072.4,0.24253129916276356
283,20304.9,0.23620057546779546
284,20540.0,0.2298596200239804
285,20777.8,0.22412542391790113
286,21018.4,0.21820697823614058
287,21261.8,0.21183228297869866
288,21338.5,0.21049144638771347
289,22908.6765,0.19053853361562778
290,25345.3,0.15894988620458164
291,26302.679900000003,0.1519701754913949
292,29014.6,0.1311666773373542
293,30199.5172,0.12425610449576711
294,32012.6,0.11340666095570152
295,34673.685,0.10238031184228569
296,35757.2,0.09784881205229809
297,39810.7171,0.08436130480889029
298,40433.8,0.08233008089759591
299,43528.4,0.07494929034088771
300,45708.818999999996,0.07062729109950402
301,47439.4,0.06729232939957339
302,51701.8,0.06099003700298873
303,52480.746,0.060087275867262493
304,56347.2,0.056094566642300295
305,58016.0,0.05594502610926229
306,58952.0,0.056657963777692555
307,59887.0,0.05752666967510954
308,60255.9586,0.05754767508328314
309,60821.0,0.057685893464080776
310,61740.0,0.05705727332463459
311,62659.0,0.056746553185188404
312,63575.0,0.05830717467840636
313,64492.0,0.05763261562740293
314,65395.0,0.05616978419549879
315,66296.0,0.05435421385203741
316,67000.0,0.05287108900466084
317,67217.0,0.05243361030009365
318,68143.0,0.04918049652586854
319,69063.0,0.048541521933765826
320,69242.2916,0.048739950615362806
321,69975.0,0.049585065133720255
322,70885.0,0.052289663078241705
323,71559.6261,0.05513087532172578
324,71795.0,0.056155472207455336
325,72705.0,0.06085705749020702
326,73614.0,0.06711304443748316
327,73954.515,0.06878010110229293
328,74522.0,0.07166469897393271
329,75429.0,0.0754896917942133
330,76335.0,0.07813189884512202
331,76429.5536,0.07827812779313931
332,77242.0,0.07973980817616928
333,78146.0,0.07873488579894376
334,78987.42450000001,0.07750381624977805
335,79050.0,0.07741987902899874
336,79954.0,0.07502097589223614
337,80856.0,0.07225915262966989
338,81630.8998,0.06954260198251035
339,81758.0,0.06910361697565248
340,82658.0,0.06602572062398229
341,83558.0,0.06293322427231211
342,84362.84430000001,0.06020203788058566
343,84459.0,0.05985114247642628
344,85357.0,0.0565040073165884
345,86255.0,0.05307037215675052
346,87151.0,0.049513624825776426
347,87186.21900000001,0.04939586335601947
348,88048.0,0.04645483147878656
349,88944.0,0.0436501193782026
350,89838.0,0.04111333319748603
351,90104.0836,0.04039437259276968
352,90733.0,0.038647346679183334
353,91626.0,0.03685206202927628
354,92518.0,0.03528076616397159
355,93119.6005,0.03489168450364062
356,93410.0,0.03461805229674285
357,94300.0,0.033685823831161144
358,95190.0,0.033112795365579435
359,96080.0,0.03273266689999772
360,96236.03790000001,0.03266832589101602
361,96968.0,0.03229201985961921
362,97856.0,0.03184959382380345
363,98743.0,0.03142125385334334
364,99456.7731,0.031014620426626227
365,99641.0,0.03091877643040306
366,100545.0,0.03051027245013834
367,101448.0,0.03030930508932083
368,102348.0,0.030247947586844896
369,102785.297,0.030301358547256185
370,103250.0,0.030341824015563068
371,104150.0,0.030650511849311876
372,105048.0,0.031151743043430127
373,105947.0,0.031878102557363654
374,106225.216,0.03211710534255609
375,106845.0,0.032699866715817164
376,107741.0,0.03366640587223778
377,108638.0,0.035318054558966895
378,109525.0,0.03646760794261096
379,109780.26,0.03763341102227699
380,110388.0,0.040419362032203913
381,111321.0,0.03901151151451541
382,112576.0,0.03707400261880364
383,113454.28,0.03601119483805412
384,115773.0,0.0332773299370934
385,117251.259,0.03204840859961965
386,120781.0,0.029251516825367765
387,121175.312,0.028135452654107614
388,122180.0,0.025325232190677664
389,123595.0,0.025803256069400836
390,125026.0,0.025864257391275645
391,125230.691,0.025784870164626328
392,126474.0,0.02531270432739315
393,127938.0,0.024392910539885848
394,129420.0,0.023008399205810832
395,129421.79100000001,0.023006561930688348
396,130918.0,0.021521294581316554
397,132434.0,0.02043682849190394
398,133753.155,0.019922592869650937
399,133968.0,0.01984703996067326
400,135519.0,0.01955554664529108
401,137088.0,0.01935351936493348
402,138229.477,0.019234230690334395
403,138676.0,0.01919520415353855
404,140281.0,0.019072258995480373
405,141906.0,0.0189087403775087
406,142855.609,0.018783352264356564
407,143549.0,0.018730253560675366
408,145211.0,0.018504689434788536
409,146893.0,0.018272161119661193
410,147636.563,0.018416775907290194
411,148594.0,0.01860677993827827
412,150314.0,0.01910697385111689
413,152055.0,0.019186268561728545
414,152577.522,0.019161277760667072
415,153815.0,0.01910902330887496
416,155597.0,0.01883911431055657
417,157398.0,0.017645041018765656
418,157683.84,0.017671953015272253
419,159221.0,0.017811099152277066
420,161065.0,0.018014262178598906
421,162930.0,0.017958767408582762
422,162961.05099999998,0.017958511351987925
423,164816.0,0.01793121483226429
424,166725.0,0.01793043024160716
425,168414.875,0.017916352409664008
426,168655.0,0.017914559316199227
427,170608.0,0.017897236080129136
428,172584.0,0.017887101561709015
429,174051.222,0.017877608004618614
430,174582.0,0.017866899039807628
431,176604.0,0.017825729340093535
432,178649.0,0.017786633130442046
433,179876.201,0.01776139912463827
434,180717.0,0.017743994939244914
435,182810.0,0.017703095091597634
436,184927.0,0.01766403385057074
437,185896.125,0.017644876483420245
438,187068.0,0.01761315541312116
439,189234.0,0.01755942579873032
440,191426.0,0.017502281516761378
441,192117.51799999998,0.01748493711623885
442,193642.0,0.017440019260501566
443,195884.0,0.017373797665440217
444,198153.0,0.01730900404403335
445,198547.123,0.01729814954080549
446,200447.0,0.017242094680736748
447,202768.0,0.017173386388638197
448,205116.0,0.017103553053934448
449,205191.907,0.01710139383130439
450,207491.0,0.01705086515720443
451,209894.0,0.016999678914004022
452,212059.073,0.01695554292044405
453,212324.0,0.016949644639399193
454,214783.0,0.016894560924638462
455,217270.0,0.01684123530503296
456,219156.062,0.016800449359136292
457,219786.0,0.016789782492897087
458,222331.0,0.016751831934114836
459,224905.0,0.016712834748140178
460,226490.56699999998,0.016690365349899136
461,227510.0,0.016677144364103703
462,230144.0,0.016645448461286596
463,232809.0,0.016612871019749918
464,234070.535,0.016599881804187026
465,235505.0,0.016586804752034386
466,238232.0,0.01656148217640227
467,240991.0,0.0165410809346828
468,241904.18300000002,0.016535108848951496
469,243781.0,0.016527275446875333
470,246604.0,0.016515096335648155
471,249459.0,0.016504414273107032
472,250000.0,0.016503543935693775
473,252348.0,0.016506638841554813
474,255270.0,0.01651010913397296
475,258226.0,0.01651611330385251
476,261216.0,0.016521751351193464
477,264241.0,0.016532994860627034
478,267301.0,0.016543943832153227
479,270396.0,0.016554698265772036
480,273527.0,0.016568229746114684
481,275422.87,0.016577992564936767
482,276694.0,0.016592081084006324
483,279898.0,0.016627250590404697
484,283139.0,0.016662388283986824
485,286418.0,0.016700671683325237
486,289734.0,0.016732923269847398
487,293089.0,0.01678399808069838
488,296483.0,0.01683549611587818
489,299916.0,0.0168548173753868
490,303389.0,0.01690663937779677
491,306902.0,0.016958662123108096
492,310456.0,0.01697786312989331
493,314051.0,0.01703014239815241
494,316227.766,0.01706166690870432
495,317687.0,0.01709152369791265
496,321366.0,0.01716640877114257
497,325087.0,0.01720760071392282
498,328852.0,0.01728326652004151
499,332660.0,0.017359522692604577
500,336512.0,0.017401152728506085
501,340408.0,0.017478256627746033
502,344350.0,0.017555801384112533
503,348337.0,0.017597903500711526
504,352371.0,0.017676329971331124
505,356451.0,0.01771859729907727
506,360579.0,0.017797872477738074
507,363078.055,0.01782331168004829
508,364754.0,0.017848932360478662
509,368978.0,0.01791289848278755
510,373250.0,0.018015017629213585
511,377572.0,0.018079767009094982
512,381944.0,0.01814484662243174
513,386367.0,0.01821004507389297
514,390841.0,0.01827536236347866
515,395367.0,0.018340987095857932
516,399945.0,0.018367419271030774
517,404576.0,0.018433247493666302
518,409261.0,0.018499160368433618
519,414000.0,0.018525257895332724
520,416869.38300000003,0.018564803657440666
521,418794.0,0.018599672196620995
522,423643.0,0.01864643741525006
523,428548.0,0.01869310726416232
524,433511.0,0.01873986762301075
525,438531.0,0.018786525551968865
526,443609.0,0.01883307399086315
527,448745.0,0.018838212939693608
528,453942.0,0.01888462121793969
529,459198.0,0.018889112945948423
530,464515.0,0.018893374003372786
531,469894.0,0.01889719733003926
532,475335.0,0.01890078292594785
533,478630.092,0.01890266323869383
534,480839.0,0.018910810361271055
535,486407.0,0.018931058461729166
536,492040.0,0.018908850298992193
537,497737.0,0.01888638981557083
538,503501.0,0.018863665183933
539,509331.0,0.01884068034658939
540,515229.0,0.018817427418518617
541,521195.0,0.01875170639972068
542,527230.0,0.018685913347684886
543,533335.0,0.01866184431990054
544,539511.0,0.01855369537385695
545,545758.0,0.018487266509554116
546,549540.874,0.018447448617744187
547,552077.0,0.01842556326338257
548,558470.0,0.018329382400973076
549,564937.0,0.01823355012548392
550,571479.0,0.018137864390792395
551,578096.0,0.01800152519689851
552,584790.0,0.017906528451556863
553,591562.0,0.017787472108644755
554,598412.0,0.017612856168162192
555,605341.0,0.01747917858398647
556,612350.0,0.017346137309994895
557,619441.0,0.01717472825394207
558,626614.0,0.01700455141582799
559,630957.3439999999,0.016903422213872983
560,633870.0,0.016838686135199066
561,641210.0,0.01664083279955208
562,648634.0,0.016482596455704223
563,656145.0,0.0162883741390769
564,663743.0,0.01609636584967011
565,671429.0,0.015906270599290985
566,679204.0,0.01568248739974666
567,687068.0,0.015496816251037132
568,695024.0,0.015278154188583798
569,703072.0,0.015062301212386664
570,711214.0,0.014849155346059987
571,719449.0,0.01463881757779664
572,724435.96,0.014514468239141546
573,727780.0,0.014432870368123438
574,736207.0,0.014199842148346322
575,744732.0,0.01397036940910342
576,753356.0,0.013775951696114473
577,762079.0,0.013553089009379479
578,770903.0,0.01333368044033791
579,779830.0,0.013117625080429246
580,788860.0,0.01287542292965348
581,797995.0,0.012666473079450092
582,807235.0,0.012432275529819077
583,816582.0,0.01223022937219991
584,826038.0,0.012003733698032067
585,831763.771,0.01187051437767722
586,835603.0,0.011782160973630254
587,845279.0,0.011566016262416143
588,855067.0,0.01135374904110943
589,864968.0,0.011145359108727151
590,874984.0,0.010940646063303364
591,885116.0,0.010739609703855102
592,895365.0,0.010518049829399391
593,905733.0,0.010324666037970295
594,916221.0,0.010111458128584846
595,926830.0,0.00992539590026007
596,937562.0,0.00972021895103003
597,948418.0,0.009519257079911757
598,954992.586,0.009414195760750787
599,959401.0,0.009344256000419647
600,970510.0,0.009152169174750415
601,981748.0,0.008963891238224102
602,993116.0,0.008779482104710029
603,1004620.0,0.00859884125742415
604,1016250.0,0.00842184955767321
605,1028020.0,0.008248525799627763
606,1039920.0,0.008078650844594559
607,1051960.0,0.007912283831266848
608,1064140.0,0.007749204759644628
609,1076470.0,0.0075721127684211485
610,1088930.0,0.007415989580209912
611,1096478.2,0.0073144533560235295
612,1101540.0,0.00724661754682023
613,1114290.0,0.0070814493603431755
614,1127200.0,0.006920045424075036
