,lambda (Angstroms),Total Flux (erg/s/cm^2/Angstrom)
0,1006.0,11.689203204027645
1,1017.65,10.407348886903344
2,1029.44,10.691116437212743
3,1041.36,11.996714292996291
4,1053.42,11.656486016213538
5,1065.61,11.569062044904937
6,1077.95,11.09950150298958
7,1090.44,11.534974390467477
8,1096.4782,11.446510068160269
9,1103.06,11.364449135146806
10,1115.83,11.01248566310415
11,1128.76,11.39954444982995
12,1141.83,11.10238271297815
13,1155.05,11.147521843721774
14,1168.42,10.370451842060826
15,1181.95,10.354464099168336
16,1195.64,9.178788615044297
17,1209.48,8.421032998515688
18,1223.49,9.592503031928564
19,1237.66,10.233384324109894
20,1251.99,9.942037875059677
21,1258.92541,10.006991320869062
22,1266.48,10.099132418035046
23,1281.15,10.00330731861531
24,1295.99,9.346917177143673
25,1310.99,9.867462290211428
26,1326.17,9.374462064635996
27,1341.53,9.492366500417377
28,1357.06,9.237475894146858
29,1372.78,8.994589652641865
30,1388.67,8.481318369084972
31,1404.75,8.540461450293606
32,1421.02,8.474048896267764
33,1437.47,8.463301003598733
34,1445.43977,8.386358582569073
35,1454.12,8.3209842141857
36,1470.96,8.201473953587879
37,1487.99,8.087551403826547
38,1505.22,7.777867497050987
39,1522.65,7.481492233261202
40,1540.28,7.263255612457191
41,1558.12,7.287418566788244
42,1576.16,7.280160164105068
43,1594.41,7.021431336556956
44,1612.87,6.892932084143909
45,1631.55,6.7732833390152125
46,1650.44,6.621274169021578
47,1659.58691,6.620437179988498
48,1669.55,6.6341727362653
49,1688.88,6.480232567126909
50,1708.44,6.240831971764937
51,1728.22,6.25696531653693
52,1748.24,6.183863868727796
53,1768.48,6.051016361052626
54,1788.96,5.960014060796327
55,1809.67,5.844301334316448
56,1830.63,5.648969448897892
57,1851.83,5.5035227708982095
58,1873.27,5.363921300317398
59,1894.96,5.229540670797911
60,1905.46072,5.149727642272003
61,1916.9,5.073284555744825
62,1939.1,5.032695527504281
63,1961.55,4.933706893089854
64,1984.27,4.7761582840076375
65,2007.24,4.74053006875154
66,2030.49,4.6244966945806985
67,2054.0,4.485358529989021
68,2077.78,4.460860390729553
69,2101.84,4.35991709255534
70,2126.18,4.238458635466381
71,2150.8,4.157933019462676
72,2175.71,4.05694006029727
73,2187.7616199999998,4.001937921959157
74,2200.9,3.9526783092084923
75,2226.38,3.9071795507960734
76,2252.16,3.854959641381939
77,2278.24,3.8209035809660885
78,2304.62,3.7780463695485214
79,2331.31,3.6996939687625146
80,2358.31,3.659763378608068
81,2385.61,3.605160637451905
82,2413.24,3.570243630193855
83,2441.18,3.5474664335673642
84,2469.45,3.478560970838986
85,2498.04,3.4196572803754437
86,2511.88643,3.39124362350685
87,2526.97,3.36684258965432
88,2556.23,3.3623469354828943
89,2585.83,3.310336650333399
90,2615.77,3.264184734205836
91,2646.06,3.2483074920714374
92,2676.7,3.1827899239302035
93,2707.7,3.1078673347533683
94,2739.05,3.0451624195696967
95,2770.77,3.0086687883216574
96,2802.85,3.004674136038016
97,2835.31,2.9229610726612387
98,2868.14,2.8984022932200935
99,2884.0315,2.892264762148864
100,2901.35,2.892034671425013
101,2934.95,2.8344997850028095
102,2968.93,2.7925562004603544
103,3003.31,2.7355559863176344
104,3038.09,2.7099111425746503
105,3073.27,2.6783696692314023
106,3108.85,2.6671065662878894
107,3144.85,2.6123429022640994
108,3181.27,2.6021766771600316
109,3218.1,2.561590856715693
110,3255.37,2.537643543711064
111,3293.06,2.492503669626157
112,3311.31121,2.4761401092595556
113,3331.19,2.463515908131599
114,3369.77,2.429678338453235
115,3408.79,2.403043342889477
116,3448.26,2.354252570852022
117,3488.19,2.330694671752564
118,3528.58,2.319594645591104
119,3569.44,2.2370211417793375
120,3610.77,2.245674160317264
121,3652.58,2.19279735061658
122,3694.88,2.28888036208898
123,3737.66,2.197904545322769
124,3780.94,2.179778199141338
125,3801.8939600000003,2.194457996169726
126,3824.72,2.2146535600617634
127,3869.01,2.0958254014578825
128,3913.81,2.106653297699611
129,3959.13,2.20382774005843
130,4004.98,2.310572219805824
131,4051.35,2.263325245670309
132,4098.26,2.2304148001948505
133,4145.72,2.2160563746509316
134,4193.73,2.2062499690385518
135,4242.29,2.1654755833577104
136,4291.41,2.111131708879891
137,4341.1,2.1687748368765756
138,4365.15832,2.1521032498975456
139,4391.37,2.137430701314653
140,4442.22,2.1116467398308094
141,4493.66,2.159545347918736
142,4545.69,2.1455565255784332
143,4598.33,2.1365139192360623
144,4651.57,2.0842107056785437
145,4705.44,2.049827354545118
146,4759.92,2.034970219409625
147,4815.04,1.9980097699113073
148,4870.8,2.002206006050164
149,4927.2,2.0989689278261956
150,4984.25,2.181575358452483
151,5011.87234,2.046709994492396
152,5041.97,1.9025617490799465
153,5100.35,1.8435532272248005
154,5159.41,1.7843180079585292
155,5219.15,1.832702091281133
156,5279.59,1.8664929860922834
157,5340.72,1.8122629379421453
158,5402.56,1.7908334557303909
159,5465.12,1.7861672939068567
160,5528.41,1.7747192069213789
161,5592.42,1.7305934403241214
162,5657.18,1.7178422574645933
163,5722.69,1.703579658342795
164,5754.399369999999,1.702180820788778
165,5788.95,1.702911302482819
166,5855.99,1.5856469422428958
167,5923.79,1.6320975152699422
168,5992.39,1.6246246496306411
169,6061.78,1.6086069383083221
170,6131.97,1.5473697883196555
171,6202.98,1.5326020136979825
172,6274.8,1.5412752074266327
173,6347.46,1.545402590555618
174,6420.96,1.5227781630849386
175,6495.31,1.5161663320312644
176,6570.52,1.492093504411267
177,6606.93448,1.4754315658464692
178,6646.61,1.4591928072042675
179,6723.57,1.4442124073105505
180,6801.43,1.4343670859004045
181,6880.18,1.4226269532129017
182,6959.85,1.4123866785308272
183,7040.44,1.3937382618541814
184,7121.97,1.3566144827048214
185,7204.44,1.339877341082747
186,7287.86,1.3452707267488866
187,7372.25,1.3397504192250977
188,7457.62,1.343102308272309
189,7543.97,1.32804839389052
190,7585.77575,1.3115706075065965
191,7631.33,1.2951653808821573
192,7719.69,1.286851858626532
193,7809.08,1.2685470286759848
194,7899.51,1.234709121052895
195,7990.8,1.245531995354434
196,8083.32,1.238592162408639
197,8176.92,1.208368171879819
198,8271.61,1.1902592537903534
199,8367.39,1.1783194081402426
200,8464.28,1.1425170949742451
201,8562.29,1.1364885443147403
202,8661.44,1.1532312162064873
203,8709.6359,1.1414765367627273
204,8761.73,1.1301435074552941
205,8863.19,1.1323782348650009
206,8965.82,1.0875946980431812
207,9069.64,1.0985128839260487
208,9174.66,1.0647192859817098
209,9280.9,1.0338328911463779
210,9388.37,0.9914341928881595
211,9497.08,1.0334726846751614
212,9607.05,1.0243023534435964
213,9718.29,1.0056786926615715
214,9830.74,1.008470741520447
215,9944.57,1.0031708889780353
216,10000.0,0.9958370172278708
217,10059.7,0.9891109570268257
218,10176.2,0.9753244312293556
219,10294.1,0.9641644931047058
220,10413.3,0.9539472435333887
221,10533.9,0.9369285816348918
222,10655.9,0.9315595074092149
223,10779.3,0.9198600208563582
224,10904.1,0.8997111219763216
225,11030.4,0.8821057098885922
226,11158.1,0.8734278854736829
227,11287.3,0.8620855478510809
228,11418.0,0.8492196970207861
229,11481.5362,0.8393377685957453
230,11550.2,0.8296776179328283
231,11684.0,0.8234738439828384
232,11819.3,0.8156558236881177
233,11956.1,0.8051665570486661
234,12094.6,0.7938118112185197
235,12234.6,0.7818788190436425
236,12376.3,0.7662813476780701
237,12519.6,0.749882013544785
238,12664.8,0.7484089673748409
239,12811.5,0.7396856748601659
240,12959.9,0.7306909031547959
241,13109.9,0.7216532686817132
242,13182.5674,0.7170520866335801
243,13261.7,0.7128818472963302
244,13415.3,0.7035210992621332
245,13570.6,0.6901439243291203
246,13727.8,0.6882622134503719
247,13886.7,0.6802710756728074
248,14047.5,0.6696594019495075
249,14210.2,0.652762192280472
250,14374.7,0.6504510011891608
251,14541.2,0.6315167196286543
252,14709.6,0.6364049021224123
253,14879.9,0.6454235486704348
254,15052.2,0.637586104749262
255,15135.6125,0.6362119116205383
256,15226.5,0.6351798702551794
257,15402.8,0.635104815844964
258,15581.2,0.6175078674230559
259,15761.6,0.6281320675614401
260,15944.1,0.6178723736881315
261,16128.7,0.5975727858031301
262,16315.5,0.5967562613344505
263,16504.4,0.5999618428540778
264,16695.5,0.586040487790027
265,16888.8,0.584375196142298
266,17084.4,0.5708949253389054
267,17282.2,0.5618277179518345
268,17378.0083,0.5552856529563709
269,17482.4,0.5483258790310412
270,17684.8,0.5293941969060568
271,17889.6,0.5206973644001438
272,18096.7,0.5160412627791741
273,18306.3,0.49647112951140376
274,18518.3,0.4912788458627047
275,18732.7,0.4827174118330769
276,18949.6,0.47391894615664854
277,19169.0,0.4660034488334194
278,19391.0,0.4580540385975176
279,19615.5,0.45010059671481506
280,19842.7,0.4433453606535678
281,19952.6231,0.4408046067780844
282,20072.4,0.4378404958138179
283,20304.9,0.4314268773389772
284,20540.0,0.4250021001199018
285,20777.8,0.4191831195895056
286,21018.4,0.41317889118070283
287,21261.8,0.4067174148934933
288,21338.5,0.4053492319385673
289,22908.6765,0.384836493638187
290,25345.3,0.34987743102290825
291,26302.679900000003,0.3415734419502676
292,29014.6,0.31288898668677106
293,30199.5172,0.3025349932106835
294,32012.6,0.2853153047785076
295,34673.685,0.264939265111124
296,35757.2,0.2564332602614905
297,39810.7171,0.2280768086810763
298,40433.8,0.22392800448797961
299,43528.4,0.20603005170443853
300,45708.818999999996,0.19429778284970622
301,47439.4,0.18546284699786691
302,51701.8,0.16561418501494368
303,52480.746,0.16223584899093854
304,56347.2,0.1479084332115015
305,58016.0,0.14329833054631144
306,58952.0,0.14150941888846277
307,59887.0,0.1398789483755477
308,60255.9586,0.1389137584580431
309,60821.0,0.13796586732040386
310,61740.0,0.13557076662317297
311,62659.0,0.13349356592594203
312,63575.0,0.1332934733920318
313,64492.0,0.13085627813701464
314,65395.0,0.12765772097749395
315,66296.0,0.12411026926018703
316,67000.0,0.12127393188541062
317,67217.0,0.12049805150046827
318,68143.0,0.11580088262934268
319,69063.0,0.11372720966882913
320,69242.2916,0.11364604121348071
321,69975.0,0.11348532566860126
322,70885.0,0.11494071539120854
323,71559.6261,0.11685583041399164
324,71795.0,0.11769056103727665
325,72705.0,0.1216580874510351
326,73614.0,0.1271808221874158
327,73954.515,0.12857319967005498
328,74522.0,0.13142549486966357
329,75429.0,0.13519885897106648
330,76335.0,0.1377894942256101
331,76429.5536,0.13793034094514528
332,77242.0,0.1401666408808464
333,78146.0,0.14002362899471876
334,78987.42450000001,0.1395948079013239
335,79050.0,0.13960099514499374
336,79954.0,0.13850407946118068
337,80856.0,0.1370413631483495
338,81630.8998,0.13544086318359386
339,81758.0,0.13521128487826242
340,82658.0,0.1336162031199115
341,83558.0,0.13200652136156057
342,84362.84430000001,0.13060137371804503
343,84459.0,0.13031051238213143
344,85357.0,0.127524036582942
345,86255.0,0.12465106078375263
346,87151.0,0.12165372412888212
347,87186.21900000001,0.12155795136961813
348,88048.0,0.11891695739393279
349,88944.0,0.11642419689101301
350,89838.0,0.11419866598743011
351,90104.0836,0.11357234511946848
352,90733.0,0.11185353339591664
353,91626.0,0.1100983101463814
354,92518.0,0.10856703081985797
355,93119.6005,0.10820493791483986
356,93410.0,0.10760106148371423
357,94300.0,0.10565671915580571
358,95190.0,0.10407157682789717
359,96080.0,0.10267933449998863
360,96236.03790000001,0.10243754616332335
361,96968.0,0.10093089929809604
362,97856.0,0.09911716911901723
363,98743.0,0.09731906926671668
364,99456.7731,0.0958101835771846
365,99641.0,0.09546628215201529
366,100545.0,0.0938405622506917
367,101448.0,0.09242372544660413
368,102348.0,0.09115053793422447
369,102785.297,0.09061513819703478
370,103250.0,0.08996472007781534
371,104150.0,0.08893535924655938
372,105048.0,0.08810151521715062
373,105947.0,0.08749131278681828
374,106225.216,0.08731668607491853
375,106845.0,0.08717933357908582
376,107741.0,0.08710482936118888
377,108638.0,0.08771427279483447
378,109525.0,0.0878332397130548
379,109780.26,0.08870246161891693
380,110388.0,0.09082361016101957
381,111321.0,0.08839515757257703
382,112576.0,0.0850848130940182
383,113454.28,0.08306126106171259
384,115773.0,0.078079049685467
385,117251.259,0.0754167347462612
386,120781.0,0.06974718412683882
387,121175.312,0.06831021146553454
388,122180.0,0.06481616095338832
389,123595.0,0.06433108034700419
390,125026.0,0.06341808695637823
391,125230.691,0.063199379008767
392,126474.0,0.06192112163696574
393,127938.0,0.060052152699429234
394,129420.0,0.05770679602905415
395,129421.79100000001,0.05770379757039771
396,130918.0,0.05544687290658276
397,132434.0,0.05358054245951969
398,133753.155,0.05238596364682052
399,133968.0,0.05223239980336629
400,135519.0,0.051377733226455405
401,137088.0,0.050605996824667404
402,138229.477,0.05007223405267953
403,138676.0,0.04990162076769275
404,140281.0,0.04930569497740187
405,141906.0,0.0486633018875435
406,142855.609,0.04825807161539207
407,143549.0,0.04815446780337683
408,145211.0,0.04780784717394269
409,146893.0,0.04745280559830596
410,147636.563,0.04754326085708589
411,148594.0,0.04767869969139135
412,150314.0,0.04808086925558446
413,152055.0,0.048060942808642725
414,152577.522,0.048006173008335346
415,153815.0,0.0479111165443748
416,155597.0,0.04757957155278286
417,157398.0,0.04632320509382828
418,157683.84,0.04634023042797948
419,159221.0,0.04640389576138533
420,161065.0,0.04651651089299453
421,162930.0,0.04636943704291381
422,162961.05099999998,0.04636765625601597
423,164816.0,0.04620127416132144
424,166725.0,0.04605735120803578
425,168414.875,0.045916565183035066
426,168655.0,0.04589759658099613
427,170608.0,0.04574058040064568
428,172584.0,0.045589107808545075
429,174051.222,0.04547466772759757
430,174582.0,0.045396895199038126
431,176604.0,0.045100246700467674
432,178649.0,0.044802765652210225
433,179876.201,0.044622475346982444
434,180717.0,0.04449837469622457
435,182810.0,0.04419187545798817
436,184927.0,0.043884169252853704
437,185896.125,0.04374203099253327
438,187068.0,0.043527377065605805
439,189234.0,0.04313552899365159
440,191426.0,0.04273620758380689
441,192117.51799999998,0.042610915353396416
442,193642.0,0.04230129630250781
443,195884.0,0.04184578832720108
444,198153.0,0.04138702022016675
445,198547.123,0.04130773274814252
446,200447.0,0.04090687340368374
447,202768.0,0.04041693194319097
448,205116.0,0.03992096526967224
449,205191.907,0.03990502985311141
450,207491.0,0.039496725786022126
451,209894.0,0.03907159457002012
452,212059.073,0.03869053882444247
453,212324.0,0.038641423196995955
454,214783.0,0.03818520462319231
455,217270.0,0.03772617652516479
456,219156.062,0.03737771867421883
457,219786.0,0.03727611246448544
458,222331.0,0.03687075967057418
459,224905.0,0.03646017374070088
460,226490.56699999998,0.036208808130378585
461,227510.0,0.03605332182051853
462,230144.0,0.03565404230643297
463,232809.0,0.035249555098749594
464,234070.535,0.035060514405949976
465,235505.0,0.03485402376017193
466,238232.0,0.03446101088201135
467,240991.0,0.034068604673413994
468,241904.18300000002,0.03393950514597611
469,243781.0,0.03369637723437666
470,246604.0,0.03333028167824077
471,249459.0,0.032961671365535156
472,250000.0,0.032892976445516295
473,252348.0,0.03262919420777406
474,255270.0,0.0323005456698648
475,258226.0,0.031970566519262555
476,261216.0,0.03163635675596731
477,264241.0,0.03130377430313517
478,267301.0,0.03096691916076612
479,270396.0,0.030625891328860178
480,273527.0,0.03028354873057342
481,275422.87,0.030077824168542384
482,276694.0,0.029977605420031618
483,279898.0,0.029724652952023492
484,283139.0,0.029468341419934117
485,286418.0,0.029211758416626175
486,289734.0,0.028945816349236986
487,293089.0,0.02869519040349189
488,296483.0,0.028441480579390895
489,299916.0,0.02815208687693399
490,303389.0,0.027891596888983856
491,306902.0,0.027627710615540486
492,310456.0,0.02732731564946655
493,314051.0,0.02705631199076205
494,316227.766,0.02689208927355461
495,317687.0,0.026825618489563254
496,321366.0,0.026657643855712856
497,325087.0,0.0264532035696141
498,328852.0,0.026280332600207536
499,332660.0,0.02610521346302289
500,336512.0,0.025892563642530432
501,340408.0,0.025712483138730174
502,344350.0,0.025529806920562663
503,348337.0,0.025308717503557628
504,352371.0,0.025120849856655615
505,356451.0,0.024893786495386348
506,360579.0,0.024700562388690384
507,363078.055,0.024561032913295353
508,364754.0,0.02451026180239331
509,368978.0,0.024381692413937756
510,373250.0,0.024289088146067936
511,377572.0,0.02415683504547492
512,381944.0,0.024022633112158708
513,386367.0,0.023886225369464838
514,390841.0,0.023747611817393308
515,395367.0,0.023606935479289656
516,399945.0,0.023424696355153877
517,404576.0,0.023279437468331513
518,409261.0,0.023131801842168096
519,414000.0,0.02294188947666363
520,416869.38300000003,0.02285064496379908
521,418794.0,0.02283116098310497
522,423643.0,0.02274098707625029
523,428548.0,0.0226491363208116
524,433511.0,0.02255573811505376
525,438531.0,0.022460627759844337
526,443609.0,0.02236376995431576
527,448745.0,0.022223864698468036
528,453942.0,0.022123506089698444
529,459198.0,0.02197956472974212
530,464515.0,0.021833670016863933
531,469894.0,0.02168558665019631
532,475335.0,0.021535514629739246
533,478630.092,0.02144433925742264
534,480839.0,0.02141765180635527
535,486407.0,0.021350092308645822
536,492040.0,0.021239051494960963
537,497737.0,0.021126749077854154
538,503501.0,0.02101312591966499
539,509331.0,0.020898201732946948
540,515229.0,0.020781937092593083
541,521195.0,0.020622131998603403
542,527230.0,0.020461166738424432
543,533335.0,0.020340821599502706
544,539511.0,0.020135276869284756
545,545758.0,0.019970332547770586
546,549540.874,0.019870858571170696
547,552077.0,0.019828216316912856
548,558470.0,0.019679712004865388
549,564937.0,0.01953095062741959
550,571479.0,0.019381721953961976
551,578096.0,0.019191225984492542
552,584790.0,0.019041442257784306
553,591562.0,0.018866960543223777
554,598412.0,0.018636280840810957
555,605341.0,0.01844589291993235
556,612350.0,0.018255486549974477
557,619441.0,0.018026041269710344
558,626614.0,0.017797157079139956
559,630957.3439999999,0.017660479818207255
560,633870.0,0.017584230675995342
561,641210.0,0.01735736399776039
562,648634.0,0.017169782278521114
563,656145.0,0.0169458706953845
564,663743.0,0.01672382924835055
565,671429.0,0.01650335299645493
566,679204.0,0.0162488369987333
567,687068.0,0.01603208125518566
568,695024.0,0.015781970942919
569,703072.0,0.015534306061933317
570,711214.0,0.015288976730299938
571,719449.0,0.015046087888983201
572,724435.96,0.014902026237119323
573,727780.0,0.01481435184061719
574,736207.0,0.014566010741731604
575,744732.0,0.014321047045517099
576,753356.0,0.014110958480572363
577,762079.0,0.013872245046897394
578,770903.0,0.013636802201689559
579,779830.0,0.01340452540214623
580,788860.0,0.013145914648267407
581,797995.0,0.012920365397250458
582,807235.0,0.012669377649095384
583,816582.0,0.012450346860999552
584,826038.0,0.012206668490160331
585,831763.771,0.012063044750780235
586,835603.0,0.011971604868151275
587,845279.0,0.01174768131208071
588,855067.0,0.01152754520554715
589,864968.0,0.011311195543635754
590,874984.0,0.01109843031651682
591,885116.0,0.010889248519275505
592,895365.0,0.010659449146996956
593,905733.0,0.01045773018985148
594,916221.0,0.010236090642924228
595,926830.0,0.01004149950130035
596,937562.0,0.009827694755150152
597,948418.0,0.009618005399558786
598,954992.586,0.009507658561124416
599,959401.0,0.009436200002098235
600,970510.0,0.009240285873752075
601,981748.0,0.009048136191120503
602,993116.0,0.008859810523550142
603,1004620.0,0.00867520628712074
604,1016250.0,0.00849420778836605
605,1028020.0,0.008316828998138818
606,1039920.0,0.0081428542229728
607,1051960.0,0.007972339156334239
608,1064140.0,0.007805063798223138
609,1076470.0,0.0076237238421057426
610,1088930.0,0.007463307901049558
611,1096478.2,0.00735917115061725
612,1101540.0,0.007290607734101149
613,1114290.0,0.007123606801715877
614,1127200.0,0.006960347120375183
615,1140250.0,0.006800732283698494
616,1153450.0,0.006644610494876095
617,1166810.0,0.006492019957098274
618,1180320.0,0.006342822467174743
