,lambda (Angstroms),Total Flux (erg/s/cm^2/Angstrom)
0,1235.0,0.4622181403092162
1,1258.92541,0.4515671831384963
2,1267.61,0.44770249083712954
3,1301.08,0.4336468636024631
4,1334.0,0.3732222302422832
5,1367.24,0.30800560044603836
6,1400.44,0.30083297020430166
7,1433.47,0.35384533806922447
8,1445.43977,0.3660579298986496
9,1466.91,0.3879636720713477
10,1499.75,0.32822497904059195
11,1533.33,0.2776862929269264
12,1566.09,0.2797805991483771
13,1599.47,0.2844439111652277
14,1632.47,0.31928721963005907
15,1659.58691,0.3646500846434052
16,1665.66,0.37480988766719603
17,1698.89,0.4152661560284705
18,1731.91,0.4256504100546301
19,1765.34,0.43094669206839503
20,1798.2,0.40975293517256234
21,1831.68,0.3896032205994498
22,1864.54,0.4295764637036171
23,1897.85,0.4813467375258877
24,1905.46072,0.46167909389682005
25,1930.91,0.39590901774317416
26,1964.07,0.2735760999596276
27,1997.32,0.2272471742568858
28,2030.33,0.2557422696719983
29,2063.75,0.27470732901077627
30,2096.63,0.20621743586472652
31,2130.04,0.1548044960834151
32,2162.97,0.19750059853781238
33,2187.7616199999998,0.2561090566705534
34,2196.23,0.2761300111928203
35,2229.34,0.28071933401208354
36,2262.47,0.22881665823443914
37,2295.73,0.21456799157689452
38,2328.74,0.2680103073806964
39,2362.16,0.33232465194788996
40,2395.05,0.3715099593331382
41,2428.4,0.4153172989895088
42,2461.39,0.3932926133902184
43,2494.62,0.35764794462803534
44,2511.88643,0.3519094881665988
45,2527.75,0.3466357252251466
46,2560.87,0.35458782596141936
47,2594.14,0.3582519226249397
48,2627.15,0.3505510263478976
49,2660.56,0.34344611921018237
50,2693.46,0.3617832259198253
51,2726.77,0.3810983214972784
52,2759.8,0.38009442467720256
53,2793.0,0.3724195232413408
54,2826.16,0.3736486228915462
55,2859.26,0.38415072417085266
56,2884.0315,0.38892943263763496
57,2892.54,0.3905710468550692
58,2925.54,0.38257802851811423
59,2958.92,0.37474800997000646
60,2991.86,0.4200319916663914
61,3025.14,0.4728989731738501
62,3058.2,0.4879829548035552
63,3091.38,0.48557293636658044
64,3124.56,0.4655389179296057
65,3157.65,0.42597889954264084
66,3190.94,0.4017668810445429
67,3223.94,0.4345388627075879
68,3257.28,0.4699848441817067
69,3290.26,0.47842082585586504
70,3311.31121,0.482210031958438
71,3323.51,0.48440568458069405
72,3356.6,0.4791473330927556
73,3389.76,0.46819398086126457
74,3422.96,0.46090262820488637
75,3456.03,0.4589332769293915
76,3489.33,0.45719692321079525
77,3522.33,0.45694757267885305
78,3555.64,0.456697218854035
79,3588.65,0.46924486821587097
80,3621.88,0.4841355152408273
81,3654.99,0.49903016354044527
82,3688.14,0.514067811415176
83,3721.35,0.534885458652576
84,3754.42,0.5672101073770812
85,3787.73,0.6006727535522631
86,3801.8939600000003,0.6118307466721213
87,3820.72,0.6266614447934208
88,3854.0,0.6537761649444848
89,3887.04,0.63633788711369
90,3920.25,0.6100486078533784
91,3953.38,0.6394173292657807
92,3986.52,0.7191800505940937
93,4019.74,0.7807167712496929
94,4052.8,0.7790644932507197
95,4086.11,0.7776952131495158
96,4119.11,0.7843159356550781
97,4152.37,0.7909916559743203
98,4185.43,0.8049283779753471
99,4218.62,0.821292098883214
100,4251.78,0.8134938200433486
101,4284.9,0.78307854153984
102,4318.13,0.76825026211135
103,4351.19,0.7985849841123768
104,4365.15832,0.8118075945505859
105,4384.5,0.8301169596823051
106,4417.5,0.8528121184037163
107,4450.74,0.8759722782794649
108,4483.82,0.8910064373856551
109,4517.0,0.9029055969728195
110,4550.16,0.9175657564637888
111,4583.27,0.9355739157142713
112,4616.52,0.9554840756381172
113,4649.57,0.9822462346000154
114,4682.86,1.009758394716251
115,4715.88,0.9855535535338568
116,4749.11,0.9585147133615081
117,4782.21,0.9513778725638931
118,4815.37,0.9536510320548625
119,4848.55,0.9460401916420268
120,4881.65,0.9246233508444118
121,4914.91,0.9200575108163552
122,4947.95,1.014319669730156
123,4981.22,1.1182198297501968
124,5011.87234,1.0503118278668135
125,5014.27,1.044999991029463
126,5047.47,0.9561851828010327
127,5080.59,0.9288223741105024
128,5113.74,0.9352665655932597
129,5146.94,0.9373507573648295
130,5180.03,0.9317169485010116
131,5213.29,0.9276761406191567
132,5246.33,0.9377523314665261
133,5279.58,0.9479365235269086
134,5312.65,0.9737027145475657
135,5345.85,1.0032719063191355
136,5378.98,1.0081820976863678
137,5412.12,0.9945772891113626
138,5445.32,0.9876544808829324
139,5478.41,0.9950876720191145
140,5511.57,1.0027128635596345
141,5542.41,1.0128930416992492
142,5573.42,1.0231832208208271
143,5606.03,1.0284234091844082
144,5639.22,1.0323036008982154
145,5672.36,1.0334737923232102
146,5705.49,1.0322039836904424
147,5738.71,1.0316341755775373
148,5754.399369999999,1.0322887804294123
149,5771.79,1.033014522052515
150,5805.06,1.0344550115174505
151,5838.1,1.0669254975986486
152,5871.32,1.100435986327989
153,5904.41,1.081386473144782
154,5937.59,1.0447269612856465
155,5970.75,1.0253274491322726
156,6003.87,1.023797936390423
157,6037.09,1.0281884251197633
158,6070.17,1.0545789117894375
159,6103.43,1.0816394011072539
160,6136.48,1.0778498873355713
161,6169.69,1.0725303759177924
162,6202.8,1.0480708630288238
163,6235.96,1.0158713508754502
164,6269.13,1.0074418388691952
165,6302.25,1.0300623261273456
166,6335.48,1.048442815003805
167,6368.54,1.0431333013792412
168,6401.79,1.0378637905499386
169,6434.86,1.0360742770724938
170,6468.05,1.034664765360477
171,6501.18,1.3362752527657462
172,6534.33,1.9926157404652536
173,6567.51,2.185956228606118
174,6600.62,1.4509667157171493
175,6606.93448,1.367863843270585
176,6633.85,1.013636810893872
177,6666.92,1.0418868136936423
178,6700.16,1.0709068165078053
179,6733.24,1.0356068193084222
180,6766.43,0.9911248221183523
181,6799.56,0.9729328249232024
182,6832.71,0.9718898277297459
183,6865.89,0.975070830538829
184,6899.0,0.986912833341986
185,6932.24,0.998478836156149
186,6965.3,1.004376838955073
187,6998.53,1.0103168417683892
188,7031.62,1.007836844569853
189,7064.8,1.003326847378936
190,7097.94,0.9907378501846328
191,7131.08,0.9716328529903296
192,7164.28,0.9570668558011061
193,7197.38,0.9532978586034164
194,7230.62,0.9498178614175794
195,7263.68,0.9605838642165031
196,7296.89,0.9714718670281263
197,7330.0,0.9931368698312831
198,7363.17,1.0188068726395199
199,7396.32,1.0244468754460632
200,7429.46,1.00925687825176
201,7462.66,1.0041368810625364
202,7495.76,1.0321368838648468
203,7529.0,1.0609168866790097
204,7562.06,1.0143668894779334
205,7585.77575,0.9810076889255147
206,7595.26,0.9676669482582435
207,7628.38,0.9467611465137532
208,7661.54,0.936040345008702
209,7694.7,0.9396815435036507
210,7727.83,0.9614577418190202
211,7761.04,0.9807719406132678
212,7794.13,0.9870891386891983
213,7827.36,0.9934453376031652
214,7860.44,0.982918535619236
215,7893.63,0.971075734293764
216,7926.76,0.9675799326091336
217,7959.91,0.9683621310442225
218,7993.08,0.9721873295990311
219,8026.21,0.9807025279144006
220,8059.42,0.9874997267086482
221,8092.5,0.9827569247247189
222,8125.73,0.978037123638686
223,8158.81,0.9660913216547566
224,8192.0,0.9532425203292847
225,8225.13,0.9471107186446541
226,8258.29,0.9452109171396029
227,8291.47,0.9462471157542712
228,8324.58,0.9528283139499212
229,8357.8,0.9588695128040285
230,8390.88,0.9586087108200992
231,8424.1,0.9583479096742066
232,8457.19,0.933437107750137
233,8490.38,0.904075306424665
234,8523.52,0.9080655047998943
235,8556.66,0.9384657031751236
236,8589.84,0.9574709017897918
237,8622.95,0.9476770999854418
238,8656.18,0.9398282988994089
239,8689.26,0.9826594969154796
240,8709.6359,1.0101428487737056
241,8722.47,1.0274538389051486
242,8755.57,1.0049444063514825
243,8788.74,0.9639169749978542
244,8821.9,0.954252543472792
245,8855.03,0.9736511114334278
246,8888.23,0.9896716805941012
247,8921.33,0.9944692480404352
248,8954.56,0.9992898177154105
249,8987.64,0.9885803848188766
250,9020.83,0.9777839538081161
251,9053.95,0.983201521597318
252,9087.12,0.9948770902436896
253,9120.27,0.9888636585471933
254,9153.41,0.9626672266792632
255,9186.6,0.9437567956685026
256,9219.71,0.9515173632862706
257,9252.92,0.9593419326183779
258,9286.01,0.9734924998932779
259,9319.2,0.9882770688825174
260,9337.46,0.9536273819208879
261,9348.51,0.8980365713553891
262,9359.56,0.8745897607898903
263,9370.61,0.8933559502243916
264,9381.67,0.9133951398303267
265,9392.71,0.9389033290933941
266,9403.77,0.9651225186993293
267,9414.81,0.9178647079623965
268,9425.87,0.8644278975683317
269,9436.91,0.856232086831399
270,9447.96,0.8740022762659003
271,9459.02,0.8890784658718355
272,9470.06,0.8989946551349027
273,9481.12,0.908417844740838
274,9492.16,0.9125440340039052
275,9503.22,0.9166892236098404
276,9507.97,0.9244103050409609
277,9511.51,0.9328873657285748
278,9514.53,0.931985417501624
279,9517.18,0.9242304629316176
280,9519.84,0.9191205085330449
281,9522.49,0.9196425539630385
282,9525.14,0.9204265993930321
283,9527.79,0.9258836448230254
284,9530.44,0.931374690253019
285,9533.1,0.9305487358544464
286,9535.75,0.9280537812844399
287,9538.4,0.9227818267144335
288,9541.05,0.915048872144427
289,9543.82,0.9085379196316278
290,9546.92,0.9051769727761485
291,9550.01,0.9018330257492353
292,9552.22,0.8988510636361354
293,9554.43,0.8958721015230358
294,9561.55,0.9003492235839994
295,9570.39,0.9074703751316004
296,9580.29,0.9096995448511987
297,9591.34,0.9065677342857001
298,9602.39,0.9050639237202013
299,9613.44,0.9094161131547026
300,9624.5,0.9137873027606378
301,9635.54,0.908485492023705
302,9646.6,0.9027596816296402
303,9657.65,0.9066948710641415
304,9668.7,0.9149690604986427
305,9679.75,0.919493249933144
306,9690.8,0.9189724393676452
307,9701.86,0.9174736289735803
308,9712.9,0.9111578182366477
309,9723.96,0.9048830078425829
310,9735.0,0.8980891971056502
311,9746.06,0.8912833867115854
312,9757.11,0.8883425761460866
313,9768.16,0.8875237655805878
314,9779.21,0.890672955015089
315,9790.25,0.9003321442781564
316,9801.31,0.9087093338840916
317,9812.35,0.9068445231471588
318,9823.41,0.9049837127530941
319,9834.46,0.9058649021875953
320,9845.52,0.9072070917935304
321,9856.56,0.9082832810565978
322,9867.61,0.909177470491099
323,9878.67,0.9088326600970341
324,9889.71,0.9059988493601014
325,9900.77,0.9033920389660367
326,9911.81,0.9036902282291039
327,9922.87,0.9039884178350391
328,9933.92,0.9049476072695404
329,9944.97,0.9060647967040417
330,9956.02,0.9053729861385429
331,9967.07,0.903175175573044
332,9978.12,0.9022433650075453
333,9989.17,0.9045145544420465
334,10000.0,0.9067190329427165
335,10000.2,0.9067597435427485
336,10011.3,0.9075419343377229
337,10022.3,0.9083251234138238
338,10026.7,0.9076661990442642
339,10028.9,0.9065472368594842
340,10031.5,0.904497281550199
341,10034.6,0.9015163348352819
342,10037.7,0.8982563881203649
343,10040.8,0.8940864414054479
344,10043.9,0.8899204946905308
345,10046.6,0.8859495411001193
346,10049.2,0.8820135857908339
347,10051.9,0.8819756322004223
348,10054.5,0.8835406768911371
349,10057.2,0.8840277233007255
350,10059.8,0.8831697679914402
351,10062.6,0.8830078161199023
352,10065.7,0.8859078694049852
353,10068.8,0.8888159226900683
354,10071.4,0.8907269673807829
355,10074.1,0.8925570137903713
356,10080.8,0.8956251289549054
357,10089.7,0.8993522819346598
358,10099.4,0.9012334486654032
359,10110.4,0.900300637741504
360,10121.5,0.8988198285364786
361,10132.5,0.8938500176125793
362,10143.6,0.8889122084075538
363,10154.6,0.8900093974836546
364,10165.7,0.8919865882786291
365,10176.7,0.8910667773547299
366,10187.8,0.8883069681497044
367,10198.8,0.8864151572258052
368,10209.9,0.8861173480207797
369,10221.0,0.8861505388157542
370,10232.0,0.889682727891855
371,10243.1,0.8932279186868295
372,10254.1,0.8903701077629304
373,10265.2,0.8861652985579047
374,10276.2,0.8816144876340056
375,10287.3,0.8768066784289801
376,10298.3,0.8742038675050808
377,10309.3,0.8766970565811818
378,10320.4,0.8791412473761563
379,10331.5,0.8801464381711306
380,10342.5,0.8811536272472315
381,10353.6,0.8813508180422059
382,10364.6,0.8813140071183068
383,10375.7,0.8808171979132813
384,10386.7,0.879886386989382
385,10397.8,0.8791805777843565
386,10408.8,0.8791427668604574
387,10419.9,0.8791049576554318
388,10430.9,0.8798781467315326
389,10442.0,0.8806613375265071
390,10453.0,0.8795205266026079
391,10464.1,0.8776587173975824
392,10475.1,0.8758309064736833
393,10486.2,0.8740420972686578
394,10497.1,0.872421284625885
395,10507.7,0.8714514668264911
396,10518.4,0.8704846507459711
397,10529.8,0.8678998466975665
398,10541.3,0.8652220443680355
399,10552.5,0.8626372368818837
400,10563.5,0.8601054259579844
401,10574.8,0.8583956201907063
402,10586.2,0.8578368161423017
403,10597.6,0.8575900120938971
404,10608.2,0.8590791942945033
405,10618.8,0.8605703764951095
406,10629.8,0.8588745655712103
407,10640.9,0.8567897563661848
408,10651.9,0.8556879454422857
409,10663.0,0.8551671362372602
410,10674.0,0.855326325313361
411,10685.1,0.8566665161083353
412,10696.2,0.8580957069033098
413,10707.2,0.8602508959794107
414,10718.2,0.8624150850555116
415,10729.3,0.862289275850486
416,10740.3,0.8617304649265869
417,10751.4,0.8591766557215613
418,10762.4,0.8551908447976622
419,10773.6,0.8517060373115103
420,10785.1,0.8492852349819794
421,10796.6,0.8472224326524483
422,10807.2,0.8513086148530546
423,10817.8,0.8554147970536609
424,10828.8,0.8537559861297617
425,10839.8,0.8505921752058625
426,10850.9,0.846928366000837
427,10861.9,0.8428265550769378
428,10873.0,0.8405037458719122
429,10884.0,0.8429979349480131
430,10895.0,0.8454811240241139
431,10903.9,0.8448842770038683
432,10912.7,0.8442884282647488
433,10916.6,0.843206495300821
434,10918.9,0.8419615348349148
435,10921.5,0.8406305795256296
436,10924.6,0.8392126328107125
437,10927.8,0.837852687814669
438,10931.3,0.8366887479752466
439,10934.8,0.8355228081358242
440,10937.1,0.835064847669918
441,10939.3,0.8346398854851382
442,10942.4,0.8342629387702211
443,10946.0,0.8339050006496723
444,10949.1,0.8336330539347552
445,10951.8,0.8334721003443436
446,10954.4,0.8332681450350584
447,10957.1,0.8328421914446468
448,10959.8,0.8324162378542352
449,10962.8,0.8309542894204445
450,10965.9,0.8293863427055274
451,10973.5,0.8270164733399243
452,10983.7,0.8242086486650361
453,10994.2,0.8244548291467687
454,11005.3,0.8296300199417431
455,11016.3,0.832907209017844
456,11027.4,0.8221803998128184
457,11038.4,0.8115895888889192
458,11049.5,0.8089447796838937
459,11060.5,0.8075969687599945
460,11071.6,0.8073351595549689
461,11082.6,0.8078093486310699
462,11093.7,0.8091105394260444
463,11104.7,0.8120677285021451
464,11115.8,0.8149389192971196
465,11126.8,0.8165281083732205
466,11137.9,0.8181212991681949
467,11149.3,0.8133474951197903
468,11160.8,0.8071196927902594
469,11171.8,0.8042548818663602
470,11182.4,0.8041430640669665
471,11193.1,0.8043632479864464
472,11204.2,0.8054174387814208
473,11215.2,0.8065006278575216
474,11225.8,0.8088528100581279
475,11236.5,0.8112119939776078
476,11247.7,0.8081981864914559
477,11259.2,0.8035153841619249
478,11270.5,0.8002205783946467
479,11281.5,0.7983137674707476
480,11292.6,0.797606958265722
481,11303.7,0.8007891490606965
482,11314.7,0.8039793381367973
483,11325.8,0.8025805289317718
484,11336.8,0.8010567180078726
485,11347.9,0.7980379088028471
486,11358.9,0.7944290978789479
487,11370.0,0.7897462886739223
488,11381.0,0.7837674777500232
489,11392.1,0.7796926685449976
490,11403.1,0.7837238576210984
491,11414.2,0.7877700484160729
492,11425.2,0.7906452374921739
493,11436.3,0.7934334282871482
494,11447.3,0.792214617363249
495,11458.4,0.7889608081582236
496,11469.2,0.787295993796577
497,11479.8,0.7879921759971833
498,11481.5362,0.788039629821749
499,11490.6,0.7882875051353684
500,11502.1,0.7860578848760577
501,11513.6,0.7838382646167469
502,11524.7,0.7830156311490644
503,11535.7,0.782389994379289
504,11547.0,0.7825593675157924
505,11558.5,0.7832307472564817
506,11569.7,0.7822261170908921
507,11580.3,0.7781434671127448
508,11591.0,0.7739888204366905
509,11602.0,0.768946183666915
510,11613.1,0.7639375501992326
511,11624.1,0.7662619134294572
512,11635.2,0.7701462799617746
513,11646.2,0.7718556431919992
514,11657.3,0.7718790097243167
515,11668.3,0.7714473729545411
516,11679.4,0.7699677394868586
517,11690.4,0.7685821027170832
518,11701.5,0.7694124692494007
519,11712.5,0.7702438324796252
520,11723.6,0.7690151990119427
521,11734.6,0.7671955622421672
522,11745.7,0.7634929287744847
523,11756.7,0.7580392920047093
524,11767.8,0.7540776585370268
525,11778.8,0.7544360217672513
526,11789.9,0.7547943882995688
527,11800.9,0.7586297515297934
528,11812.0,0.7625201180621108
529,11823.4,0.7634184945007072
530,11834.9,0.7631958742413966
531,11845.9,0.761816237471621
532,11856.6,0.7591215907955667
533,11867.3,0.7567449441195124
534,11878.3,0.755578307349737
535,11889.4,0.7544146738820544
536,11900.4,0.754557037112279
537,11911.5,0.7547804036445964
538,11922.5,0.752788766874821
539,11933.6,0.7497601334071384
540,11944.8,0.7448205032415489
541,11956.3,0.7372428829822383
542,11967.6,0.7312332561187416
543,11977.7,0.7333835896301295
544,11987.9,0.7355409264436106
545,11999.2,0.7394022995801139
546,12010.7,0.7434906793208033
547,12022.0,0.7445880524573066
548,12033.0,0.7439184156875311
549,12044.1,0.7429647822198486
550,12055.1,0.7415261454500731
551,12066.1,0.7401745086802977
552,12076.7,0.7395498587021504
553,12087.3,0.7389252087240031
554,12098.7,0.7389025851625995
555,12110.2,0.7389929649032888
556,12121.4,0.7386253347376993
557,12132.5,0.7379287012700168
558,12143.5,0.7368380645002413
559,12154.6,0.7349084310325588
560,12165.6,0.7330297942627834
561,12176.7,0.7319751607951008
562,12187.7,0.7309225240253254
563,12198.8,0.7296188905576428
564,12209.8,0.7282522537878673
565,12220.9,0.7276966203201848
566,12231.9,0.7278539835504094
567,12243.0,0.7279623500827269
568,12254.0,0.7279397133129515
569,12265.1,0.727906079845269
570,12276.6,0.7262194595859582
571,12288.1,0.7245368393266475
572,12298.9,0.7229561959526861
573,12309.5,0.7214105459745388
574,12320.3,0.7202869026005775
575,12331.4,0.719612269132895
576,12342.4,0.7190186323631196
577,12353.5,0.7187059988954371
578,12364.5,0.7183933621256615
579,12375.6,0.7176477286579791
580,12386.6,0.7168850918882036
581,12397.7,0.7129144584205211
582,12408.8,0.7075758249528387
583,12419.8,0.7038751881830632
584,12430.8,0.7022625514132876
585,12441.9,0.7012349179456051
586,12452.9,0.7030252811758297
587,12464.0,0.7048196477081472
588,12475.0,0.7025090109383717
589,12486.1,0.6998023774706893
590,12497.1,0.6987147407009138
591,12508.2,0.6985101072332313
592,12519.2,0.6981694704634558
593,12530.3,0.6976108369957733
594,12541.4,0.6965992035280908
595,12552.4,0.6923465667583153
596,12563.5,0.6881179332906329
597,12574.5,0.6840052965208574
598,12585.5,0.6799276597510818
599,12596.9,0.6797520361896783
600,12608.4,0.6821944159303674
601,12619.6,0.685298785764778
602,12630.2,0.6897131357866307
603,12640.8,0.6937604858084835
604,12651.9,0.692840852340801
605,12662.9,0.6919212155710255
606,12674.0,0.6875025821033429
607,12685.0,0.6823049453335674
608,12696.3,0.6800843184700709
609,12707.8,0.6802856982107601
610,12719.0,0.6812390680451706
611,12729.6,0.6840634180670233
612,12740.3,0.6866987713909691
613,12751.3,0.6813771346211935
614,12762.4,0.676102501153511
615,12772.7,0.674713841269085
616,12782.9,0.6745311780825659
617,12789.5,0.6749213960207007
618,12792.6,0.6758864983855821
619,12795.7,0.6768186007504635
620,12798.8,0.677648703115345
621,12801.9,0.6784838054802265
622,12805.4,0.6784599210534797
623,12809.0,0.678415039928826
624,12812.5,0.6775851555020792
625,12816.1,0.6764422743774254
626,12819.4,0.6750463833464927
627,12822.5,0.6733394857113743
628,12825.7,0.6716135913783488
629,12829.2,0.6697977069516019
630,12832.8,0.6679798258269481
631,12835.9,0.6667899281918296
632,12839.0,0.6656480305567111
633,12842.6,0.6650081494320573
634,12846.6,0.6646242815157752
635,12851.0,0.6651584268078651
636,12855.8,0.6670675853083267
637,12861.5,0.6692237735276249
638,12872.6,0.6729141400599423
639,12883.6,0.6766235032901669
640,12894.7,0.6732298698224845
641,12905.7,0.668858233052709
642,12916.8,0.6660825995850265
643,12927.8,0.664290962815251
644,12938.9,0.6636153293475684
645,12949.9,0.664982692577793
646,12961.0,0.6662910591101104
