,lambda (Angstroms),Total Flux (erg/s/cm^2/Angstrom)
0,1235.0,0.46227028061843245
1,1258.92541,0.45161557725276696
2,1267.61,0.44775098167425914
3,1301.08,0.4336957272049261
4,1334.0,0.37327146048456633
5,1367.24,0.3080552008920767
6,1400.44,0.30088294040860336
7,1433.47,0.3538956761384489
8,1445.43977,0.3661084012787586
9,1466.91,0.38801434414269537
10,1499.75,0.3282759580811839
11,1533.33,0.2777375858538528
12,1566.09,0.27983219829675426
13,1599.47,0.28449582233045545
14,1632.47,0.31933943926011815
15,1659.58691,0.3647025577465876
16,1665.66,0.37486277533439205
17,1698.89,0.415321312056941
18,1731.91,0.4257078201092602
19,1765.34,0.43100638413679
20,1798.2,0.40981487034512465
21,1831.68,0.38966744119889957
22,1864.54,0.4296429274072342
23,1897.85,0.48141547505177545
24,1905.46072,0.4617483509491152
25,1930.91,0.3959760354863483
26,1964.07,0.27364019991925526
27,1997.32,0.22730834851377157
28,2030.33,0.2558005393439966
29,2063.75,0.2747626580215525
30,2096.63,0.20626987172945307
31,2130.04,0.15485399216683018
32,2162.97,0.19754719707562476
33,2187.7616199999998,0.25615347376744524
34,2196.23,0.2761750223856407
35,2229.34,0.28076666802416717
36,2262.47,0.22886631646887828
37,2295.73,0.21461998315378902
38,2328.74,0.2680646147613928
39,2362.16,0.3323813038957799
40,2395.05,0.3715689186662764
41,2428.4,0.4153785979790176
42,2461.39,0.3933562267804368
43,2494.62,0.3577138892560707
44,2511.88643,0.35197664411436264
45,2527.75,0.3467024504502932
46,2560.87,0.3546536519228387
47,2594.14,0.35831684524987945
48,2627.15,0.3506150526957951
49,2660.56,0.3435092384203648
50,2693.46,0.36184545183965067
51,2726.77,0.3811596429945568
52,2759.8,0.3801548493544052
53,2793.0,0.37247904648268154
54,2826.16,0.37370724578309245
55,2859.26,0.3842084483417053
56,2884.0315,0.3889864842205824
57,2892.54,0.39062809371013846
58,2925.54,0.3826350570362285
59,2958.92,0.37480501994001286
60,2991.86,0.4200889833327827
61,3025.14,0.47295594634770016
62,3058.2,0.4880399096071104
63,3091.38,0.4856298727331609
64,3124.56,0.4655958358592114
65,3157.65,0.42603579908528166
66,3190.94,0.4018237620890858
67,3223.94,0.43459572541517577
68,3257.28,0.4700416883634134
69,3290.26,0.47847765171173007
70,3311.31121,0.48226684611687604
71,3323.51,0.4844623691613881
72,3356.6,0.47920366618551125
73,3389.76,0.4682499617225292
74,3422.96,0.4609582564097727
75,3456.03,0.458988553858783
76,3489.33,0.4572518464215905
77,3522.33,0.45700214535770606
78,3555.64,0.45675143770807
79,3588.65,0.46929873643174197
80,3621.88,0.4841890304816546
81,3654.99,0.49908332708089054
82,3688.14,0.5141206228303521
83,3721.35,0.534937917305152
84,3754.42,0.5672622147541624
85,3787.73,0.6007245071045262
86,3801.8939600000003,0.6118823497722509
87,3820.72,0.6267128895868417
88,3854.0,0.6538273298889694
89,3887.04,0.6363887742273799
90,3920.25,0.6100992157067568
91,3953.38,0.6394676585315613
92,3986.52,0.7192301011881873
93,4019.74,0.7807665424993857
94,4052.8,0.7791139865014394
95,4086.11,0.7777444262990316
96,4119.11,0.7843648713101561
97,4152.37,0.7910403119486406
98,4185.43,0.8049767559506943
99,4218.62,0.821340197766428
100,4251.78,0.8135416400866972
101,4284.9,0.7831260830796801
102,4318.13,0.7682975242227
103,4351.19,0.7986319682247536
104,4365.15832,0.8118544612044444
105,4384.5,0.8301639193646103
106,4417.5,0.8528592368074325
107,4450.74,0.8760195565589297
108,4483.82,0.8910538747713103
109,4517.0,0.9029531939456388
110,4550.16,0.9176135129275775
111,4583.27,0.9356218314285425
112,4616.52,0.9555321512762345
113,4649.57,0.9822944692000307
114,4682.86,1.009806789432502
115,4715.88,0.9856021070677136
116,4749.11,0.9585634267230161
117,4782.21,0.9514267451277861
118,4815.37,0.9537000641097251
119,4848.55,0.9460893832840536
120,4881.65,0.9246727016888237
121,4914.91,0.9201070216327105
122,4947.95,1.0143693394603117
123,4981.22,1.1182696595003936
124,5011.87234,1.0503618050467878
125,5014.27,1.0450499820589256
126,5047.47,0.9562353656020653
127,5080.59,0.9288727482210049
128,5113.74,0.9353171311865194
129,5146.94,0.937401514729659
130,5180.03,0.9317678970020233
131,5213.29,0.9277272812383134
132,5246.33,0.9378036629330524
133,5279.58,0.9479880470538172
134,5312.65,0.9737544290951315
135,5345.85,1.0033238126382713
136,5378.98,1.0082341953727356
137,5412.12,0.9946295782227251
138,5445.32,0.9877069617658648
139,5478.41,0.9951403440382292
140,5511.57,1.0027657271192687
141,5542.41,1.0129460833984985
142,5573.42,1.0232364416416542
143,5606.03,1.0284768183688162
144,5639.22,1.0323572017964309
145,5672.36,1.0335275846464205
146,5705.49,1.0322579673808847
147,5738.71,1.0316883511550745
148,5754.399369999999,1.0323430466327062
149,5771.79,1.03306904410503
150,5805.06,1.0345100230349007
151,5838.1,1.066980995197297
152,5871.32,1.1004919726559776
153,5904.41,1.0814429462895643
154,5937.59,1.044783922571293
155,5970.75,1.0253848982645455
156,6003.87,1.0238558727808462
157,6037.09,1.0282468502395268
158,6070.17,1.0546378235788751
159,6103.43,1.081698802214508
160,6136.48,1.0779097746711424
161,6169.69,1.072590751835585
162,6202.8,1.0481317260576477
163,6235.96,1.0159327017509001
164,6269.13,1.0075036777383906
165,6302.25,1.0301246522546912
166,6335.48,1.04850563000761
167,6368.54,1.0431966027584822
168,6401.79,1.0379275810998772
169,6434.86,1.0361385541449877
170,6468.05,1.034729530720954
171,6501.18,1.3363405055314925
172,6534.33,1.9926814809305073
173,6567.51,2.186022457212236
174,6600.62,1.4510334314342985
175,6606.93448,1.3679306518857366
176,6633.85,1.013703621787744
177,6666.92,1.0419536273872847
178,6700.16,1.0709736330156108
179,6733.24,1.0356736386168448
180,6766.43,0.9911916442367046
181,6799.56,0.9729996498464049
182,6832.71,0.9719566554594916
183,6865.89,0.9751376610776582
184,6899.0,0.986979666683972
185,6932.24,0.9985456723122978
186,6965.3,1.0044436779101455
187,6998.53,1.0103836835367783
188,7031.62,1.0079036891397057
189,7064.8,1.003393694757872
190,7097.94,0.9908047003692656
191,7131.08,0.9716997059806592
192,7164.28,0.9571337116022122
193,7197.38,0.9533647172068328
194,7230.62,0.9498847228351587
195,7263.68,0.9606507284330063
196,7296.89,0.9715387340562525
197,7330.0,0.9932037396625664
198,7363.17,1.0188737452790395
199,7396.32,1.0245137508921265
200,7429.46,1.00932375650352
201,7462.66,1.004203762125073
202,7495.76,1.0322037677296936
203,7529.0,1.0609837733580194
204,7562.06,1.014433778955867
205,7585.77575,0.9810745804112697
206,7595.26,0.9677338965164869
207,7628.38,0.9468282930275065
208,7661.54,0.936107690017404
209,7694.7,0.9397490870073014
210,7727.83,0.9615254836380405
211,7761.04,0.9808398812265355
212,7794.13,0.9871572773783965
213,7827.36,0.9935136752063306
214,7860.44,0.9829870712384721
215,7893.63,0.9711444685875281
216,7926.76,0.9676488652182672
217,7959.91,0.9684312620884451
218,7993.08,0.9722566591980623
219,8026.21,0.9807720558288012
220,8059.42,0.9875694534172963
221,8092.5,0.9828268494494378
222,8125.73,0.9781072472773719
223,8158.81,0.9661616433095134
224,8192.0,0.9533130406585694
225,8225.13,0.9471814372893084
226,8258.29,0.9452818342792059
227,8291.47,0.9463182315085424
228,8324.58,0.9528996278998424
229,8357.8,0.958941025608057
230,8390.88,0.9586804216401985
231,8424.1,0.9584198193484131
232,8457.19,0.933509215500274
233,8490.38,0.9041476128493301
234,8523.52,0.9081380095997886
235,8556.66,0.9385384063502472
236,8589.84,0.9575438035795837
237,8622.95,0.9477501999708837
238,8656.18,0.9399015977988178
239,8689.26,0.9827329938309591
240,8709.6359,1.0102164676588241
241,8722.47,1.027527677810297
242,8755.57,1.0050188127029651
243,8788.74,0.9639919499957085
244,8821.9,0.9543280869455839
245,8855.03,0.9737272228668555
246,8888.23,0.9897483611882023
247,8921.33,0.9945464960808704
248,8954.56,0.9993676354308209
249,8987.64,0.9886587696377532
250,9020.83,0.9778629076162322
251,9053.95,0.983281043194636
252,9087.12,0.9949571804873792
253,9120.27,0.9889443170943866
254,9153.41,0.9627484533585262
255,9186.6,0.9438385913370052
256,9219.71,0.9515997265725411
257,9252.92,0.9594248652367557
258,9286.01,0.973575999786556
259,9319.2,0.9883611377650349
260,9337.46,0.9537117638417757
261,9348.51,0.8981211427107781
262,9359.56,0.8746745215797807
263,9370.61,0.8934409004487832
264,9381.67,0.9134802796606535
265,9392.71,0.9389886581867881
266,9403.77,0.9652080373986585
267,9414.81,0.9179504159247931
268,9425.87,0.8645137951366635
269,9436.91,0.8563181736627979
270,9447.96,0.8740885525318005
271,9459.02,0.8891649317436708
272,9470.06,0.8990813102698055
273,9481.12,0.9085046894816758
274,9492.16,0.9126310680078105
275,9503.22,0.9167764472196809
276,9507.97,0.9244976100819217
277,9511.51,0.9329747314571496
278,9514.53,0.9320728350032481
279,9517.18,0.9243179258632351
280,9519.84,0.91920801706609
281,9522.49,0.919730107926077
282,9525.14,0.920514198786064
283,9527.79,0.925971289646051
284,9530.44,0.931462380506038
285,9533.1,0.930636471708893
286,9535.75,0.9281415625688799
287,9538.4,0.9228696534288671
288,9541.05,0.915136744288854
289,9543.82,0.9086258392632556
290,9546.92,0.905264945552297
291,9550.01,0.9019210514984706
292,9552.22,0.898939127272271
293,9554.43,0.8959602030460715
294,9561.55,0.9004374471679989
295,9570.39,0.9075587502632009
296,9580.29,0.9097880897023977
297,9591.34,0.9066564685714001
298,9602.39,0.9051528474404026
299,9613.44,0.9095052263094051
300,9624.5,0.9138766055212755
301,9635.54,0.9085749840474101
302,9646.6,0.9028493632592804
303,9657.65,0.906784742128283
304,9668.7,0.9150591209972854
305,9679.75,0.9195834998662878
306,9690.8,0.9190628787352904
307,9701.86,0.9175642579471607
308,9712.9,0.9112486364732953
309,9723.96,0.9049740156851658
310,9735.0,0.8981803942113002
311,9746.06,0.8913747734231706
312,9757.11,0.8884341522921732
313,9768.16,0.8876155311611756
314,9779.21,0.8907649100301781
315,9790.25,0.9004242885563127
316,9801.31,0.908801667768183
317,9812.35,0.9069370462943177
318,9823.41,0.905076425506188
319,9834.46,0.9059578043751906
320,9845.52,0.9073001835870609
321,9856.56,0.9083765621131955
322,9867.61,0.909270940982198
323,9878.67,0.9089263201940683
324,9889.71,0.9060926987202029
325,9900.77,0.9034860779320734
326,9911.81,0.9037844564582078
327,9922.87,0.9040828356700783
328,9933.92,0.9050422145390807
329,9944.97,0.9061595934080833
330,9956.02,0.9054679722770858
331,9967.07,0.9032703511460882
332,9978.12,0.9023387300150907
333,9989.17,0.9046101088840931
334,10000.0,0.9068147730477176
335,10000.2,0.906855487085497
336,10011.3,0.9076378686754459
337,10022.3,0.9084212468276475
338,10026.7,0.9077623980885282
339,10028.9,0.9066434737189686
340,10031.5,0.9045935631003981
341,10034.6,0.901612669670564
342,10037.7,0.8983527762407298
343,10040.8,0.8941828828108958
344,10043.9,0.8900169893810617
345,10046.6,0.8860460822002385
346,10049.2,0.8821101715816679
347,10051.9,0.8820722644008447
348,10054.5,0.8836373537822743
349,10057.2,0.8841244466014511
350,10059.8,0.8832665359828805
351,10062.6,0.8831046322398045
352,10065.7,0.8860047388099704
353,10068.8,0.8889128453801364
354,10071.4,0.8908239347615658
355,10074.1,0.8926540275807426
356,10080.8,0.8957222579098109
357,10089.7,0.8994495638693195
358,10099.4,0.9013308973308065
359,10110.4,0.9003982754830081
360,10121.5,0.898917657072957
361,10132.5,0.8939480352251586
362,10143.6,0.8890104168151076
363,10154.6,0.8901077949673093
364,10165.7,0.8920851765572583
365,10176.7,0.8911655547094599
366,10187.8,0.8884059362994088
367,10198.8,0.8865143144516104
368,10209.9,0.8862166960415594
369,10221.0,0.8862500776315084
370,10232.0,0.88978245578371
371,10243.1,0.893327837373659
372,10254.1,0.8904702155258606
373,10265.2,0.8862655971158095
374,10276.2,0.8817149752680112
375,10287.3,0.8769073568579601
376,10298.3,0.8743047350101617
377,10309.3,0.8767981131623634
378,10320.4,0.8792424947523124
379,10331.5,0.8802478763422613
380,10342.5,0.881255254494463
381,10353.6,0.8814526360844118
382,10364.6,0.8814160142366135
383,10375.7,0.8809193958265625
384,10386.7,0.8799887739787642
385,10397.8,0.8792831555687132
386,10408.8,0.8792455337209149
387,10419.9,0.8792079153108636
388,10430.9,0.8799812934630653
389,10442.0,0.8807646750530143
390,10453.0,0.879624053205216
391,10464.1,0.8777624347951649
392,10475.1,0.8759348129473665
393,10486.2,0.8741461945373155
394,10497.1,0.8725255692517698
395,10507.7,0.8715559336529823
396,10518.4,0.8705893014919421
397,10529.8,0.868004693395133
398,10541.3,0.8653270887360711
399,10552.5,0.8627424737637672
400,10563.5,0.8602108519159689
401,10574.8,0.8585012403814124
402,10586.2,0.8579426322846032
403,10597.6,0.8576960241877941
404,10608.2,0.8591853885890065
405,10618.8,0.8606767529902191
406,10629.8,0.8589811311424207
407,10640.9,0.8568965127323697
408,10651.9,0.8557948908845714
409,10663.0,0.8552742724745203
410,10674.0,0.8554336506267218
411,10685.1,0.8567740322166708
412,10696.2,0.8582034138066198
413,10707.2,0.8603587919588215
414,10718.2,0.8625231701110231
415,10729.3,0.862397551700972
416,10740.3,0.8618389298531737
417,10751.4,0.8592853114431227
418,10762.4,0.8552996895953243
419,10773.6,0.8518150746230205
420,10785.1,0.8493944699639586
421,10796.6,0.8473318653048967
422,10807.2,0.8514182297061093
423,10817.8,0.8555245941073217
424,10828.8,0.8538659722595233
425,10839.8,0.8507023504117249
426,10850.9,0.8470387320016739
427,10861.9,0.8429371101538756
428,10873.0,0.8406144917438245
429,10884.0,0.8431088698960263
430,10895.0,0.8455922480482279
431,10903.9,0.8449955540077364
432,10912.7,0.8443998565294978
433,10916.6,0.843317990601642
434,10918.9,0.8420730696698296
435,10921.5,0.8407421590512592
436,10924.6,0.839324265621425
437,10927.8,0.8379643756293382
438,10931.3,0.8368004959504933
439,10934.8,0.8356346162716484
440,10937.1,0.835176695339836
441,10939.3,0.8347517709702764
442,10942.4,0.8343748775404423
443,10946.0,0.8340170012993446
444,10949.1,0.8337451078695105
445,10951.8,0.8335842006886873
446,10954.4,0.8333802900701168
447,10957.1,0.8329543828892935
448,10959.8,0.8325284757084703
449,10962.8,0.831066578840889
450,10965.9,0.8294986854110549
451,10973.5,0.8271289466798487
452,10983.7,0.8243212973300721
453,10994.2,0.8245676582935373
454,11005.3,0.8297430398834862
455,11016.3,0.8330204180356879
456,11027.4,0.8222937996256369
457,11038.4,0.8117031777778385
458,11049.5,0.8090585593677874
459,11060.5,0.807710937519989
460,11071.6,0.807449319109938
461,11082.6,0.8079236972621398
462,11093.7,0.8092250788520887
463,11104.7,0.8121824570042904
464,11115.8,0.8150538385942392
465,11126.8,0.8166432167464409
466,11137.9,0.8182365983363898
467,11149.3,0.8134629902395806
468,11160.8,0.8072353855805188
469,11171.8,0.8043707637327204
470,11182.4,0.804259128133933
471,11193.1,0.8044794959728927
472,11204.2,0.8055338775628417
473,11215.2,0.8066172557150433
474,11225.8,0.8089696201162557
475,11236.5,0.8113289879552156
476,11247.7,0.8083153729829118
477,11259.2,0.8036327683238498
478,11270.5,0.8003381567892934
479,11281.5,0.7984315349414951
480,11292.6,0.797724916531444
481,11303.7,0.8009072981213929
482,11314.7,0.8040976762735946
483,11325.8,0.8026990578635436
484,11336.8,0.8011754360157453
485,11347.9,0.7981568176056941
486,11358.9,0.7945481957578957
487,11370.0,0.7898655773478447
488,11381.0,0.7838869555000464
489,11392.1,0.7798123370899953
490,11403.1,0.7838437152421969
491,11414.2,0.7878900968321458
492,11425.2,0.7907654749843476
493,11436.3,0.7935538565742966
494,11447.3,0.7923352347264981
495,11458.4,0.789081616316447
496,11469.2,0.7874169875931541
497,11479.8,0.7881133519943666
498,11481.5362,0.7881608356620166
499,11490.6,0.7884090102707367
500,11502.1,0.7861797697521153
501,11513.6,0.7839605292334939
502,11524.7,0.7831382622981289
503,11535.7,0.782512988758578
504,11547.0,0.7826827350315848
505,11558.5,0.7833544945129634
506,11569.7,0.7823502341817842
507,11580.3,0.7782679342254897
508,11591.0,0.7741136408733811
509,11602.0,0.7690713673338301
510,11613.1,0.7640631003984651
511,11624.1,0.7663878268589143
512,11635.2,0.7702725599235493
513,11646.2,0.7719822863839982
514,11657.3,0.7720060194486332
515,11668.3,0.7715747459090824
516,11679.4,0.7700954789737173
517,11690.4,0.7687102054341663
518,11701.5,0.7695409384988013
519,11712.5,0.7703726649592505
520,11723.6,0.7691443980238853
521,11734.6,0.7673251244843345
522,11745.7,0.7636228575489695
523,11756.7,0.7581695840094186
524,11767.8,0.7542083170740536
525,11778.8,0.7545670435345027
526,11789.9,0.7549257765991376
527,11800.9,0.7587615030595867
528,11812.0,0.7626522361242216
529,11823.4,0.7635509890014144
530,11834.9,0.763328748482793
531,11845.9,0.761949474943242
532,11856.6,0.7592551815911334
533,11867.3,0.7568788882390248
534,11878.3,0.7557126146994738
535,11889.4,0.7545493477641088
536,11900.4,0.754692074224558
537,11911.5,0.7549158072891929
538,11922.5,0.752924533749642
539,11933.6,0.7498962668142769
540,11944.8,0.7449570064830978
541,11956.3,0.7373797659644764
542,11967.6,0.7313705122374832
543,11977.7,0.7335211792602592
544,11987.9,0.7356788528872211
545,11999.2,0.7395405991602279
546,12010.7,0.7436293586416064
547,12022.0,0.7447271049146132
548,12033.0,0.7440578313750622
549,12044.1,0.7431045644396972
550,12055.1,0.7416662909001464
551,12066.1,0.7403150173605954
552,12076.7,0.7396907174043009
553,12087.3,0.7390664174480064
554,12098.7,0.7390441703251991
555,12110.2,0.7391349298065777
556,12121.4,0.7387676694753985
557,12132.5,0.7380714025400336
558,12143.5,0.7369811290004825
559,12154.6,0.7350518620651175
560,12165.6,0.7331735885255667
561,12176.7,0.7321193215902017
562,12187.7,0.7310670480506507
563,12198.8,0.7297637811152856
564,12209.8,0.7283975075757347
565,12220.9,0.7278422406403697
566,12231.9,0.7279999671008188
567,12243.0,0.7281087001654538
568,12254.0,0.728086426625903
569,12265.1,0.7280531596905379
570,12276.6,0.7263669191719165
571,12288.1,0.724684678653295
572,12298.9,0.7231043919053723
573,12309.5,0.7215590919490777
574,12320.3,0.720435805201155
575,12331.4,0.71976153826579
576,12342.4,0.7191682647262391
577,12353.5,0.7188559977908741
578,12364.5,0.7185437242513232
579,12375.6,0.7177984573159583
580,12386.6,0.7170361837764072
581,12397.7,0.7130659168410423
582,12408.8,0.7077276499056773
583,12419.8,0.7040273763661262
584,12430.8,0.7024151028265754
585,12441.9,0.7013878358912103
586,12452.9,0.7031785623516594
587,12464.0,0.7049732954162944
588,12475.0,0.7026630218767435
589,12486.1,0.6999567549413785
590,12497.1,0.6988694814018275
591,12508.2,0.6986652144664625
592,12519.2,0.6983249409269117
593,12530.3,0.6977666739915467
594,12541.4,0.6967554070561816
595,12552.4,0.6925031335166306
596,12563.5,0.6882748665812657
597,12574.5,0.6841625930417147
598,12585.5,0.6800853195021638
599,12596.9,0.6799100723793565
600,12608.4,0.682352831860735
601,12619.6,0.6854575715295559
602,12630.2,0.6898722715732614
603,12640.8,0.693919971616967
604,12651.9,0.6930007046816018
605,12662.9,0.6920814311420509
606,12674.0,0.6876631642066859
607,12685.0,0.6824658906671349
608,12696.3,0.6802456369401418
609,12707.8,0.6804473964215203
610,12719.0,0.6814011360903413
611,12729.6,0.6842258361340467
612,12740.3,0.6868615427819381
613,12751.3,0.6815402692423872
614,12762.4,0.6762660023070222
615,12772.7,0.6748776825381699
616,12782.9,0.6746953561651319
617,12789.5,0.6750857920414013
618,12792.6,0.6760509967711642
619,12795.7,0.6769832015009271
620,12798.8,0.67781340623069
621,12801.9,0.6786486109604529
622,12805.4,0.6786248421069595
623,12809.0,0.6785800798576519
624,12812.5,0.6777503110041585
625,12816.1,0.6766075487548509
626,12819.4,0.6752117666929855
627,12822.5,0.6735049714227486
628,12825.7,0.6717791827566973
629,12829.2,0.6699634139032038
630,12832.8,0.6681456516538963
631,12835.9,0.6669558563836592
632,12839.0,0.6658140611134221
633,12842.6,0.6651742988641146
634,12846.6,0.6647905630315506
635,12851.0,0.6653248536157302
636,12855.8,0.6672341706166534
637,12861.5,0.6693905470552498
638,12872.6,0.6730812801198848
639,12883.6,0.6767910065803338
640,12894.7,0.6733977396449689
641,12905.7,0.6690264661054179
642,12916.8,0.6662511991700529
643,12927.8,0.6644599256305019
644,12938.9,0.6637846586951369
645,12949.9,0.6651523851555861
646,12961.0,0.6664611182202209
