,lambda (Angstroms),Total Flux (erg/s/cm^2/Angstrom)
0,1005.0,1.5691142096530644
1,1015.0,1.5830016305553634
2,1025.0,0.8200910514576621
3,1035.0,1.082846472359961
4,1045.0,2.11456389326226
5,1055.0,2.046901314164559
6,1065.0,1.5129187350668576
7,1075.0,1.8511861559691567
8,1085.0,1.4150635768714555
9,1095.0,1.9834709977737546
10,1096.4782,1.9679332563315322
11,1105.0,1.8783537376417736
12,1115.0,1.760555665532878
13,1125.0,1.5080575934239824
14,1135.0,2.0625695213150865
15,1145.0,1.854761449206191
16,1155.0,1.9888533770972956
17,1165.0,2.0124053049884
18,1175.0,1.2440472328795043
19,1185.0,1.9314491607706088
20,1195.0,1.2971910886617133
21,1205.0,0.8683090165528174
22,1215.0,0.7517199444439218
23,1225.0,1.384756872335026
24,1235.0,2.09208880022613
25,1245.0,2.270270728117235
26,1255.0,2.1222726560083394
27,1258.92541,2.0046602783646397
28,1265.0,1.8226598361556288
29,1275.0,2.407380410319461
30,1285.0,2.5360409844832934
31,1295.0,1.8522615586471256
32,1305.0,1.8389721328109578
33,1315.0,2.43154270697479
34,1325.0,2.2938232811386223
35,1335.0,1.9597838553024547
36,1345.0,2.438794429466287
37,1355.0,2.3421450036301192
38,1365.0,2.0238155777939513
39,1375.0,2.136166151957784
40,1385.0,2.133146726121616
41,1395.0,1.7701173002854482
42,1405.0,1.8425978744492806
43,1415.0,1.9120684486131128
44,1425.0,1.9857590227769453
45,1435.0,1.9658295969407775
46,1442.0,2.0902599988554598
47,1445.43977,2.118101694734612
48,1447.0,2.1307302715405063
49,1455.0,2.0413406570523556
50,1465.0,1.8359611389421668
51,1475.0,1.846831620831978
52,1485.0,1.895162102721789
53,1495.0,1.9283825846116003
54,1505.0,1.7840130665014113
55,1512.0,1.5387734038242793
56,1517.0,1.6783036447691848
57,1525.0,1.6088440302810336
58,1535.0,1.344874512170845
59,1545.0,1.505554994060656
60,1555.0,1.4173554759504672
61,1565.0,1.4457459578402785
62,1575.0,1.5508564397300895
63,1585.0,1.6517269216199006
64,1595.0,1.670457403509712
65,1605.0,1.6462978853995232
66,1615.0,1.6511283672893342
67,1625.0,1.5375688491791455
68,1635.0,1.6583793310689565
69,1645.0,1.6801298129587676
70,1655.0,1.5321302948485789
71,1659.58691,1.6011222291970981
72,1665.0,1.682542420835244
73,1672.0,1.454824884240992
74,1677.0,1.6873766438165265
75,1685.0,1.7755694591373814
76,1695.0,1.64027297828845
77,1705.0,1.5611464974395186
78,1715.0,1.4451700165905872
79,1725.0,1.4312835357416558
80,1735.0,1.5381970548927246
81,1745.0,1.4916905740437931
82,1755.0,1.5998240931948617
83,1765.0,1.4409576123459304
84,1775.0,1.4566711314969991
85,1785.0,1.4856646506480675
86,1795.0,1.5998381697991362
87,1805.0,1.5841316889502048
88,1815.0,1.4156052081012735
89,1825.0,1.451858727252342
90,1835.0,1.3769522464034107
91,1845.0,1.2380257655544793
92,1855.0,1.2283692847055478
93,1865.0,1.2676328038566167
94,1875.0,1.3975063230076852
95,1885.0,1.2543498421587538
96,1895.0,1.1897233613098226
97,1905.0,1.2712768804608912
98,1905.46072,1.267881536195219
99,1915.0,1.1975727153632902
100,1925.0,1.1691781791384086
101,1935.0,1.207833642913527
102,1945.0,1.2525291066886453
103,1955.0,1.151644570463764
104,1967.0,1.2790991269939058
105,1976.0,1.3117150443915124
106,1984.0,1.221701415411607
107,1995.0,1.1733764255642374
108,2005.0,1.2138418893393557
109,2015.0,1.1516173531144742
110,2025.0,1.2114128168895923
111,2035.0,1.122618280664711
112,2045.0,1.1733537444398292
113,2055.0,1.1062992082149476
114,2065.0,1.099044671990066
115,2074.0,1.1878405893876727
116,2078.0,1.10930877489772
117,2085.0,1.1612555995403027
118,2095.0,1.0869510633154214
119,2105.0,1.0917765270905395
120,2115.0,1.103251990865658
121,2125.0,1.1171374546407764
122,2135.0,1.025922918415895
123,2145.0,1.051288382191013
124,2155.0,1.0977938459661316
125,2165.0,1.06033930974125
126,2175.0,1.0470447735163684
127,2185.0,1.0192602372914867
128,2187.7616199999998,1.0337712976585498
129,2195.0,1.071811602462116
130,2205.0,1.037985219160279
131,2215.0,0.9793988358584421
132,2225.0,0.9437644525566051
133,2235.0,1.0132360692547684
134,2245.0,0.9673286859529314
135,2255.0,0.9184053026510944
136,2265.0,0.9474029193492576
137,2275.0,0.9733805360474206
138,2285.0,1.0023741527455838
139,2295.0,0.9377487694437467
140,2305.0,0.9419803861419098
141,2315.0,0.890036002840073
142,2325.0,0.673186619538236
143,2335.0,0.8181622362363992
144,2345.0,0.7970238529345621
145,2355.0,0.8670974696327253
146,2365.0,0.7909910863308883
147,2375.0,0.8157607030290513
148,2385.0,0.7559633197272145
149,2395.0,0.8115389364253777
150,2405.0,0.7746955531235407
151,2415.0,0.7982571698217038
152,2425.0,0.8502087865198669
153,2435.0,0.8139704032180299
154,2445.0,0.867130019916193
155,2455.0,0.8538446366143561
156,2465.0,0.8472032533125192
157,2475.0,0.8133798700106822
158,2485.0,0.8357334867088453
159,2495.0,0.7723121034070084
160,2505.0,0.8750037201051715
161,2511.88643,0.7871319207040444
162,2513.0,0.7729220548462588
163,2518.0,0.8001033549675536
164,2525.0,0.7620473751373666
165,2535.0,0.7747309753799565
166,2545.0,0.7554005756225466
167,2555.0,0.8145951758651364
168,2565.0,0.7910367761077264
169,2575.0,0.8411713763503162
170,2585.0,0.8272769765929063
171,2595.0,0.8145895768354962
172,2605.0,0.7843861770780861
173,2615.0,0.7723037773206761
174,2625.0,0.809753377563266
175,2635.0,0.8345179778058559
176,2645.0,0.9051905780484458
177,2655.0,0.9221021782910359
178,2665.0,0.8284737785336258
179,2675.0,0.8719633787762157
180,2685.0,0.8653169790188056
181,2695.0,0.8242405792613956
182,2705.0,0.8465891795039855
183,2715.0,0.8037007797465754
184,2725.0,0.8043033799891655
185,2735.0,0.8447729802317554
186,2745.0,0.7263785804743452
187,2755.0,0.7420821807169352
188,2765.0,0.7692627809595252
189,2775.0,0.8079203812021151
190,2785.0,0.762614981444705
191,2795.0,0.613414581687295
192,2805.0,0.659320181929885
193,2815.0,0.7946257821724748
194,2825.0,0.8356993824150647
195,2835.0,0.7958309826576547
196,2845.0,0.7765005829002447
197,2855.0,0.7469001831428346
198,2865.0,0.8218007833854246
199,2875.0,0.8169673836280145
200,2884.0315,0.8120556928871095
201,2885.0,0.8115291166627105
202,2895.0,0.8006560880163597
203,2910.0,0.8683100450468334
204,2930.0,0.8338789877541318
205,2950.0,0.8181739304614302
206,2970.0,0.8314628731687285
207,2990.0,0.8302548158760267
208,3010.0,0.8375027585833251
209,3030.0,0.8332747012906234
210,3050.0,0.8290466439979217
211,3070.0,0.8284425867052201
212,3090.0,0.8302545294125184
213,3110.0,0.8230054721198168
214,3130.0,0.8103204148271151
215,3150.0,0.8115283575344134
216,3170.0,0.8073003002417118
217,3190.0,0.7674332429490102
218,3210.0,0.7915951856563084
219,3230.0,0.7565601283636068
220,3250.0,0.7921990710709051
221,3270.0,0.8115280137782035
222,3290.0,0.8030719564855018
223,3310.0,0.8006548991928001
224,3311.31121,0.800021318764662
225,3330.0,0.7909898720238002
226,3350.0,0.778303776808046
227,3370.0,0.7456836815922917
228,3390.0,0.7523275863765375
229,3410.0,0.7541384911607834
230,3430.0,0.7499093959450291
231,3450.0,0.7535323007292749
232,3470.0,0.7486982055135207
233,3490.0,0.7565501102977665
234,3510.0,0.7668180150820123
235,3530.0,0.7474869198662581
236,3550.0,0.7710438246505038
237,3570.0,0.7130547294347496
238,3590.0,0.7039926342189954
239,3610.0,0.7251335390032412
240,3630.0,0.729964443787487
241,3640.0,0.73237989617961
242,3650.0,0.7637903485717328
243,3670.0,0.7517082533559786
244,3690.0,0.6991551581402244
245,3710.0,0.7529140629244702
246,3730.0,0.716065967708716
247,3750.0,0.8398948724929617
248,3770.0,0.8918417772772075
249,3790.0,1.0041966820614534
250,3801.8939600000003,1.0595148386988362
251,3810.0,1.09721567933612
252,3830.0,0.8737168123216101
253,3850.0,1.1256039453071003
254,3870.0,1.2017130782925904
255,3890.0,0.8791512112780808
256,3910.0,1.2295013442635712
257,3930.0,0.9890854772490612
258,3950.0,1.1473496102345515
259,3970.0,0.7480687432200417
260,3990.0,1.242777876205532
261,4010.0,1.337017009191022
262,4030.0,1.3261361421765123
263,4050.0,1.3152652751620026
264,4070.0,1.264524408147493
265,4090.0,1.1745235411329829
266,4110.0,0.9975346741184733
267,4130.0,1.2464018071039635
268,4150.0,1.2844509400894537
269,4170.0,1.278410073074944
270,4190.0,1.2705592060604343
271,4210.0,1.2705583390459245
272,4230.0,1.2403574720314146
273,4250.0,1.2524366050169047
274,4270.0,1.205315738002395
275,4290.0,1.1926348709878853
276,4310.0,1.1074640039733756
277,4330.0,1.0615531369588658
278,4350.0,0.967321269944356
279,4365.15832,1.164637222176181
280,4370.0,1.2276617328733714
281,4390.0,1.1944422287887762
282,4410.0,1.2083327247041808
283,4430.0,1.2155832206195853
284,4450.0,1.2240437165349898
285,4470.0,1.2361242124503946
286,4490.0,1.235524708365799
287,4510.0,1.3061952042812035
288,4530.0,1.222235700196608
289,4550.0,1.2276661961120128
290,4570.0,1.2772066920274174
291,4590.0,1.2276671879428218
292,4610.0,1.2445876838582264
293,4630.0,1.210758179773631
294,4650.0,1.2210286756890356
295,4670.0,1.2361291716044402
296,4690.0,1.2089496675198448
297,4710.0,1.1684801634352495
298,4730.0,1.206530659350654
299,4750.0,1.2174011552660584
300,4770.0,1.208951651181463
301,4790.0,1.1992821470968678
302,4810.0,1.1799526430122722
303,4830.0,1.1769331389276767
304,4850.0,1.0337736348430813
305,4870.0,0.8960561307584859
306,4890.0,1.1231746266738905
307,4910.0,1.138885122589295
308,4930.0,1.1189556185046996
309,4950.0,1.1521761144201044
310,4970.0,1.1413066103355087
311,4990.0,1.0857271062509133
312,5010.0,1.039827602166318
313,5011.87234,1.0433897754424302
314,5030.0,1.077878188406145
315,5050.0,1.0657987839752527
316,5070.0,1.0966093795443603
317,5090.0,1.0579499751134682
318,5110.0,1.066400570682576
319,5130.0,1.0368011662516836
320,5150.0,1.0102317618207914
321,5170.0,0.9727783573898992
322,5190.0,0.9824439529590068
323,5210.0,1.0078135485281146
324,5230.0,1.0319741440972223
325,5250.0,1.05372473966633
326,5270.0,0.9721773352354378
327,5290.0,1.0494959308045455
328,5310.0,1.0724465263736531
329,5330.0,0.995133121942761
330,5350.0,1.0482877175118686
331,5370.0,1.0410383130809764
332,5390.0,1.0205089086500843
333,5410.0,1.0029895042191919
334,5430.0,1.0120500997882995
335,5450.0,1.0301706953574075
336,5470.0,1.007221290926515
337,5490.0,1.0048018864956227
338,5510.0,0.9957424820647306
339,5530.0,1.0090330776338383
340,5550.0,1.014473673202946
341,5570.0,0.9981602687720539
342,5590.0,0.9812478643411615
343,5610.0,0.9993694599102693
344,5630.0,0.9891010554793769
345,5650.0,0.9909136510484847
346,5670.0,0.9709812466175924
347,5690.0,0.9891028421867001
348,5710.0,0.964941437755808
349,5730.0,1.0138690333249156
350,5750.0,0.9800436288940233
351,5754.399369999999,0.9815054505829663
352,5770.0,0.986689943124407
353,5790.0,0.9570934600169176
354,5810.0,0.9794439769094283
355,5830.0,0.9951514938019389
356,5850.0,0.9709910106944495
357,5870.0,0.9655555275869601
358,5890.0,0.8954880444794707
359,5910.0,0.9504575613719812
360,5930.0,0.9516670782644919
361,5950.0,0.9474405951570025
362,5970.0,0.9558991120495131
363,5990.0,0.9389866289420237
364,6010.0,0.9269071458345343
365,6030.0,0.9414056627270448
366,6050.0,0.9498641796195555
367,6070.0,0.946241696512066
368,6090.0,0.9172492134045767
369,6110.0,0.9160417302970872
370,6130.0,0.8791972471895979
371,6150.0,0.8876547640821085
372,6170.0,0.8628902809746191
373,6190.0,0.8967187978671297
374,6210.0,0.8888673147596403
375,6230.0,0.8653108316521508
376,6250.0,0.8381303485446615
377,6270.0,0.8695428654371721
378,6290.0,0.8780003823296827
379,6310.0,0.8556528992221932
380,6330.0,0.8622984161147039
381,6350.0,0.8544479330072144
382,6370.0,0.8502204498997251
383,6390.0,0.8629069667922357
384,6410.0,0.8472034836847463
385,6430.0,0.8514330005772569
386,6450.0,0.8435825174697675
387,6470.0,0.842376034362278
388,6490.0,0.8236515512547887
389,6510.0,0.8411710681472993
390,6530.0,0.8315075850398099
391,6550.0,0.7868091019323205
392,6570.0,0.7058686188248311
393,6590.0,0.8109741357173417
394,6606.93448,0.8247854885466358
395,6610.0,0.827285421444612
396,6630.0,0.8224524301738081
397,6650.0,0.8212444389030042
398,6670.0,0.8049354476322004
399,6690.0,0.8139964563613966
400,6710.0,0.7898344650905927
401,6730.0,0.8031234738197889
402,6750.0,0.7904384825489849
403,6770.0,0.792250491278181
404,6790.0,0.7825855000073771
405,6810.0,0.7837935087365733
406,6830.0,0.7874175174657695
407,6850.0,0.7705045261949656
408,6870.0,0.7789615349241618
409,6890.0,0.7856055436533578
410,6910.0,0.780773552382554
411,6930.0,0.77352456111175
412,6950.0,0.7699005698409462
413,6970.0,0.7747325785701423
414,6990.0,0.7699005872993385
415,7010.0,0.7554035960285346
416,7030.0,0.7674846047577307
417,7050.0,0.7705046134869268
418,7070.0,0.7529876222161229
419,7090.0,0.7354696309453191
420,7110.0,0.7173486396745152
421,7130.0,0.7070796484037114
422,7150.0,0.7058716571329074
423,7170.0,0.7094956658621036
424,7190.0,0.6943946745912997
425,7210.0,0.7070796833204959
426,7230.0,0.714328692049692
427,7250.0,0.7167447007788882
428,7270.0,0.7173487095080842
429,7290.0,0.7052677182372803
430,7310.0,0.7185567269664764
431,7330.0,0.7197647356956726
432,7350.0,0.7227847444248687
433,7370.0,0.7354697531540649
434,7390.0,0.721576761883261
435,7410.0,0.718556770612457
436,7430.0,0.7288257793416533
437,7450.0,0.7300337880708494
438,7470.0,0.7348657968000455
439,7490.0,0.7318458055292416
440,7510.0,0.7384908142584378
441,7530.0,0.7469468229876338
442,7550.0,0.74996783171683
443,7570.0,0.7445308404460261
444,7585.77575,0.7364307884940071
445,7590.0,0.7342619776903742
446,7610.0,0.7252025948833297
447,7630.0,0.7131222120762853
448,7650.0,0.701645829269241
449,7670.0,0.6756724464621966
450,7690.0,0.6871500636551523
451,7710.0,0.6762776808481078
452,7730.0,0.6756742980410634
453,7750.0,0.670841915234019
454,7770.0,0.6738635324269747
455,7790.0,0.6817161496199303
456,7810.0,0.6786967668128859
457,7830.0,0.6720523840058416
458,7850.0,0.6623890011987972
459,7870.0,0.6708456183917528
460,7890.0,0.6581612355847085
461,7910.0,0.6460808527776641
462,7930.0,0.6472894699706198
463,7950.0,0.6406460871635754
464,7970.0,0.659371704356531
465,7990.0,0.6581643215494867
466,8010.0,0.6629979387424423
467,8030.0,0.6623945559353979
468,8050.0,0.6617911731283536
469,8070.0,0.6654157903213092
470,8090.0,0.6569594075142648
471,8110.0,0.6611890247072204
472,8130.0,0.6750826419001761
473,8150.0,0.6787072590931317
474,8170.0,0.6835398762860874
475,8190.0,0.6678354934790429
476,8210.0,0.6599831106719986
477,8230.0,0.6648167278649543
478,8250.0,0.6642133450579099
479,8270.0,0.6714619622508655
480,8290.0,0.6642145794438211
481,8310.0,0.6418651966367768
482,8330.0,0.6382418138297324
483,8350.0,0.6382424310226881
484,8370.0,0.6418670482156437
485,8390.0,0.6231426654085993
486,8410.0,0.638244282601555
487,8430.0,0.6110628997945106
488,8450.0,0.5972905169874662
489,8470.0,0.5966271341804218
490,8490.0,0.6020037513733775
491,8510.0,0.5706543685663331
492,8530.0,0.6006759857592887
493,8550.0,0.5374326029522444
494,8570.0,0.6213352201451999
495,8590.0,0.6034568373381556
496,8610.0,0.6074434545311113
497,8630.0,0.6328140717240669
498,8650.0,0.6249626889170224
499,8670.0,0.5451683061099781
500,8690.0,0.6159029233029337
501,8709.6359,0.6402186642298908
502,8710.0,0.640669561438963
503,8730.0,0.6400673290342048
504,8750.0,0.6080540966294466
505,8770.0,0.6400708642246886
506,8790.0,0.6533616318199305
507,8810.0,0.6418863994151724
508,8830.0,0.6455121670104143
509,8850.0,0.6352459346056561
510,8870.0,0.5979777022008981
511,8890.0,0.6334364697961399
512,8910.0,0.6449152373913818
513,8930.0,0.6322320049866237
514,8950.0,0.6346497725818655
515,8970.0,0.6352565401771075
516,8990.0,0.6316333077723494
517,9010.0,0.5895940753675912
518,9030.0,0.6189518429628331
519,9050.0,0.650968610558075
520,9070.0,0.6485543781533168
521,9090.0,0.6334541457485587
522,9110.0,0.6425169133438006
523,9130.0,0.6552036809390425
524,9150.0,0.6497694485342844
525,9170.0,0.6473542161295263
526,9190.0,0.6521889837247682
527,9210.0,0.6195717513200101
528,9230.0,0.5826065189152518
529,9250.0,0.6021792865104938
530,9270.0,0.6117250541057356
531,9290.0,0.6099148217009775
532,9310.0,0.6147485892962194
533,9330.0,0.6141463568914614
534,9350.0,0.6117321244867032
535,9370.0,0.6029748920819451
536,9390.0,0.611131659677187
537,9410.0,0.594521427272429
538,9430.0,0.6117391948676707
539,9450.0,0.6023779624629126
540,9470.0,0.6153667300581546
541,9490.0,0.6159724976533963
542,9510.0,0.6040142652486382
543,9530.0,0.5990630328438802
544,9550.0,0.5669898004391221
545,9570.0,0.594112568034364
546,9590.0,0.6117533356296058
547,9610.0,0.6043851032248476
548,9630.0,0.6057158708200896
549,9650.0,0.5979256384153314
550,9670.0,0.5961154060105733
551,9690.0,0.6057211736058152
552,9710.0,0.5988369412010571
553,9730.0,0.594187708796299
554,9750.0,0.5906254763915408
555,9770.0,0.5931642439867827
556,9790.0,0.5853130115820246
557,9810.0,0.5983627791772665
558,9830.0,0.5916595467725083
559,9850.0,0.5958293143677503
560,9870.0,0.5914820819629921
561,9890.0,0.590214849558234
562,9910.0,0.586834617153476
563,9930.0,0.5893123847487178
564,9950.0,0.5891931523439597
565,9970.0,0.5893769199392016
566,9990.0,0.5862376875344434
567,10000.0,0.5837015713320644
568,10030.0,0.5760932297376116
569,10070.0,0.564377774278341
570,10130.0,0.5785180910894353
571,10170.0,0.5719976356301648
572,10220.0,0.5726660663060767
573,10280.0,0.572732383117171
574,10320.0,0.5639169276579005
575,10380.0,0.5589692444689948
576,10430.0,0.5599996751449066
577,10480.0,0.5520911058208186
578,10520.0,0.548833650361548
579,10580.0,0.5397779671726423
580,10630.0,0.5357953978485541
581,10680.0,0.526436828524466
582,10720.0,0.5286153730651956
583,10780.0,0.5243316898762899
584,10820.0,0.5160602344170193
585,10870.0,0.5130446650929312
586,10920.0,0.501632095768843
587,10980.0,0.5016374125799373
588,11020.0,0.5039969571206668
589,11080.0,0.4981432739317611
590,11130.0,0.495549704607673
591,11170.0,0.4912042491484025
592,11220.0,0.49048367982431434
593,11280.0,0.48203299663540866
594,11330.0,0.4807084273113205
595,11380.0,0.4780548579872324
596,11430.0,0.47238128866314427
597,11470.0,0.47800183320387385
598,11481.5362,0.4775150664771429
599,11530.0,0.4754741056350066
600,11570.0,0.46907891497960086
601,11620.0,0.4617784266603437
602,11670.0,0.4604579383410865
603,11730.0,0.4631251523579779
604,11770.0,0.45280296170257217
605,11830.0,0.4489471757194636
606,11870.0,0.44128298506405783
607,11920.0,0.44811749674480067
608,11980.0,0.43296571076169205
609,12030.0,0.4407062224424349
610,12070.0,0.4356990317870292
611,12120.0,0.435526543467772
612,12180.0,0.4362617574846634
613,12230.0,0.4327662691654062
614,12270.0,0.42921007851000054
615,12320.0,0.42565459019074336
616,12370.0,0.42463610187148615
617,12430.0,0.4193913158883776
618,12480.0,0.41770782756912034
619,12530.0,0.4131263392498632
620,12580.0,0.411201850930606
621,12620.0,0.4089736602752003
622,12670.0,0.4044511719559431
623,12720.0,0.40421868363668595
624,12780.0,0.4026578976535774
625,12830.0,0.3820684093343202
626,12880.0,0.39464092101506304
627,12920.0,0.3905407303596573
628,12980.0,0.3944769443765487
629,13020.0,0.38850375372114293
630,13080.0,0.39008496773803436
631,13130.0,0.3819984794187772
632,13180.0,0.38067799109952
633,13182.5674,0.3806753472773028
634,13230.0,0.3806303522994096
635,13280.0,0.373998921863493
636,13320.0,0.3752769775147597
637,13380.0,0.37088206099165977
638,13430.0,0.3722236305557431
639,13470.0,0.36879068620700983
640,13520.0,0.3666292557710932
641,13570.0,0.36060082533517657
642,13630.0,0.35922690881207664
643,13670.0,0.3599009644633433
644,13730.0,0.3599770479402433
645,13770.0,0.35841610359151005
646,13820.0,0.3584286731555934
647,13880.0,0.35475975663249343
648,13930.0,0.34522832619657684
649,13970.0,0.3437883818478435
650,14020.0,0.3389079514119269
651,14080.0,0.34109803488882695
652,14120.0,0.33609409054009365
653,14180.0,0.3388271740169937
654,14230.0,0.3340677435810771
655,14280.0,0.32870431314516046
656,14330.0,0.33427488270924377
657,14380.0,0.3353134522733272
658,14420.0,0.32584050792459385
659,14480.0,0.3322585914014939
660,14520.0,0.3281606470527606
661,14570.0,0.33022721661684395
662,14620.0,0.3251057861809274
663,14670.0,0.3238493557450107
664,14720.0,0.3194529253090941
