,lambda (Angstroms),Total Flux (erg/s/cm^2/Angstrom)
0,1005.0,5.434600575283548
1,1015.0,5.400439358962745
2,1025.0,4.589480142641943
3,1035.0,4.80418692632114
4,1045.0,5.787855710000338
5,1055.0,5.672144493679536
6,1065.0,5.090113277358733
7,1075.0,5.38033206103793
8,1085.0,4.896160844717127
9,1095.0,5.416519628396325
10,1096.4782,5.393879337399784
11,1105.0,5.270780227167728
12,1115.0,5.113648221450561
13,1125.0,4.821816215733395
14,1135.0,5.336994210016227
15,1145.0,5.089852204299062
16,1155.0,5.184610198581894
17,1165.0,5.168828192864727
18,1175.0,4.36113618714756
19,1185.0,5.009204181430394
20,1195.0,4.335612175713226
21,1205.0,3.8673961699960597
22,1215.0,3.711473164278893
23,1225.0,4.305176158561726
24,1235.0,4.9731741528445585
25,1245.0,5.112022147127393
26,1255.0,4.924690141410226
27,1258.92541,4.791637582134001
28,1265.0,4.592599837494239
29,1275.0,5.149273576512405
30,1285.0,5.249887315530571
31,1295.0,4.538061054548737
32,1305.0,4.496724793566903
33,1315.0,5.0612485325850685
34,1325.0,4.895482271603235
35,1335.0,4.533396010621401
36,1345.0,4.984359749639568
37,1355.0,4.859663488657733
38,1365.0,4.5132872276758995
39,1375.0,4.5975909666940655
40,1385.0,4.566524705712231
41,1395.0,4.175448444730398
42,1405.0,4.219882183748564
43,1415.0,4.26130592276673
44,1425.0,4.306949661784897
45,1435.0,4.258973400803062
46,1442.0,4.363771018115778
47,1445.43977,4.381965247782029
48,1447.0,4.3915393462157475
49,1455.0,4.286488049169632
50,1465.0,4.061531427861988
51,1475.0,4.052824806554344
52,1485.0,4.0815781852467
53,1495.0,4.095221563939056
54,1505.0,3.9312749426314118
55,1512.0,3.672331307716061
56,1517.0,3.802072997062239
57,1525.0,3.7169517000161236
58,1535.0,3.4334050787084793
59,1545.0,3.5745084574008357
60,1555.0,3.4667318360931914
61,1565.0,3.475545214785547
62,1575.0,3.5610785934779035
63,1585.0,3.642371972170259
64,1595.0,3.641525350862615
65,1605.0,3.597788729554971
66,1615.0,3.5830421082473265
67,1625.0,3.449905486939683
68,1635.0,3.551138865632039
69,1645.0,3.5533122443243945
70,1655.0,3.3857356230167506
71,1659.58691,3.4457477163225256
72,1665.0,3.519744028533507
73,1672.0,3.2824262163129196
74,1677.0,3.508120636155358
75,1685.0,3.5853417079032592
76,1695.0,3.436330547588135
77,1705.0,3.343489387273011
78,1715.0,3.213798226957887
79,1725.0,3.1861970666427633
80,1735.0,3.2793959063276397
81,1745.0,3.2191747460125155
82,1755.0,3.3135935856973915
83,1765.0,3.141012425382267
84,1775.0,3.143011265067144
85,1785.0,3.1582901047520195
86,1795.0,3.2587489444368956
87,1805.0,3.2293277841217716
88,1815.0,3.0470866238066483
89,1825.0,3.069625463491524
90,1835.0,2.9810043031764
91,1845.0,2.828363142861276
92,1855.0,2.8049919825461522
93,1865.0,2.830540822231028
94,1875.0,2.946699661915904
95,1885.0,2.7898285016007804
96,1895.0,2.7114873412856566
97,1905.0,2.7793261809705325
98,1905.46072,2.775298973992494
99,1915.0,2.695409631500415
100,1925.0,2.656971861760896
101,1935.0,2.6855840920213776
102,1945.0,2.7202363222818584
103,1955.0,2.6093085525423403
104,1967.0,2.724711228854918
105,1976.0,2.748288236089351
106,1984.0,2.6502400202977356
107,1995.0,2.5908674735842654
108,2005.0,2.621289703844747
109,2015.0,2.5490219341052285
110,2025.0,2.598774164365709
111,2035.0,2.4999363946261908
112,2045.0,2.540628624886672
113,2055.0,2.4635308551471535
114,2065.0,2.4462330854076346
115,2074.0,2.525990092642068
116,2078.0,2.4434409847462604
117,2085.0,2.488357545928597
118,2095.0,2.4040097761890786
119,2105.0,2.39879200644956
120,2115.0,2.4002242367100415
121,2125.0,2.404066466970523
122,2135.0,2.3028086972310042
123,2145.0,2.3181309274914854
124,2155.0,2.354593157751967
125,2165.0,2.3070953880124483
126,2175.0,2.2837576182729293
127,2185.0,2.245929848533411
128,2187.7616199999998,2.2576673494466046
129,2195.0,2.2907845271818608
130,2205.0,2.2501567227494528
131,2215.0,2.1847689183170456
132,2225.0,2.1423331138846375
133,2235.0,2.2050033094522306
134,2245.0,2.1522945050198223
135,2255.0,2.096569700587415
136,2265.0,2.118765896155007
137,2275.0,2.137942091722599
138,2285.0,2.160134287290192
139,2295.0,2.0887074828577843
140,2305.0,2.0861376784253762
141,2315.0,2.027391873992969
142,2325.0,1.803741069560561
143,2335.0,1.9419152651281535
144,2345.0,1.9139754606957458
145,2355.0,1.977247656263338
146,2365.0,1.8943398518309302
147,2375.0,1.9123080473985228
148,2385.0,1.845709242966115
149,2395.0,1.8944834385337073
150,2405.0,1.8508386341013
151,2415.0,1.8675988296688921
152,2425.0,1.9127490252364843
153,2435.0,1.8697092208040769
154,2445.0,1.9160674163716689
155,2455.0,1.8959806119392613
156,2465.0,1.8825378075068535
157,2475.0,1.841913003074446
158,2485.0,1.8574651986420383
159,2495.0,1.7872423942096307
160,2505.0,1.8831325897772229
161,2511.88643,1.7905770393244762
162,2513.0,1.7758033127004405
163,2518.0,1.8004528421820347
164,2525.0,1.758852383456267
165,2535.0,1.766472442419456
166,2545.0,1.742078501382645
167,2555.0,1.796209560345834
168,2565.0,1.767587619309023
169,2575.0,1.812658678272212
170,2585.0,1.793700737235401
171,2595.0,1.77594979619859
172,2605.0,1.7406828551617788
173,2615.0,1.723536914124968
174,2625.0,1.755922973088157
175,2635.0,1.775624032051346
176,2645.0,1.841233091014535
177,2655.0,1.853081149977724
178,2665.0,1.7543892089409128
179,2675.0,1.7928152679041018
180,2685.0,1.7811053268672907
181,2695.0,1.7349653858304799
182,2705.0,1.7522504447936686
183,2715.0,1.7042985037568577
184,2725.0,1.6998375627200466
185,2735.0,1.7352436216832356
186,2745.0,1.6117856806464246
187,2755.0,1.6224257396096138
188,2765.0,1.6445427985728025
189,2775.0,1.6781368575359916
190,2785.0,1.6277679164991805
191,2795.0,1.4735039754623696
192,2805.0,1.5143460344255586
193,2815.0,1.6445880933887476
194,2825.0,1.6805981523519367
195,2835.0,1.6356662113151255
196,2845.0,1.6112722702783144
197,2855.0,1.5766083292415036
198,2865.0,1.6464453882046926
199,2875.0,1.6365484471678815
200,2884.0315,1.6270636191204855
201,2885.0,1.6261906069144834
202,2895.0,1.6117405418034618
203,2910.0,1.6740289441369303
204,2930.0,1.6324438139148878
205,2950.0,1.6095846836928454
206,2970.0,1.6157195534708029
207,2990.0,1.6073574232487604
208,3010.0,1.607451293026718
209,3030.0,1.5960691628046755
210,3050.0,1.5846870325826332
211,3070.0,1.5769289023605908
212,3090.0,1.5715867721385481
213,3110.0,1.557183641916506
214,3130.0,1.5373445116944637
215,3150.0,1.531398381472421
216,3170.0,1.5200162512503788
217,3190.0,1.4729951210283363
218,3210.0,1.490002990806294
219,3230.0,1.4478138605842514
220,3250.0,1.476298730362209
221,3270.0,1.4884736001401666
222,3290.0,1.472863469918124
223,3310.0,1.4632923396960817
224,3311.31121,1.4621897346696597
225,3330.0,1.4484241383717853
226,3350.0,1.4306717445278025
227,3370.0,1.3929853506838197
228,3390.0,1.3945629568398372
229,3410.0,1.3913075629958545
230,3430.0,1.3820121691518716
231,3450.0,1.3805687753078892
232,3470.0,1.3706683814639065
233,3490.0,1.3734539876199237
234,3510.0,1.378655593775941
235,3530.0,1.3542581999319583
236,3550.0,1.3727488060879756
237,3570.0,1.309693412243993
238,3590.0,1.2955650184000103
239,3610.0,1.3116396245560273
240,3630.0,1.311404230712045
241,3640.0,1.3112865337900534
242,3650.0,1.3401638368680622
243,3670.0,1.3230154430240795
244,3690.0,1.2653960491800968
245,3710.0,1.314088655336114
246,3730.0,1.2721742614921312
247,3750.0,1.3909368676481486
248,3770.0,1.437817473804166
249,3790.0,1.5451060799601832
250,3801.8939600000003,1.597411318935956
251,3810.0,1.6336543565072335
252,3830.0,1.4065586578313793
253,3850.0,1.6548489591555253
254,3870.0,1.7273612604796713
255,3890.0,1.4012025618038173
256,3910.0,1.7479558631279632
257,3930.0,1.503943164452109
258,3950.0,1.658610465776255
259,3970.0,1.255732767100401
260,3990.0,1.746845068424547
261,4010.0,1.8374873697486929
262,4030.0,1.8230096710728387
263,4050.0,1.8085419723969849
264,4070.0,1.7542042737211307
265,4090.0,1.6606065750452768
266,4110.0,1.4800208763694227
267,4130.0,1.7252911776935687
268,4150.0,1.7597434790177147
269,4170.0,1.7501057803418605
270,4190.0,1.7386580816660064
271,4210.0,1.7350603829901525
272,4230.0,1.7012626843142984
273,4250.0,1.7097449856384443
274,4270.0,1.6590272869625904
275,4290.0,1.6427495882867362
276,4310.0,1.5539818896108823
277,4330.0,1.504474190935028
278,4350.0,1.406645492259174
279,4365.15832,1.6012353482255597
280,4370.0,1.6636460830280322
281,4390.0,1.6278911949663126
282,4410.0,1.6392463069045933
283,4430.0,1.6439614188428737
284,4450.0,1.649886530781154
285,4470.0,1.6594316427194349
286,4490.0,1.6562967546577152
287,4510.0,1.7244318665959957
288,4530.0,1.6379369785342761
289,4550.0,1.6408320904725566
290,4570.0,1.6878372024108375
291,4590.0,1.6357623143491178
292,4610.0,1.6501474262873983
293,4630.0,1.6137825382256787
294,4650.0,1.6215176501639592
295,4670.0,1.6340827621022398
296,4690.0,1.6043678740405203
297,4710.0,1.561362985978801
298,4730.0,1.5968780979170814
299,4750.0,1.6052132098553618
300,4770.0,1.5942283217936424
301,4790.0,1.5820234337319228
302,4810.0,1.5601585456702032
303,4830.0,1.5546036576084836
304,4850.0,1.4089087695467644
305,4870.0,1.2686558814850448
306,4890.0,1.4932389934233252
307,4910.0,1.5064141053616058
308,4930.0,1.4839492172998865
309,4950.0,1.5146343292381668
310,4970.0,1.5012294411764473
311,4990.0,1.4431145531147278
312,5010.0,1.3946796650530084
313,5011.87234,1.3980044832873342
314,5030.0,1.430868284684243
315,5050.0,1.4169964684728937
316,5070.0,1.4460146522615445
317,5090.0,1.4055628360501953
318,5110.0,1.4122210198388463
319,5130.0,1.380829203627497
320,5150.0,1.3524673874161477
321,5170.0,1.3132215712047985
322,5190.0,1.321094754993449
323,5210.0,1.3446719387820998
324,5230.0,1.3670401225707507
325,5250.0,1.3869983063594016
326,5270.0,1.3036584901480521
327,5290.0,1.379184673936703
328,5310.0,1.4003428577253536
329,5330.0,1.3212370415140047
330,5350.0,1.3725992253026553
331,5370.0,1.363557409091306
332,5390.0,1.3412355928799569
333,5410.0,1.3219237766686076
334,5430.0,1.3291919604572582
335,5450.0,1.345520144245909
336,5470.0,1.32077832803456
337,5490.0,1.3165665118232106
338,5510.0,1.3057146956118615
339,5530.0,1.3172128794005122
340,5550.0,1.320861063189163
341,5570.0,1.3027552469778136
342,5590.0,1.2840504307664644
343,5610.0,1.3003796145551152
344,5630.0,1.288318798343766
345,5650.0,1.2883389821324167
346,5670.0,1.2666141659210677
347,5690.0,1.2829433497097182
348,5710.0,1.2569895334983692
349,5730.0,1.3041247172870198
350,5750.0,1.2685069010756707
351,5754.399369999999,1.2695744486338842
352,5770.0,1.2737662548606734
353,5790.0,1.2428971483852156
354,5810.0,1.263975041909758
355,5830.0,1.2784099354343001
356,5850.0,1.2529768289588423
357,5870.0,1.2462687224833844
358,5890.0,1.1749286160079269
359,5910.0,1.2286255095324687
360,5930.0,1.228562403057011
361,5950.0,1.2230632965815533
362,5970.0,1.2302491901060955
363,5990.0,1.2120640836306378
364,6010.0,1.19871197715518
365,6030.0,1.2119378706797221
366,6050.0,1.2191237642042645
367,6070.0,1.2142286577288066
368,6090.0,1.1839635512533488
369,6110.0,1.181483444777891
370,6130.0,1.1433663383024333
371,6150.0,1.1505512318269755
372,6170.0,1.1245141253515176
373,6190.0,1.1570700188760599
374,6210.0,1.1479459124006022
375,6230.0,1.1231168059251444
376,6250.0,1.0946636994496866
377,6270.0,1.1248035929742288
378,6290.0,1.131988486498771
379,6310.0,1.108368380023313
380,6330.0,1.1137412735478556
381,6350.0,1.1046181670723976
382,6370.0,1.09911806059694
383,6390.0,1.110531954121482
384,6410.0,1.0935558476460243
385,6430.0,1.0965127411705664
386,6450.0,1.0873896346951086
387,6470.0,1.084910528219651
388,6490.0,1.0649134217441931
389,6510.0,1.0811603152687352
390,6530.0,1.0702242087932776
391,6550.0,1.0242531023178196
392,6570.0,0.942039995842362
393,6590.0,1.0458728893669043
394,6606.93448,1.0586066814475785
395,6610.0,1.0609708250158048
396,6630.0,1.0552519199049328
397,6650.0,1.053158014794061
398,6670.0,1.0359631096831892
399,6690.0,1.0441382045723175
400,6710.0,1.0190902994614457
401,6730.0,1.0314933943505737
402,6750.0,1.017922489239702
403,6770.0,1.0188485841288304
404,6790.0,1.0082976790179585
405,6810.0,1.0086197739070866
406,6830.0,1.0113578687962148
407,6850.0,0.993558963685343
408,6870.0,1.0011300585744713
409,6890.0,1.0068881534635994
410,6910.0,1.0011702483527278
411,6930.0,0.9930353432418559
412,6950.0,0.9885254381309841
413,6970.0,0.9924715330201123
414,6990.0,0.9867536279092406
415,7010.0,0.9713707227983688
416,7030.0,0.982565817687497
417,7050.0,0.984699912576625
418,7070.0,0.9662970074657533
419,7090.0,0.9478931023548816
420,7110.0,0.9288861972440097
421,7130.0,0.917731292133138
422,7150.0,0.9156373870222662
423,7170.0,0.9183754819113943
424,7190.0,0.9023885768005224
425,7210.0,0.9141876716896508
426,7230.0,0.9205507665787789
427,7250.0,0.9220808614679071
428,7270.0,0.9217989563570353
429,7290.0,0.9088320512461635
430,7310.0,0.9212351461352917
431,7330.0,0.9215572410244199
432,7350.0,0.9236913359135481
433,7370.0,0.9354904308026764
434,7390.0,0.9207115256918046
435,7410.0,0.9168056205809327
436,7430.0,0.926188715470061
437,7450.0,0.9265108103591893
438,7470.0,0.9304569052483174
439,7490.0,0.9265510001374455
440,7510.0,0.9323100950265738
441,7530.0,0.939880189915702
442,7550.0,0.9420152848048302
443,7570.0,0.9356923796939584
444,7585.77575,0.9268935299788168
445,7590.0,0.9245948205746914
446,7610.0,0.9149204239758859
447,7630.0,0.9022250273770805
448,7650.0,0.8901336307782752
449,7670.0,0.8635452341794697
450,7690.0,0.8744078375806644
451,7710.0,0.8629204409818589
452,7730.0,0.8617020443830534
453,7750.0,0.8562546477842481
454,7770.0,0.8586612511854427
455,7790.0,0.8658988545866373
456,7810.0,0.8622644579878318
457,7830.0,0.8550050613890264
458,7850.0,0.844726664790221
459,7870.0,0.8525682681914156
460,7890.0,0.8392688715926103
461,7910.0,0.8265734749938048
462,7930.0,0.8271670783949994
463,7950.0,0.819908681796194
464,7970.0,0.8380192851973886
465,7990.0,0.8361968885985832
466,8010.0,0.8404154919997778
467,8030.0,0.8391970954009723
468,8050.0,0.8379786988021669
469,8070.0,0.8409883022033615
470,8090.0,0.8319169056045561
471,8110.0,0.8355315090057507
472,8130.0,0.8488101124069453
473,8150.0,0.8518197158081399
474,8170.0,0.8560373192093345
475,8190.0,0.839717922610529
476,8210.0,0.8312505260117236
477,8230.0,0.8354691294129183
478,8250.0,0.8342507328141128
479,8270.0,0.8408843362153074
480,8290.0,0.833021939616502
481,8310.0,0.8100575430176966
482,8330.0,0.8058191464188912
483,8350.0,0.8052047498200858
484,8370.0,0.8082143532212804
485,8390.0,0.788874956622475
486,8410.0,0.8033615600236697
487,8430.0,0.7755651634248641
488,8450.0,0.7611777668260586
489,8470.0,0.7598993702272533
490,8490.0,0.7646609736284479
491,8510.0,0.7326965770296425
492,8530.0,0.7621031804308371
493,8550.0,0.6982447838320317
494,8570.0,0.7815323872332262
495,8590.0,0.7630389906344208
496,8610.0,0.7664105940356154
497,8630.0,0.79116619743681
498,8650.0,0.7826998008380046
499,8670.0,0.7022904042391992
500,8690.0,0.7724100076403937
501,8709.6359,0.7961219311016688
502,8710.0,0.7965654379894263
503,8730.0,0.7955572554987195
504,8750.0,0.7631380730080126
505,8770.0,0.7947488905173059
506,8790.0,0.8076337080265991
507,8810.0,0.7957525255358924
508,8830.0,0.7989723430451855
509,8850.0,0.7883001605544788
510,8870.0,0.750625978063772
511,8890.0,0.7856787955730651
512,8910.0,0.7967516130823584
513,8930.0,0.7836624305916515
514,8950.0,0.7856742481009448
515,8970.0,0.785875065610238
516,8990.0,0.7818458831195312
517,9010.0,0.7394007006288245
518,9030.0,0.7683525181381176
519,9050.0,0.7999633356474108
520,9070.0,0.797143153156704
521,9090.0,0.7816369706659972
522,9110.0,0.7902937881752904
523,9130.0,0.8025746056845837
524,9150.0,0.7967344231938769
525,9170.0,0.79391324070317
526,9190.0,0.7983420582124633
527,9210.0,0.7653188757217565
528,9230.0,0.7279476932310496
529,9250.0,0.7471145107403429
530,9270.0,0.7562543282496361
531,9290.0,0.7540381457589294
532,9310.0,0.7584659632682225
533,9330.0,0.7574577807775158
534,9350.0,0.7546375982868089
535,9370.0,0.7454744157961022
536,9390.0,0.7532252333053954
537,9410.0,0.7362090508146886
538,9430.0,0.7530208683239817
539,9450.0,0.743253685833275
540,9470.0,0.7558365033425682
541,9490.0,0.7560363208518613
542,9510.0,0.7436721383611546
543,9530.0,0.7383149558704478
544,9550.0,0.7058357733797411
545,9570.0,0.7325525908890342
546,9590.0,0.7497874083983274
547,9610.0,0.7420132259076206
548,9630.0,0.7429380434169138
549,9650.0,0.7347418609262071
550,9670.0,0.7325256784355003
551,9690.0,0.7417254959447934
552,9710.0,0.7344353134540867
553,9730.0,0.7293801309633798
554,9750.0,0.7254119484726731
555,9770.0,0.7275447659819663
556,9790.0,0.7192875834912595
557,9810.0,0.7319314010005528
558,9830.0,0.7248222185098459
559,9850.0,0.7285860360191392
560,9870.0,0.7238328535284323
561,9890.0,0.7221596710377256
562,9910.0,0.7183734885470188
563,9930.0,0.720445306056312
564,9950.0,0.7199201235656052
565,9970.0,0.7196979410748984
566,9990.0,0.7161527585841916
567,10000.0,0.7134136673388382
568,10030.0,0.7054315194529598
569,10070.0,0.6932176556051218
570,10130.0,0.7066103598333651
571,10170.0,0.6995914959855272
572,10220.0,0.6996369161757299
573,10280.0,0.698955620403973
574,10320.0,0.689641756556135
575,10380.0,0.6839464607843783
576,10430.0,0.6843538809745808
577,10480.0,0.6758223011647835
578,10520.0,0.6720664373169456
579,10580.0,0.6622631415451887
580,10630.0,0.6576575617353915
581,10680.0,0.6476759819255941
582,10720.0,0.6493561180777562
583,10780.0,0.6443248223059994
584,10820.0,0.6355549584581615
585,10870.0,0.6319163786483641
586,10920.0,0.6198807988385667
587,10980.0,0.6191385030668098
588,11020.0,0.620999639218972
589,11080.0,0.6143983434472151
590,11130.0,0.6111817636374178
591,11170.0,0.60633789978958
592,11220.0,0.6049943199797825
593,11280.0,0.5957960242080258
594,11330.0,0.5938484443982284
595,11380.0,0.590571864588431
596,11430.0,0.5842752847786337
597,11470.0,0.5893974209307958
598,11481.5362,0.5887669107327601
599,11530.0,0.5864051542698674
600,11570.0,0.5797451922834836
601,11620.0,0.572113739800504
602,11670.0,0.5704622873175242
603,11730.0,0.5727323443379486
604,11770.0,0.5621453823515649
605,11830.0,0.5578924393719893
606,11870.0,0.5499634773856055
607,11920.0,0.5564670249026258
608,11980.0,0.5409180819230501
609,12030.0,0.5483276294400704
610,12070.0,0.5430556674536867
611,12120.0,0.5425522149707069
612,12180.0,0.5428902719911314
613,12230.0,0.5390638195081516
614,12270.0,0.5352428575217679
615,12320.0,0.5313564050387882
616,12370.0,0.5300069525558085
617,12430.0,0.5243650095762329
618,12480.0,0.5223505570932532
619,12530.0,0.5174381046102734
620,12580.0,0.5151826521272937
621,12620.0,0.5126896901409099
622,12670.0,0.5078362376579303
623,12720.0,0.5072727851749506
624,12780.0,0.5053148421953749
625,12830.0,0.48439438971239523
626,12880.0,0.49663593722941557
627,12920.0,0.49227097524303176
628,12980.0,0.49581003226345616
629,13020.0,0.4895720702770724
630,13080.0,0.49075612729749674
631,13130.0,0.4823386748145171
632,13180.0,0.4806872223315374
633,13182.5674,0.4806675841614413
634,13230.0,0.48050572588716917
635,13280.0,0.47375110665664827
636,13320.0,0.4749306112722315
637,13380.0,0.47038786819560646
638,13430.0,0.4716062489650855
639,13470.0,0.4680747535806688
640,13520.0,0.4657901343501478
641,13570.0,0.45963851511962694
642,13630.0,0.45811677204300183
643,13670.0,0.4586922766585851
644,13730.0,0.45862053358196
645,13770.0,0.45696103819754325
646,13820.0,0.45685041896702233
647,13880.0,0.4530336758903972
648,13930.0,0.44337905665987626
649,13970.0,0.44184056127545956
650,14020.0,0.4368369420449386
651,14080.0,0.4388791989683135
652,14120.0,0.4337767035838968
653,14180.0,0.4363619605072717
654,14230.0,0.43147934127675075
655,14280.0,0.42599272204622984
656,14330.0,0.4314401028157089
657,14380.0,0.432355483585188
658,14420.0,0.42278398820077123
659,14480.0,0.42905424512414614
660,14520.0,0.4248577497397294
661,14570.0,0.4268011305092085
662,14620.0,0.4215565112786876
663,14670.0,0.4201768920481666
664,14720.0,0.4156572728176457
665,14770.0,0.4171166535871248
666,14830.0,0.4174069105104997
