,lambda (Angstroms),Total Flux (erg/s/cm^2/Angstrom)
0,1005.0,1.5688716838612258
1,1015.0,1.5827606522221453
2,1025.0,0.8198516205830648
3,1035.0,1.0826085889439843
4,1045.0,2.1143275573049043
5,1055.0,2.0466665256658234
6,1065.0,1.5126854940267431
7,1075.0,1.8509544623876626
8,1085.0,1.4148334307485821
9,1095.0,1.9832423991095018
10,1096.4782,1.9677048864126128
11,1105.0,1.8781294950567093
12,1115.0,1.7603362662131512
13,1125.0,1.507843037369593
14,1135.0,2.062359808526035
15,1145.0,1.8545565796824763
16,1155.0,1.9886533508389184
17,1165.0,2.01221012199536
18,1175.0,1.2438568931518017
19,1185.0,1.9312636643082435
20,1195.0,1.2970104354646854
21,1205.0,0.868133206621127
22,1215.0,0.7515489777775687
23,1225.0,1.3845907489340104
24,1235.0,2.091927520090452
25,1245.0,2.270114291246894
26,1255.0,2.1221210624033358
27,1258.92541,2.004510585939855
28,1265.0,1.8225099344622515
29,1275.0,2.4072301641277845
30,1285.0,2.5358903937933173
31,1295.0,1.8521106234588502
32,1305.0,1.838820853124383
33,1315.0,2.4313910827899163
34,1325.0,2.293671312455449
35,1335.0,1.9596315421209818
36,1345.0,2.4386417717865148
37,1355.0,2.3419920014520477
38,1365.0,2.0236622311175805
39,1375.0,2.1360124607831135
40,1385.0,2.1329926904486465
41,1395.0,1.7699629201141793
42,1405.0,1.8424431497797122
43,1415.0,1.9119133794452452
44,1425.0,1.985603609110778
45,1435.0,1.965673838776311
46,1442.0,2.0901039995421837
47,1445.43977,2.1179455769218443
48,1447.0,2.1305741086162024
49,1455.0,2.0411842628209422
50,1465.0,1.8358044555768667
51,1475.0,1.8466746483327912
52,1485.0,1.8950048410887157
53,1495.0,1.92822503384464
54,1505.0,1.7838552266005645
55,1512.0,1.5386153615297118
56,1517.0,1.6781454579076738
57,1525.0,1.6086856121124133
58,1535.0,1.344715804868338
59,1545.0,1.5053959976242623
60,1555.0,1.4171961903801868
61,1565.0,1.4455863831361115
62,1575.0,1.5506965758920357
63,1585.0,1.6515667686479603
64,1595.0,1.6702969614038847
65,1605.0,1.6461371541598093
66,1615.0,1.6509673469157338
67,1625.0,1.5374075396716582
68,1635.0,1.6582177324275826
69,1645.0,1.6799679251835071
70,1655.0,1.5319681179394316
71,1659.58691,1.6009599196648392
72,1665.0,1.6823789683340975
73,1672.0,1.454659953696397
74,1677.0,1.6872106575266106
75,1685.0,1.7754017836549525
76,1695.0,1.64010319131538
77,1705.0,1.5609745989758073
78,1715.0,1.4449960066362348
79,1725.0,1.4311074142966624
80,1735.0,1.5380188219570898
81,1745.0,1.4915102296175173
82,1755.0,1.5996416372779447
83,1765.0,1.4407730449383722
84,1775.0,1.4564844525987997
85,1785.0,1.485475860259227
86,1795.0,1.5996472679196545
87,1805.0,1.583938675580082
88,1815.0,1.4154100832405094
89,1825.0,1.4516614909009369
90,1835.0,1.3767528985613642
91,1845.0,1.2378243062217917
92,1855.0,1.228165713882219
93,1865.0,1.2674271215426467
94,1875.0,1.397298529203074
95,1885.0,1.2541399368635016
96,1895.0,1.189511344523929
97,1905.0,1.2710627521843565
98,1905.46072,1.2676673106380876
99,1915.0,1.1973610861453161
100,1925.0,1.1689692716553635
101,1935.0,1.2076274571654109
102,1945.0,1.252325642675458
103,1955.0,1.1514438281855055
104,1967.0,1.2789016507975624
105,1976.0,1.311520017756605
106,1984.0,1.2215085661646428
107,1995.0,1.173186570225695
108,2005.0,1.2136547557357422
109,2015.0,1.1514329412457898
110,2025.0,1.2112311267558369
111,2035.0,1.1224393122658844
112,2045.0,1.1731774977759317
113,2055.0,1.106125683285979
114,2065.0,1.0988738687960264
115,2074.0,1.187672235755069
116,2078.0,1.109141509959088
117,2085.0,1.1610902398161211
118,2095.0,1.0867884253261686
119,2105.0,1.0916166108362158
120,2115.0,1.1030947963462632
121,2125.0,1.1169829818563106
122,2135.0,1.025771167366358
123,2145.0,1.0511393528764053
124,2155.0,1.0976475383864526
125,2165.0,1.0601957238965
126,2175.0,1.0469039094065473
127,2185.0,1.019122094916595
128,2187.7616199999998,1.0336339069234193
129,2195.0,1.0716726409848463
130,2205.0,1.0378440876641115
131,2215.0,0.9792555343433769
132,2225.0,0.9436189810226421
133,2235.0,1.0130884277019074
134,2245.0,0.9671788743811726
135,2255.0,0.9182533210604378
136,2265.0,0.947248767739703
137,2275.0,0.9732242144189682
138,2285.0,1.0022156610982336
139,2295.0,0.9375881077774987
140,2305.0,0.941817554456764
141,2315.0,0.8898710011360292
142,2325.0,0.6730194478152943
143,2335.0,0.8179928944945597
144,2345.0,0.7968523411738249
145,2355.0,0.8669237878530901
146,2365.0,0.7908152345323554
147,2375.0,0.8155826812116206
148,2385.0,0.7557831278908858
149,2395.0,0.8113565745701511
150,2405.0,0.7745110212494163
151,2415.0,0.7980704679286815
152,2425.0,0.8500199146079468
153,2435.0,0.813779361287212
154,2445.0,0.8669368079664772
155,2455.0,0.8536492546457425
156,2465.0,0.8470057013250076
157,2475.0,0.8131801480042729
158,2485.0,0.8355315946835381
159,2495.0,0.7721080413628033
160,2505.0,0.8747974880420686
161,2511.88643,0.7869241942726176
162,2513.0,0.7727144219385035
163,2518.0,0.7998961419870214
164,2525.0,0.7618407500549467
165,2535.0,0.7745251901519826
166,2545.0,0.7551956302490186
167,2555.0,0.8143910703460545
168,2565.0,0.7908335104430906
169,2575.0,0.8409689505401265
170,2585.0,0.8270753906371625
171,2595.0,0.8143888307341984
172,2605.0,0.7841862708312345
173,2615.0,0.7721047109282704
174,2625.0,0.8095551510253064
175,2635.0,0.8343205911223424
176,2645.0,0.9049940312193784
177,2655.0,0.9219064713164143
178,2665.0,0.8282789114134503
179,2675.0,0.8717693515104863
180,2685.0,0.8651237916075222
181,2695.0,0.8240482317045582
182,2705.0,0.8463976718015942
183,2715.0,0.8035101118986302
184,2725.0,0.8041135519956661
185,2735.0,0.8445839920927022
186,2745.0,0.7261904321897381
187,2755.0,0.7418948722867741
188,2765.0,0.76907631238381
189,2775.0,0.807734752480846
190,2785.0,0.762430192577882
191,2795.0,0.613230632674918
192,2805.0,0.659137072771954
193,2815.0,0.79444351286899
194,2825.0,0.8355179529660258
195,2835.0,0.7956503930630618
196,2845.0,0.7763208331600979
197,2855.0,0.7467212732571339
198,2865.0,0.8216227133541698
199,2875.0,0.8167901534512058
200,2884.0315,0.8118792212248438
201,2885.0,0.8113526466650842
202,2895.0,0.8004796352065439
203,2910.0,0.8681336180187333
204,2930.0,0.8337025951016527
205,2950.0,0.8179975721845721
206,2970.0,0.8312865492674915
207,2990.0,0.8300785263504107
208,3010.0,0.83732650343333
209,3030.0,0.8330984805162494
210,3050.0,0.8288704575991687
211,3070.0,0.828266434682088
212,3090.0,0.8300784117650073
213,3110.0,0.8228293888479267
214,3130.0,0.810144365930846
215,3150.0,0.8113523430137655
216,3170.0,0.8071243200966848
217,3190.0,0.7672572971796041
218,3210.0,0.7914192742625233
219,3230.0,0.7563842513454427
220,3250.0,0.792023228428362
221,3270.0,0.8113522055112814
222,3290.0,0.8028961825942007
223,3310.0,0.80047915967712
224,3311.31121,0.7998455815026648
225,3330.0,0.7908147488095201
226,3350.0,0.7781293107232183
227,3370.0,0.7455098726369167
228,3390.0,0.752154434550615
229,3410.0,0.7539659964643134
230,3430.0,0.7497375583780117
231,3450.0,0.75336112029171
232,3470.0,0.7485276822054083
233,3490.0,0.7563802441191066
234,3510.0,0.7666488060328049
235,3530.0,0.7473183679465033
236,3550.0,0.7708759298602016
237,3570.0,0.7128874917738999
238,3590.0,0.7038260536875982
239,3610.0,0.7249676156012964
240,3630.0,0.7297991775149948
241,3640.0,0.7322149584718439
242,3650.0,0.763625739428693
243,3670.0,0.7515443013423914
244,3690.0,0.6989918632560898
245,3710.0,0.752751425169788
246,3730.0,0.7159039870834863
247,3750.0,0.8397335489971847
248,3770.0,0.891681110910883
249,3790.0,1.0040366728245813
250,3801.8939600000003,1.0593552202555354
251,3810.0,1.097056271734448
252,3830.0,0.873557924928644
253,3850.0,1.12544557812284
254,3870.0,1.2015552313170361
255,3890.0,0.8789938845112324
256,3910.0,1.2293445377054286
257,3930.0,0.9889291908996245
258,3950.0,1.1471938440938205
259,3970.0,0.7479134972880167
260,3990.0,1.2426231504822127
261,4010.0,1.3368628036764088
262,4030.0,1.325982456870605
263,4050.0,1.315112110064801
264,4070.0,1.264371763258997
265,4090.0,1.174371416453193
266,4110.0,0.9973830696473893
267,4130.0,1.2462507228415856
268,4150.0,1.2843003760357814
269,4170.0,1.2782600292299775
270,4190.0,1.2704096824241737
271,4210.0,1.2704093356183699
272,4230.0,1.2402089888125658
273,4250.0,1.2522886420067618
274,4270.0,1.2051682952009581
275,4290.0,1.1924879483951543
276,4310.0,1.1073176015893502
277,4330.0,1.0614072547835463
278,4350.0,0.9671759079777424
279,4365.15832,1.1644922544840688
280,4370.0,1.2275166931493486
281,4390.0,1.1942968915155103
282,4410.0,1.2081870898816724
283,4430.0,1.2154372882478341
284,4450.0,1.223897486613996
285,4470.0,1.2359776849801578
286,4490.0,1.2353778833463196
287,4510.0,1.3060480817124813
288,4530.0,1.2220882800786432
289,4550.0,1.227518478444805
290,4570.0,1.277058676810967
291,4590.0,1.2275188751771287
292,4610.0,1.2444390735432906
293,4630.0,1.2106092719094523
294,4650.0,1.2208794702756143
295,4670.0,1.235979668641776
296,4690.0,1.208799867007938
297,4710.0,1.1683300653740998
298,4730.0,1.2063802637402616
299,4750.0,1.2172504621064233
300,4770.0,1.2088006604725854
301,4790.0,1.199130858838747
302,4810.0,1.179801057204909
303,4830.0,1.1767812555710706
304,4850.0,1.0336214539372326
305,4870.0,0.8959036523033944
306,4890.0,1.1230218506695562
307,4910.0,1.138732049035718
308,4930.0,1.11880224740188
309,4950.0,1.1520224457680417
310,4970.0,1.1411526441342035
311,4990.0,1.0855728425003652
312,5010.0,1.0396730408665273
313,5011.87234,1.043235186286972
314,5030.0,1.077723275362458
315,5050.0,1.065643513590101
316,5070.0,1.0964537518177442
317,5090.0,1.0577939900453872
318,5110.0,1.0662442282730304
319,5130.0,1.0366444665006735
320,5150.0,1.0100747047283165
321,5170.0,0.9726209429559597
322,5190.0,0.9822861811836027
323,5210.0,1.0076554194112457
324,5230.0,1.0318156576388888
325,5250.0,1.0535658958665322
326,5270.0,0.9720181340941751
327,5290.0,1.0493363723218183
328,5310.0,1.0722866105494613
329,5330.0,0.9949728487771045
330,5350.0,1.0481270870047474
331,5370.0,1.0408773252323906
332,5390.0,1.0203475634600336
333,5410.0,1.0028278016876768
334,5430.0,1.0118880399153198
335,5450.0,1.030008278142963
336,5470.0,1.007058516370606
337,5490.0,1.0046387545982491
338,5510.0,0.9955789928258922
339,5530.0,1.0088692310535354
340,5550.0,1.0143094692811785
341,5570.0,0.9979957075088216
342,5590.0,0.9810829457364646
343,5610.0,0.9992041839641077
344,5630.0,0.9889354221917508
345,5650.0,0.9907476604193939
346,5670.0,0.970814898647037
347,5690.0,0.9889361368746801
348,5710.0,0.9647743751023232
349,5730.0,1.0137016133299663
350,5750.0,0.9798758515576094
351,5754.399369999999,0.9813375946426863
352,5770.0,0.9865213772497627
353,5790.0,0.956923984006767
354,5810.0,0.9792735907637713
355,5830.0,0.9949801975207756
356,5850.0,0.9708188042777798
357,5870.0,0.965382411034784
358,5890.0,0.8953140177917883
359,5910.0,0.9502826245487924
360,5930.0,0.9514912313057968
361,5950.0,0.947263838062801
362,5970.0,0.9557214448198051
363,5990.0,0.9388080515768095
364,6010.0,0.9267276583338137
365,6030.0,0.9412252650908179
366,6050.0,0.9496828718478222
367,6070.0,0.9460594786048263
368,6090.0,0.9170660853618307
369,6110.0,0.9158576921188348
370,6130.0,0.8790122988758392
371,6150.0,0.8874689056328434
372,6170.0,0.8627035123898475
373,6190.0,0.8965311191468519
374,6210.0,0.8886787259038561
375,6230.0,0.8651213326608603
376,6250.0,0.8379399394178646
377,6270.0,0.8693515461748688
378,6290.0,0.8778081529318731
379,6310.0,0.8554597596888772
380,6330.0,0.8621043664458816
381,6350.0,0.8542529732028857
382,6370.0,0.85002457995989
383,6390.0,0.8627101867168943
384,6410.0,0.8470057934738985
385,6430.0,0.8512344002309028
386,6450.0,0.843383006987907
387,6470.0,0.8421756137449111
388,6490.0,0.8234502205019155
389,6510.0,0.8409688272589196
390,6530.0,0.831304434015924
391,6550.0,0.7866050407729281
392,6570.0,0.7056636475299324
393,6590.0,0.8107682542869367
394,6606.93448,0.8245788364826543
395,6610.0,0.8270787685778449
396,6630.0,0.8222457720695232
397,6650.0,0.8210377755612017
398,6670.0,0.8047287790528801
399,6690.0,0.8137897825445587
400,6710.0,0.7896277860362371
401,6730.0,0.8029167895279156
402,6750.0,0.7902317930195939
403,6770.0,0.7920437965112724
404,6790.0,0.7823788000029508
405,6810.0,0.7835868034946293
406,6830.0,0.7872108069863079
407,6850.0,0.7702978104779862
408,6870.0,0.7787548139696647
409,6890.0,0.7853988174613431
410,6910.0,0.7805668209530217
411,6930.0,0.7733178244447
412,6950.0,0.7696938279363785
413,6970.0,0.7745258314280569
414,6990.0,0.7696938349197354
415,7010.0,0.7551968384114138
416,7030.0,0.7672778419030923
417,7050.0,0.7702978453947706
418,7070.0,0.7527808488864491
419,7090.0,0.7352628523781277
420,7110.0,0.717141855869806
421,7130.0,0.7068728593614846
422,7150.0,0.705664862853163
423,7170.0,0.7092888663448415
424,7190.0,0.6941878698365198
425,7210.0,0.7068728733281984
426,7230.0,0.7141218768198767
427,7250.0,0.7165378803115553
428,7270.0,0.7171418838032336
429,7290.0,0.7050608872949121
430,7310.0,0.7183498907865905
431,7330.0,0.719557894278269
432,7350.0,0.7225778977699475
433,7370.0,0.735262901261626
434,7390.0,0.7213699047533044
435,7410.0,0.7183499082449828
436,7430.0,0.7286189117366614
437,7450.0,0.7298269152283398
438,7470.0,0.7346589187200182
439,7490.0,0.7316389222116966
440,7510.0,0.7382839257033751
441,7530.0,0.7467399291950535
442,7550.0,0.749760932686732
443,7570.0,0.7443239361784104
444,7585.77575,0.7362238800951029
445,7590.0,0.7340549910761497
446,7610.0,0.7249952379533319
447,7630.0,0.7129144848305141
448,7650.0,0.7014377317076964
449,7670.0,0.6754639785848786
450,7690.0,0.6869412254620609
451,7710.0,0.6760684723392432
452,7730.0,0.6754647192164254
453,7750.0,0.6706319660936076
454,7770.0,0.67365321297079
455,7790.0,0.6815054598479722
456,7810.0,0.6784857067251544
457,7830.0,0.6718409536023366
458,7850.0,0.6621772004795189
459,7870.0,0.6706334473567012
460,7890.0,0.6579486942338835
461,7910.0,0.6458679411110657
462,7930.0,0.647076187988248
463,7950.0,0.6404324348654302
464,7970.0,0.6591576817426125
465,7990.0,0.6579499286197947
466,8010.0,0.662783175496977
467,8030.0,0.6621794223741592
468,8050.0,0.6615756692513415
469,8070.0,0.6651999161285237
470,8090.0,0.656743163005706
471,8110.0,0.6609724098828882
472,8130.0,0.6748656567600705
473,8150.0,0.6784899036372527
474,8170.0,0.683322150514435
475,8190.0,0.6676173973916172
476,8210.0,0.6597646442687994
477,8230.0,0.6645978911459818
478,8250.0,0.663994138023164
479,8270.0,0.6712423849003463
480,8290.0,0.6639946317775285
481,8310.0,0.6416448786547108
482,8330.0,0.638021125531893
483,8350.0,0.6380213724090753
484,8370.0,0.6416456192862575
485,8390.0,0.6229208661634398
486,8410.0,0.6380221130406221
487,8430.0,0.6108403599178043
488,8450.0,0.5970676067949865
489,8470.0,0.5964038536721687
490,8490.0,0.601780100549351
491,8510.0,0.5704303474265333
492,8530.0,0.6004515943037155
493,8550.0,0.5372078411808977
494,8570.0,0.6211100880580799
495,8590.0,0.6032313349352622
496,8610.0,0.6072175818124445
497,8630.0,0.6325878286896267
498,8650.0,0.6247360755668089
499,8670.0,0.5449413224439912
500,8690.0,0.6156755693211734
501,8709.6359,0.6399909466739558
502,8710.0,0.6404418245755852
503,8730.0,0.6398385316136819
504,8750.0,0.6078242386517787
505,8770.0,0.6398399456898755
506,8790.0,0.6531296527279722
507,8810.0,0.641653359766069
508,8830.0,0.6452780668041657
509,8850.0,0.6350107738422625
510,8870.0,0.5977414808803592
511,8890.0,0.633199187918456
512,8910.0,0.6446768949565528
513,8930.0,0.6319926019946495
514,8950.0,0.6344093090327462
515,8970.0,0.635015016070843
516,8990.0,0.6313907231089397
517,9010.0,0.5893504301470365
518,9030.0,0.6187071371851333
519,9050.0,0.65072284422323
520,9070.0,0.6483075512613268
521,9090.0,0.6332062582994235
522,9110.0,0.6422679653375202
523,9130.0,0.654953672375617
524,9150.0,0.6495183794137138
525,9170.0,0.6471020864518106
526,9190.0,0.6519357934899073
527,9210.0,0.619317500528004
528,9230.0,0.5823512075661007
529,9250.0,0.6019229146041974
530,9270.0,0.6114676216422942
531,9290.0,0.6096563286803911
532,9310.0,0.6144890357184878
533,9330.0,0.6138857427565846
534,9350.0,0.6114704497946812
535,9370.0,0.602712156832778
536,9390.0,0.6108678638708748
537,9410.0,0.5942565709089715
538,9430.0,0.6114732779470683
539,9450.0,0.6021109849851651
540,9470.0,0.6150986920232618
541,9490.0,0.6157033990613585
542,9510.0,0.6037441060994553
543,9530.0,0.598791813137552
544,9550.0,0.5667175201756488
545,9570.0,0.5938392272137456
546,9590.0,0.6114789342518423
547,9610.0,0.604109641289939
548,9630.0,0.6054393483280358
549,9650.0,0.5976480553661325
550,9670.0,0.5958367624042293
551,9690.0,0.6054414694423261
552,9710.0,0.5985561764804229
553,9730.0,0.5939058835185196
554,9750.0,0.5903425905566163
555,9770.0,0.5928802975947131
556,9790.0,0.5850280046328098
557,9810.0,0.5980767116709066
558,9830.0,0.5913724187090034
559,9850.0,0.5955411257471002
560,9870.0,0.5911928327851969
561,9890.0,0.5899245398232936
562,9910.0,0.5865432468613904
563,9930.0,0.5890199538994871
564,9950.0,0.5888996609375838
565,9970.0,0.5890823679756807
566,9990.0,0.5859420750137774
567,10000.0,0.5834054285328257
568,10030.0,0.5757954918950446
569,10070.0,0.5640779097113364
570,10130.0,0.5782150364357741
571,10170.0,0.5716924542520659
572,10220.0,0.5723582265224307
573,10280.0,0.5724213532468684
574,10320.0,0.5636037710631602
575,10380.0,0.5586528977875979
576,10430.0,0.5596806700579626
577,10480.0,0.5517694423283274
578,10520.0,0.5485098601446191
579,10580.0,0.5394509868690569
580,10630.0,0.5354657591394216
581,10680.0,0.5261045314097864
582,10720.0,0.5282809492260783
583,10780.0,0.523994075950516
584,10820.0,0.5157204937668077
585,10870.0,0.5127022660371725
586,10920.0,0.5012870383075372
587,10980.0,0.501289165031975
588,11020.0,0.5036465828482667
589,11080.0,0.49778970957270446
590,11130.0,0.4951934818430692
591,11170.0,0.49084589965936104
592,11220.0,0.49012267192972575
593,11280.0,0.48166879865416345
594,11330.0,0.4803415709245282
595,11380.0,0.477685343194893
596,11430.0,0.4720091154652577
597,11470.0,0.47762753328154955
598,11481.5362,0.47714015319685715
599,11530.0,0.47509424225400265
600,11570.0,0.46869496599184035
601,11620.0,0.46138937066413743
602,11670.0,0.4600637753364346
603,11730.0,0.46272486094319115
604,11770.0,0.4523985846810289
605,11830.0,0.44853667028778543
606,11870.0,0.4408683940256231
607,11920.0,0.44769779869792026
608,11980.0,0.4325398843046768
609,12030.0,0.44027528897697393
610,12070.0,0.4352640127148117
611,12120.0,0.4350864173871088
612,12180.0,0.4358155029938654
613,12230.0,0.4323149076661625
614,12270.0,0.4287546314040002
615,12320.0,0.42519403607629735
616,12370.0,0.4241704407485945
617,12430.0,0.418919526355351
618,12480.0,0.41723093102764813
619,12530.0,0.4126443356999453
620,12580.0,0.41071474037224237
621,12620.0,0.4084824641100801
622,12670.0,0.40395486878237724
623,12720.0,0.4037172734546744
624,12780.0,0.40215035906143093
625,12830.0,0.38155576373372807
626,12880.0,0.39412316840602524
627,12920.0,0.3900188921438629
628,12980.0,0.39394897775061943
629,13020.0,0.38797170148845717
630,13080.0,0.38954678709521373
631,13130.0,0.3814551917675109
632,13180.0,0.380129596439808
633,13182.5674,0.38012669038292113
634,13230.0,0.38007454091976384
635,13280.0,0.3734355687453972
636,13320.0,0.3747075910059039
637,13380.0,0.3703036243966639
638,13430.0,0.3716376522222972
639,13470.0,0.36819867448280397
640,13520.0,0.3660297023084373
641,13570.0,0.3599937301340706
642,13630.0,0.3586107635248307
643,13670.0,0.35927878578533734
644,13730.0,0.3593458191760973
645,13770.0,0.35777884143660404
646,13820.0,0.3577838692622374
647,13880.0,0.35410590265299735
648,13930.0,0.34456693047863074
649,13970.0,0.3431209527391374
650,14020.0,0.33823298056477075
651,14080.0,0.3404140139555308
652,14120.0,0.3354040362160375
653,14180.0,0.3381280696067975
654,14230.0,0.33336109743243086
655,14280.0,0.3279901252580642
656,14330.0,0.3335531530836975
657,14380.0,0.3345841809093309
658,14420.0,0.32510520316983754
659,14480.0,0.33151423656059753
660,14520.0,0.32741025882110425
661,14570.0,0.3294692866467376
662,14620.0,0.32434031447237094
663,14670.0,0.3230763422980043
664,14720.0,0.31867237012363764
