,lambda (Angstroms),Total Flux (erg/s/cm^2/Angstrom)
0,1005.0,6.72323076704473
1,1015.0,6.673052478616993
2,1025.0,5.846076190189256
3,1035.0,6.04476590176152
4,1045.0,7.012417613333783
5,1055.0,6.880689324906047
6,1065.0,6.28264103647831
7,1075.0,6.556842748050574
8,1085.0,6.056654459622836
9,1095.0,6.560996171195099
10,1096.4782,6.535988236599712
11,1105.0,6.401713636223638
12,1115.0,6.231467628600748
13,1125.0,5.926521620977859
14,1135.0,6.42858561335497
15,1145.0,6.168329605732081
16,1155.0,6.249973598109192
17,1165.0,6.221077590486303
18,1175.0,5.400271582863414
19,1185.0,6.035225575240524
20,1195.0,5.348519567617635
21,1205.0,4.867189559994746
22,1215.0,4.698152552371857
23,1225.0,5.278741544748968
24,1235.0,5.933625537126078
25,1245.0,6.0593595295031895
26,1255.0,5.8589135218803
27,1258.92541,5.7207131791820025
28,1265.0,5.515996449992318
29,1275.0,6.063321435349874
30,1285.0,6.154586420707428
31,1295.0,5.433411406064982
32,1305.0,5.382726391422537
33,1315.0,5.937901376780092
34,1325.0,5.762786362137646
35,1335.0,5.391351347495201
36,1345.0,5.832966332852756
37,1355.0,5.69892131821031
38,1365.0,5.343196303567866
39,1375.0,5.41815128892542
40,1385.0,5.3777362742829755
41,1395.0,4.97731125964053
42,1405.0,5.012396244998085
43,1415.0,5.04447123035564
44,1425.0,5.0807662157131945
45,1435.0,5.023441201070749
46,1442.0,5.1216946908210375
47,1445.43977,5.136673164249372
48,1447.0,5.145229128287663
49,1455.0,5.034957398892843
50,1465.0,4.803475237149318
51,1475.0,4.788243075405792
52,1485.0,4.810470913662266
53,1495.0,4.817588751918741
54,1505.0,4.647116590175216
55,1512.0,4.383605076954748
56,1517.0,4.510083996082986
57,1525.0,4.419742266688164
58,1535.0,4.12967010494464
59,1545.0,4.264247943201115
60,1555.0,4.149945781457589
61,1565.0,4.152233619714063
62,1575.0,4.231241457970537
63,1585.0,4.306009296227012
64,1595.0,4.298637134483487
65,1605.0,4.248374972739962
66,1615.0,4.227102810996436
67,1625.0,4.08744064925291
68,1635.0,4.182148487509385
69,1645.0,4.1777963257658595
70,1655.0,4.003694164022335
71,1659.58691,4.060713050660034
72,1665.0,4.132235371378009
73,1672.0,3.891718288417226
74,1677.0,4.1151275148738105
75,1685.0,4.188692277204345
76,1695.0,4.035110730117513
77,1705.0,3.937699183030681
78,1715.0,3.8034376359438493
79,1725.0,3.771266088857017
80,1735.0,3.8598945417701858
81,1745.0,3.7951029946833534
82,1755.0,3.8849514475965217
83,1765.0,3.7077999005096896
84,1775.0,3.705228353422858
85,1785.0,3.7159368063360256
86,1795.0,3.811825259249194
87,1805.0,3.777833712162362
88,1815.0,3.5910221650755307
89,1825.0,3.6089906179886984
90,1835.0,3.5157990709018665
91,1845.0,3.358587523815035
92,1855.0,3.330645976728203
93,1865.0,3.351624429641371
94,1875.0,3.4632128825545387
95,1885.0,3.301771335467707
96,1895.0,3.2188597883808754
97,1905.0,3.2821282412940436
98,1905.46072,3.2778904674566585
99,1915.0,3.194806175333886
100,1925.0,3.1530191490145274
101,1935.0,3.17828212269517
102,1945.0,3.209585096375811
103,1955.0,3.0953080700564533
104,1967.0,3.2066916384732234
105,1976.0,3.2272543147858013
106,1984.0,3.126526693730314
107,1995.0,3.0634699647790207
108,2005.0,3.090542938459662
109,2015.0,3.014925912140304
110,2025.0,3.061328885820945
111,2035.0,2.959141859501588
112,2045.0,2.996484833182229
113,2055.0,2.916037806862871
114,2065.0,2.8953907805435124
115,2074.0,2.97213345685609
116,2078.0,2.8882446463283467
117,2085.0,2.930816727904796
118,2095.0,2.8431197015854384
119,2105.0,2.83455267526608
120,2115.0,2.832635648946722
121,2125.0,2.8331286226273633
122,2135.0,2.7285215963080054
123,2145.0,2.740494569988647
124,2155.0,2.7736075436692893
125,2165.0,2.7227605173499305
126,2175.0,2.696073491030573
127,2185.0,2.6548964647112143
128,2187.7616199999998,2.6657090282288065
129,2195.0,2.697186036242481
130,2205.0,2.6542922969992704
131,2215.0,2.5866385577560607
132,2225.0,2.54193681851285
133,2235.0,2.60234107926964
134,2245.0,2.5473663400264295
135,2255.0,2.4893756007832195
136,2265.0,2.5093058615400095
137,2275.0,2.526216122296799
138,2285.0,2.546142383053589
139,2295.0,2.4724496438103785
140,2305.0,2.4676139045671683
141,2315.0,2.4066021653239584
142,2325.0,2.180685426080748
143,2335.0,2.3165936868375376
144,2345.0,2.2863879475943274
145,2355.0,2.3473942083511172
146,2365.0,2.262220469107907
147,2375.0,2.277922729864697
148,2385.0,2.2090579906214867
149,2395.0,2.2555662513782764
150,2405.0,2.209655512135066
151,2415.0,2.224149772891856
152,2425.0,2.267034033648646
153,2435.0,2.2217282944054357
154,2445.0,2.2658205551622252
155,2455.0,2.243467815919015
156,2465.0,2.2277590766758046
157,2475.0,2.1848683374325946
158,2485.0,2.1981545981893844
159,2495.0,2.1256658589461743
160,2505.0,2.219290119702964
161,2511.88643,2.1251741491043017
162,2513.0,2.1102124169339205
163,2518.0,2.1340177895760464
164,2525.0,2.0912355112750225
165,2535.0,2.0971672565592745
166,2545.0,2.0710850018435267
167,2555.0,2.1235277471277785
168,2565.0,2.0932174924120304
169,2575.0,2.1366002376962827
170,2585.0,2.1159539829805345
171,2595.0,2.0965147282647862
172,2605.0,2.0595594735490383
173,2615.0,2.0407252188332903
174,2625.0,2.0714229641175423
175,2635.0,2.0894357094017946
176,2645.0,2.1533564546860466
177,2655.0,2.1635161999702985
178,2665.0,2.06313594525455
179,2675.0,2.0998736905388027
180,2685.0,2.086475435823054
181,2695.0,2.038647181107306
182,2705.0,2.054243926391558
183,2715.0,2.0046036716758104
184,2725.0,1.9984544169600622
185,2735.0,2.032172162244314
186,2745.0,1.907025907528566
187,2755.0,1.915977652812818
188,2765.0,1.9364063980970698
189,2775.0,1.968312143381322
190,2785.0,1.916254888665574
191,2795.0,1.760302633949826
192,2805.0,1.799456379234078
193,2815.0,1.9280101245183299
194,2825.0,1.962331869802582
195,2835.0,1.9157116150868339
196,2845.0,1.889629360371086
197,2855.0,1.8532771056553379
198,2865.0,1.9214258509395898
199,2875.0,1.9098405962238418
200,2884.0315,1.898830967677314
201,2885.0,1.8978424758859775
202,2895.0,1.8822000557379492
203,2910.0,1.9426999255159068
204,2930.0,1.8987300852198503
205,2950.0,1.873486244923794
206,2970.0,1.8772364046277372
207,2990.0,1.8664895643316803
208,3010.0,1.864198724035624
209,3030.0,1.8504318837395675
210,3050.0,1.836665043443511
211,3070.0,1.8265222031474544
212,3090.0,1.8187953628513975
213,3110.0,1.802007522555341
214,3130.0,1.7797836822592847
215,3150.0,1.771452841963228
216,3170.0,1.7576860016671716
217,3190.0,1.708280161371115
218,3210.0,1.7229033210750582
219,3230.0,1.6783294807790017
220,3250.0,1.7044296404829453
221,3270.0,1.7142198001868887
222,3290.0,1.696224959890832
223,3310.0,1.6842691195947754
224,3311.31121,1.683010171783546
225,3330.0,1.6676661844957135
226,3350.0,1.6482246593704035
227,3370.0,1.608849134245093
228,3390.0,1.6087376091197827
229,3410.0,1.6037930839944725
230,3430.0,1.5928085588691623
231,3450.0,1.589676033743852
232,3470.0,1.5780865086185418
233,3490.0,1.5791829834932316
234,3510.0,1.5826954583679211
235,3530.0,1.556608933242611
236,3550.0,1.5734104081173008
237,3570.0,1.5086658829919903
238,3590.0,1.4928483578666802
239,3610.0,1.50723383274137
240,3630.0,1.5053093076160597
241,3640.0,1.5043470450534044
242,3650.0,1.5323797824907495
243,3670.0,1.513542257365439
244,3690.0,1.4542337322401289
245,3710.0,1.5012372071148186
246,3730.0,1.4576336819895084
247,3750.0,1.5747071568641982
248,3770.0,1.619898631738888
249,3790.0,1.7254981066135775
250,3801.8939600000003,1.7767988225946072
251,3810.0,1.8125558086763114
252,3830.0,1.5842608771085058
253,3850.0,1.8313519455407004
254,3870.0,1.902665013972895
255,3890.0,1.5753070824050897
256,3910.0,1.9208611508372844
257,3930.0,1.6756492192694787
258,3950.0,1.8291172877016733
259,3970.0,1.4250403561338678
260,3990.0,1.9149534245660627
261,4010.0,2.004396492998257
262,4030.0,1.9887195614304516
263,4050.0,1.9730526298626465
264,4070.0,1.917515698294841
265,4090.0,1.8227187667270355
266,4110.0,1.6409338351592302
267,4130.0,1.885004903591425
268,4150.0,1.9182579720236195
269,4170.0,1.907421040455814
270,4190.0,1.8947741088880088
271,4210.0,1.8899771773202032
272,4230.0,1.8549802457523978
273,4250.0,1.8622633141845923
274,4270.0,1.8103463826167872
275,4290.0,1.7928694510489818
276,4310.0,1.7029025194811762
277,4330.0,1.6521955879133707
278,4350.0,1.5531676563455654
279,4365.15832,1.7468485945154149
280,4370.0,1.8090547773707095
281,4390.0,1.7724549266217502
282,4410.0,1.782965075872791
283,4430.0,1.7868352251238315
284,4450.0,1.7919153743748724
285,4470.0,1.800615523625913
286,4490.0,1.7966356728769535
287,4510.0,1.8639258221279942
288,4530.0,1.7765859713790348
289,4550.0,1.7786361206300756
290,4570.0,1.8247962698811162
291,4590.0,1.771876419132157
292,4610.0,1.7854165683831975
293,4630.0,1.7482067176342384
294,4650.0,1.755096866885279
295,4670.0,1.76681701613632
296,4690.0,1.7362571653873604
297,4710.0,1.692407314638401
298,4730.0,1.7270774638894417
299,4750.0,1.7345676131404821
300,4770.0,1.7227377623915232
301,4790.0,1.7096879116425638
302,4810.0,1.6869780608936042
303,4830.0,1.680578210144645
304,4850.0,1.5340383593956857
305,4870.0,1.3929405086467264
306,4890.0,1.616678657897767
307,4910.0,1.6290088071488076
308,4930.0,1.6056989563998485
309,4950.0,1.635539105650889
310,4970.0,1.6212892549019295
311,4990.0,1.5623294041529703
312,5010.0,1.5130495534040111
313,5011.87234,1.5162952687664455
314,5030.0,1.548617712912324
315,5050.0,1.534148624630525
316,5070.0,1.562569536348726
317,5090.0,1.5215204480669269
318,5110.0,1.5275813597851282
319,5130.0,1.495592271503329
320,5150.0,1.46663318322153
321,5170.0,1.4267900949397312
322,5190.0,1.434066006657932
323,5210.0,1.457045918376133
324,5230.0,1.478816830094334
325,5250.0,1.4981777418125353
326,5270.0,1.4142406535307361
327,5290.0,1.4891695652489374
328,5310.0,1.5097304769671382
329,5330.0,1.4300273886853394
330,5350.0,1.4807923004035404
331,5370.0,1.4711532121217414
332,5390.0,1.4482341238399423
333,5410.0,1.4283250355581434
334,5430.0,1.4349959472763443
335,5450.0,1.4507268589945455
336,5470.0,1.4253877707127465
337,5490.0,1.4205786824309474
338,5510.0,1.4091295941491484
339,5530.0,1.4200305058673497
340,5550.0,1.4230814175855506
341,5570.0,1.4043783293037517
342,5590.0,1.3850762410219526
343,5610.0,1.4008081527401537
344,5630.0,1.3881500644583546
345,5650.0,1.3875729761765556
346,5670.0,1.3652508878947567
347,5690.0,1.3809827996129576
348,5710.0,1.3544317113311588
349,5730.0,1.4009696230493598
350,5750.0,1.3647545347675607
351,5754.399369999999,1.3656907012843456
352,5770.0,1.3695520064808977
353,5790.0,1.3382591978469542
354,5810.0,1.3589133892130105
355,5830.0,1.3729245805790666
356,5850.0,1.347067771945123
357,5870.0,1.3399359633111794
358,5890.0,1.2681721546772355
359,5910.0,1.3214453460432918
360,5930.0,1.3209585374093482
361,5950.0,1.3150357287754044
362,5970.0,1.3217979201414607
363,5990.0,1.303189111507517
364,6010.0,1.2894133028735733
365,6030.0,1.3022154942396296
366,6050.0,1.3089776856056858
367,6070.0,1.303658876971742
368,6090.0,1.2729700683377985
369,6110.0,1.2700662597038548
370,6130.0,1.231525451069911
371,6150.0,1.2382866424359673
372,6170.0,1.2118258338020236
373,6190.0,1.2439580251680797
374,6210.0,1.2344102165341362
375,6230.0,1.2091574079001923
376,6250.0,1.1802805992662488
377,6270.0,1.209996790632305
378,6290.0,1.2167579819983612
379,6310.0,1.1927141733644175
380,6330.0,1.1976633647304737
381,6350.0,1.18811655609653
382,6370.0,1.1821927474625864
383,6390.0,1.1931829388286426
384,6410.0,1.175783130194699
385,6430.0,1.1783163215607553
386,6450.0,1.1687695129268116
387,6470.0,1.1658667042928679
388,6490.0,1.1454458956589242
389,6510.0,1.1612690870249804
390,6530.0,1.1499092783910367
391,6550.0,1.1035144697570929
392,6570.0,1.0208776611231491
393,6590.0,1.1242868524892056
394,6606.93448,1.1366618857834383
395,6610.0,1.1389807666877396
396,6630.0,1.1329665598732437
397,6650.0,1.130577353058748
398,6670.0,1.1130871462442522
399,6690.0,1.1209669394297566
400,6710.0,1.095623732615261
401,6730.0,1.1077315258007652
402,6750.0,1.0938653189862695
403,6770.0,1.0944961121717736
404,6790.0,1.083649905357278
405,6810.0,1.0836766985427821
406,6830.0,1.0861194917282866
407,6850.0,1.0680252849137908
408,6870.0,1.075301078099295
409,6890.0,1.0807638712847993
410,6910.0,1.0747506644703035
411,6930.0,1.0663204576558079
412,6950.0,1.0615152508413122
413,6970.0,1.0651660440268162
414,6990.0,1.0591528372123207
415,7010.0,1.0434746303978248
416,7030.0,1.0543744235833292
417,7050.0,1.0562132167688334
418,7070.0,1.0375150099543378
419,7090.0,1.018815803139842
420,7110.0,0.9995135963253463
421,7130.0,0.9880633895108506
422,7150.0,0.9856741826963549
423,7170.0,0.9881169758818591
424,7190.0,0.9718347690673632
425,7210.0,0.9833385622528676
426,7230.0,0.9894063554383719
427,7250.0,0.9906411486238762
428,7270.0,0.9900639418093804
429,7290.0,0.9768017349948848
430,7310.0,0.988909528180389
431,7330.0,0.9889363213658933
432,7350.0,0.9907751145513974
433,7370.0,1.0022789077369019
434,7390.0,0.9872047009224061
435,7410.0,0.9830034941079102
436,7430.0,0.9920912872934147
437,7450.0,0.9921180804789189
438,7470.0,0.9957688736644231
439,7490.0,0.9915676668499274
440,7510.0,0.9970314600354317
441,7530.0,1.004306253220936
442,7550.0,1.0061460464064402
443,7570.0,0.9995278395919445
444,7585.77575,0.9904960595842556
445,7590.0,0.9881540940995885
446,7610.0,0.9782748986345147
447,7630.0,0.9653747031694406
448,7650.0,0.9530785077043669
449,7670.0,0.9262853122392929
450,7690.0,0.9369431167742192
451,7710.0,0.9252509213091452
452,7730.0,0.9238277258440712
453,7750.0,0.9181755303789975
454,7770.0,0.9203773349139236
455,7790.0,0.9274101394488496
456,7810.0,0.9235709439837758
457,7830.0,0.9161067485187019
458,7850.0,0.9056235530536281
459,7870.0,0.9132603575885542
460,7890.0,0.8997561621234803
461,7910.0,0.8868559666584064
462,7930.0,0.8872447711933326
463,7950.0,0.8797815757282587
464,7970.0,0.8976873802631847
465,7990.0,0.8956601847981109
466,8010.0,0.899673989333037
467,8030.0,0.8982507938679631
468,8050.0,0.8968275984028893
469,8070.0,0.8996324029378153
470,8090.0,0.8903562074727416
471,8110.0,0.8937660120076676
472,8130.0,0.9068398165425937
473,8150.0,0.9096446210775198
474,8170.0,0.9136574256124459
475,8190.0,0.897133230147372
476,8210.0,0.8884610346822981
477,8230.0,0.8924748392172244
478,8250.0,0.8910516437521504
479,8270.0,0.8974804482870766
480,8290.0,0.8894132528220027
481,8310.0,0.8662440573569288
482,8330.0,0.8618008618918549
483,8350.0,0.8609816664267811
484,8370.0,0.8637864709617071
485,8390.0,0.8442422754966332
486,8410.0,0.8585240800315594
487,8430.0,0.8305228845664855
488,8450.0,0.8159306891014115
489,8470.0,0.8144474936363377
490,8490.0,0.8190042981712639
491,8510.0,0.78683510270619
492,8530.0,0.8160369072411161
493,8550.0,0.7519737117760422
494,8570.0,0.8350565163109682
495,8590.0,0.8163583208458944
496,8610.0,0.8195251253808206
497,8630.0,0.8440759299157466
498,8650.0,0.8354047344506728
499,8670.0,0.7547905389855989
500,8690.0,0.8247053435205249
501,8709.6359,0.848216196478892
502,8710.0,0.8486572506525684
503,8730.0,0.8475143406649592
504,8750.0,0.8149604306773502
505,8770.0,0.8464365206897412
506,8790.0,0.8591866107021321
507,8810.0,0.847170700714523
508,8830.0,0.8502557907269139
509,8850.0,0.839448880739305
510,8870.0,0.8016399707516959
511,8890.0,0.8365580607640868
512,8910.0,0.8474961507764779
513,8930.0,0.8342722407888687
514,8950.0,0.8361493308012596
515,8970.0,0.8362154208136506
516,8990.0,0.8320515108260416
517,9010.0,0.7894716008384326
518,9030.0,0.8182886908508235
519,9050.0,0.8497647808632144
520,9070.0,0.8468098708756053
521,9090.0,0.8311689608879963
522,9110.0,0.8396910509003872
523,9130.0,0.8518371409127782
524,9150.0,0.8458622309251691
525,9170.0,0.84290632093756
526,9190.0,0.847200410949951
527,9210.0,0.814042500962342
528,9230.0,0.7765365909747328
529,9250.0,0.7955686809871239
530,9270.0,0.8045737709995148
531,9290.0,0.8022228610119058
532,9310.0,0.8065159510242966
533,9330.0,0.8053730410366877
534,9350.0,0.8024181310490786
535,9370.0,0.7931202210614695
536,9390.0,0.8007363110738605
537,9410.0,0.7835854010862514
538,9430.0,0.8002624910986423
539,9450.0,0.7903605811110334
540,9470.0,0.8028086711234242
541,9490.0,0.8028737611358151
542,9510.0,0.790374851148206
543,9530.0,0.7848829411605971
544,9550.0,0.752269031172988
545,9570.0,0.7788511211853789
546,9590.0,0.7959512111977698
547,9610.0,0.7880423012101608
548,9630.0,0.7888323912225518
549,9650.0,0.7805014812349427
550,9670.0,0.7781505712473338
551,9690.0,0.7872156612597246
552,9710.0,0.7797907512721156
553,9730.0,0.7746008412845065
554,9750.0,0.7704979312968974
555,9770.0,0.7724960213092884
556,9790.0,0.7641041113216793
557,9810.0,0.7766132013340703
558,9830.0,0.7693692913464611
559,9850.0,0.7729983813588521
560,9870.0,0.7681104713712431
561,9890.0,0.7663025613836341
562,9910.0,0.762381651396025
563,9930.0,0.7643187414084159
564,9950.0,0.7636588314208068
565,9970.0,0.7633019214331979
566,9990.0,0.7596220114455887
567,10000.0,0.7568155564517842
568,10030.0,0.7487096926039464
569,10070.0,0.7363308741401625
570,10130.0,0.7494761464444867
571,10170.0,0.7422923279807029
572,10220.0,0.742131554900973
573,10280.0,0.7412028272052973
574,10320.0,0.7317240087415133
575,10380.0,0.7257812810458376
576,10430.0,0.7259825079661077
577,10480.0,0.717244734886378
578,10520.0,0.7133239164225941
579,10580.0,0.7032731887269184
580,10630.0,0.6984614156471886
581,10680.0,0.6882736425674587
582,10720.0,0.6897888241036749
583,10780.0,0.6845100964079992
584,10820.0,0.6755752779442152
585,10870.0,0.6717305048644855
586,10920.0,0.6594887317847556
587,10980.0,0.6584990040890798
588,11020.0,0.660195185625296
589,11080.0,0.6533464579296202
590,11130.0,0.6499236848498904
591,11170.0,0.6449148663861066
592,11220.0,0.6433650933063767
593,11280.0,0.633919365610701
594,11330.0,0.6317655925309711
595,11380.0,0.6282828194512413
596,11430.0,0.6217800463715115
597,11470.0,0.6267372279077277
598,11481.5362,0.62605914397368
599,11530.0,0.6235932056931566
600,11570.0,0.6168472563779782
601,11620.0,0.6091083197340053
602,11670.0,0.6073493830900324
603,11730.0,0.6094904591172648
604,11770.0,0.5988175098020865
605,11830.0,0.594435585829319
606,11870.0,0.5864206365141407
607,11920.0,0.5928166998701677
608,11980.0,0.5771387758974001
609,12030.0,0.5844408392534273
610,12070.0,0.579082889938249
611,12120.0,0.5784719532942759
612,12180.0,0.5786810293215084
613,12230.0,0.5747470926775355
614,12270.0,0.5708401433623572
615,12320.0,0.5668462067183843
616,12370.0,0.5653892700744113
617,12430.0,0.5596183461016438
618,12480.0,0.5574964094576709
619,12530.0,0.5524764728136979
620,12580.0,0.5501135361697249
621,12620.0,0.5475345868545466
622,12670.0,0.5425736502105737
623,12720.0,0.5419027135666008
624,12780.0,0.5398157895938333
625,12830.0,0.5187878529498603
626,12880.0,0.5309219163058874
627,12920.0,0.526470966990709
628,12980.0,0.5298810430179415
629,13020.0,0.5235570937027632
630,13080.0,0.5246121697299957
631,13130.0,0.5160872330860228
632,13180.0,0.5143282964420498
633,13182.5674,0.514303139175255
634,13230.0,0.5141063011828922
635,13280.0,0.507314808875531
636,13320.0,0.508464815029642
637,13380.0,0.5038778242608086
638,13430.0,0.5050593319534473
639,13470.0,0.5014983381075584
640,13520.0,0.4991768458001971
641,13570.0,0.4929883534928359
642,13630.0,0.4914223627240024
643,13670.0,0.49196836887811346
644,13730.0,0.49185237810927995
645,13770.0,0.490163384263391
646,13820.0,0.4900158919560298
647,13880.0,0.4861549011871963
648,13930.0,0.476463408879835
649,13970.0,0.47489541503394606
650,14020.0,0.4698549227265848
651,14080.0,0.47185293195775135
652,14120.0,0.46672093811186244
653,14180.0,0.46926194734302895
654,14230.0,0.4643424550356677
655,14280.0,0.45881896272830647
656,14330.0,0.4642294704209452
657,14380.0,0.46510797811358395
658,14420.0,0.455506984267695
659,14480.0,0.4617329934988615
660,14520.0,0.4575069996529725
661,14570.0,0.45941350734561126
662,14620.0,0.45413201503825007
663,14670.0,0.45271552273088883
664,14720.0,0.4481590304235276
665,14770.0,0.4495815381161664
666,14830.0,0.449827547347333
667,14880.0,0.4462970550399717
668,14920.0,0.4536090611940827
