,lambda (Angstroms),Total Flux (erg/s/cm^2/Angstrom)
0,1005.0,1.568790841930613
1,1015.0,1.5826803261110727
2,1025.0,0.8197718102915325
3,1035.0,1.0825292944719922
4,1045.0,2.114248778652452
5,1055.0,2.0465882628329117
6,1065.0,1.5126077470133714
7,1075.0,1.8508772311938313
8,1085.0,1.414756715374291
9,1095.0,1.983166199554751
10,1096.4782,1.9676287631063063
11,1105.0,1.8780547475283547
12,1115.0,1.7602631331065755
13,1125.0,1.5077715186847964
14,1135.0,2.062289904263017
15,1145.0,1.8544882898412383
16,1155.0,1.9885866754194592
17,1165.0,2.01214506099768
18,1175.0,1.2437934465759009
19,1185.0,1.9312018321541218
20,1195.0,1.2969502177323426
21,1205.0,0.8680746033105635
22,1215.0,0.7514919888887843
23,1225.0,1.3845353744670053
24,1235.0,2.091873760045226
25,1245.0,2.270062145623447
26,1255.0,2.122070531201668
27,1258.92541,2.0044606884649268
28,1265.0,1.822459967231126
29,1275.0,2.407180082063892
30,1285.0,2.535840196896659
31,1295.0,1.852060311729425
32,1305.0,1.8387704265621916
33,1315.0,2.4313405413949583
34,1325.0,2.2936206562277244
35,1335.0,1.959580771060491
36,1345.0,2.4385908858932575
37,1355.0,2.3419410007260235
38,1365.0,2.02361111555879
39,1375.0,2.135961230391557
40,1385.0,2.1329413452243235
41,1395.0,1.7699114600570895
42,1405.0,1.8423915748898563
43,1415.0,1.9118616897226226
44,1425.0,1.985551804555389
45,1435.0,1.9656219193881554
46,1442.0,2.090051999771092
47,1445.43977,2.117893537650922
48,1447.0,2.130522054308101
49,1455.0,2.041132131410471
50,1465.0,1.8357522277884335
51,1475.0,1.8466223241663957
52,1485.0,1.8949524205443578
53,1495.0,1.92817251692232
54,1505.0,1.7838026133002822
55,1512.0,1.5385626807648558
56,1517.0,1.678092728953837
57,1525.0,1.6086328060562067
58,1535.0,1.344662902434169
59,1545.0,1.5053429988121312
60,1555.0,1.4171430951900934
61,1565.0,1.4455331915680558
62,1575.0,1.550643287946018
63,1585.0,1.65151338432398
64,1595.0,1.6702434807019424
65,1605.0,1.6460835770799047
66,1615.0,1.6509136734578669
67,1625.0,1.5373537698358293
68,1635.0,1.6581638662137912
69,1645.0,1.6799139625917534
70,1655.0,1.5319140589697158
71,1659.58691,1.6009058164874195
72,1665.0,1.6823244841670488
73,1672.0,1.4546049768481983
74,1677.0,1.6871553287633054
75,1685.0,1.7753458918274763
76,1695.0,1.64004659565769
77,1705.0,1.5609172994879037
78,1715.0,1.4449380033181174
79,1725.0,1.431048707148331
80,1735.0,1.537959410978545
81,1745.0,1.4914501148087587
82,1755.0,1.5995808186389724
83,1765.0,1.440711522469186
84,1775.0,1.4564222262994
85,1785.0,1.4854129301296135
86,1795.0,1.5995836339598273
87,1805.0,1.5838743377900408
88,1815.0,1.4153450416202549
89,1825.0,1.4515957454504684
90,1835.0,1.376686449280682
91,1845.0,1.2377571531108957
92,1855.0,1.2280978569411096
93,1865.0,1.2673585607713234
94,1875.0,1.397229264601537
95,1885.0,1.2540699684317507
96,1895.0,1.1894406722619646
97,1905.0,1.2709913760921783
98,1905.46072,1.2675959021190437
99,1915.0,1.197290543072658
100,1925.0,1.1688996358276817
101,1935.0,1.2075587285827054
102,1945.0,1.252257821337729
103,1955.0,1.1513769140927528
104,1967.0,1.278835825398781
105,1976.0,1.3114550088783026
106,1984.0,1.2214442830823213
107,1995.0,1.1731232851128475
108,2005.0,1.2135923778678712
109,2015.0,1.1513714706228948
110,2025.0,1.2111705633779184
111,2035.0,1.1223796561329422
112,2045.0,1.1731187488879657
113,2055.0,1.1060678416429894
114,2065.0,1.0988169343980132
115,2074.0,1.1876161178775344
116,2078.0,1.1090857549795439
117,2085.0,1.1610351199080604
118,2095.0,1.0867342126630843
119,2105.0,1.091563305418108
120,2115.0,1.1030423981731314
121,2125.0,1.1169314909281554
122,2135.0,1.025720583683179
123,2145.0,1.0510896764382025
124,2155.0,1.0975987691932263
125,2165.0,1.06014786194825
126,2175.0,1.0468569547032738
127,2185.0,1.0190760474582974
128,2187.7616199999998,1.033588110011709
129,2195.0,1.0716263204924232
130,2205.0,1.0377970438320558
131,2215.0,0.9792077671716884
132,2225.0,0.943570490511321
133,2235.0,1.0130392138509536
134,2245.0,0.9671289371905863
135,2255.0,0.9182026605302188
136,2265.0,0.9471973838698515
137,2275.0,0.9731721072094841
138,2285.0,1.0021628305491168
139,2295.0,0.9375345538887494
140,2305.0,0.9417632772283819
141,2315.0,0.8898160005680146
142,2325.0,0.6729637239076471
143,2335.0,0.8179364472472799
144,2345.0,0.7967951705869124
145,2355.0,0.8668658939265451
146,2365.0,0.7907566172661776
147,2375.0,0.8155233406058102
148,2385.0,0.7557230639454429
149,2395.0,0.8112957872850756
150,2405.0,0.7744495106247081
151,2415.0,0.7980082339643408
152,2425.0,0.8499569573039734
153,2435.0,0.813715680643606
154,2445.0,0.8668724039832386
155,2455.0,0.8535841273228713
156,2465.0,0.8469398506625039
157,2475.0,0.8131135740021365
158,2485.0,0.835464297341769
159,2495.0,0.7720400206814017
160,2505.0,0.8747287440210343
161,2511.88643,0.7868549521288086
162,2513.0,0.7726452109692518
163,2518.0,0.7998270709935107
164,2525.0,0.7617718750274733
165,2535.0,0.7744565950759913
166,2545.0,0.7551273151245094
167,2555.0,0.8143230351730273
168,2565.0,0.7907657552215452
169,2575.0,0.8409014752700632
170,2585.0,0.8270081953185813
171,2595.0,0.8143219153670992
172,2605.0,0.7841196354156172
173,2615.0,0.7720383554641352
174,2625.0,0.8094890755126533
175,2635.0,0.8342547955611711
176,2645.0,0.9049285156096891
177,2655.0,0.9218412356582072
178,2665.0,0.8282139557067252
179,2675.0,0.8717046757552431
180,2685.0,0.8650593958037611
181,2695.0,0.8239841158522792
182,2705.0,0.846333835900797
183,2715.0,0.803446555949315
184,2725.0,0.8040502759978331
185,2735.0,0.8445209960463511
186,2745.0,0.726127716094869
187,2755.0,0.7418324361433871
188,2765.0,0.769014156191905
189,2775.0,0.8076728762404229
190,2785.0,0.7623685962889409
191,2795.0,0.613169316337459
192,2805.0,0.659076036385977
193,2815.0,0.794382756434495
194,2825.0,0.8354574764830129
195,2835.0,0.795590196531531
196,2845.0,0.7762609165800489
197,2855.0,0.7466616366285669
198,2865.0,0.8215633566770849
199,2875.0,0.8167310767256029
200,2884.0315,0.811820397337422
201,2885.0,0.8112938233325422
202,2895.0,0.800420817603272
203,2910.0,0.8680748090093667
204,2930.0,0.8336437975508264
205,2950.0,0.8179387860922861
206,2970.0,0.8312277746337458
207,2990.0,0.8300197631752053
208,3010.0,0.837267751716665
209,3030.0,0.8330397402581247
210,3050.0,0.8288117287995843
211,3070.0,0.828207717341044
212,3090.0,0.8300197058825036
213,3110.0,0.8227706944239633
214,3130.0,0.810085682965423
215,3150.0,0.8112936715068827
216,3170.0,0.8070656600483423
217,3190.0,0.767198648589802
218,3210.0,0.7913606371312616
219,3230.0,0.7563256256727213
220,3250.0,0.7919646142141811
221,3270.0,0.8112936027556408
222,3290.0,0.8028375912971004
223,3310.0,0.8004205798385601
224,3311.31121,0.7997870024153325
225,3330.0,0.7907563744047601
226,3350.0,0.7780711553616092
227,3370.0,0.7454519363184583
228,3390.0,0.7520967172753075
229,3410.0,0.7539084982321567
230,3430.0,0.7496802791890058
231,3450.0,0.7533040601458549
232,3470.0,0.7484708411027041
233,3490.0,0.7563236220595533
234,3510.0,0.7665924030164024
235,3530.0,0.7472621839732516
236,3550.0,0.7708199649301007
237,3570.0,0.7128317458869499
238,3590.0,0.703770526843799
239,3610.0,0.7249123078006482
240,3630.0,0.7297440887574974
241,3640.0,0.732159979235922
242,3650.0,0.7635708697143465
243,3670.0,0.7514896506711957
244,3690.0,0.6989374316280449
245,3710.0,0.752697212584894
246,3730.0,0.7158499935417432
247,3750.0,0.8396797744985923
248,3770.0,0.8916275554554415
249,3790.0,1.0039833364122908
250,3801.8939600000003,1.0593020141077685
251,3810.0,1.097003135867224
252,3830.0,0.8735049624643221
253,3850.0,1.1253927890614202
254,3870.0,1.201502615658518
255,3890.0,0.8789414422556162
256,3910.0,1.2292922688527144
257,3930.0,0.9888770954498122
258,3950.0,1.1471419220469103
259,3970.0,0.7478617486440083
260,3990.0,1.2425715752411064
261,4010.0,1.3368114018382045
262,4030.0,1.3259312284353024
263,4050.0,1.3150610550324004
264,4070.0,1.2643208816294986
265,4090.0,1.1743207082265965
266,4110.0,0.9973325348236947
267,4130.0,1.2462003614207928
268,4150.0,1.2842501880178907
269,4170.0,1.2782100146149888
270,4190.0,1.270359841212087
271,4210.0,1.2703596678091849
272,4230.0,1.240159494406283
273,4250.0,1.2522393210033809
274,4270.0,1.205119147600479
275,4290.0,1.1924389741975772
276,4310.0,1.1072688007946752
277,4330.0,1.0613586273917732
278,4350.0,0.9671274539888712
279,4365.15832,1.1644439319200315
280,4370.0,1.2274683465746743
281,4390.0,1.1942484457577551
282,4410.0,1.2081385449408362
283,4430.0,1.2153886441239172
284,4450.0,1.223848743306998
285,4470.0,1.235928842490079
286,4490.0,1.2353289416731597
287,4510.0,1.3059990408562407
288,4530.0,1.2220391400393216
289,4550.0,1.2274692392224025
290,4570.0,1.2770093384054835
291,4590.0,1.2274694375885644
292,4610.0,1.2443895367716453
293,4630.0,1.2105596359547262
294,4650.0,1.220829735137807
295,4670.0,1.2359298343208882
296,4690.0,1.208749933503969
297,4710.0,1.16828003268705
298,4730.0,1.2063301318701307
299,4750.0,1.2172002310532117
300,4770.0,1.2087503302362927
301,4790.0,1.1990804294193735
302,4810.0,1.1797505286024543
303,4830.0,1.1767306277855354
304,4850.0,1.0335707269686163
305,4870.0,0.8958528261516971
306,4890.0,1.122970925334778
307,4910.0,1.1386810245178591
308,4930.0,1.11875112370094
309,4950.0,1.1519712228840209
310,4970.0,1.1411013220671016
311,4990.0,1.0855214212501827
312,5010.0,1.0396215204332637
313,5011.87234,1.0431836565684858
314,5030.0,1.077671637681229
315,5050.0,1.0655917567950506
316,5070.0,1.096401875908872
317,5090.0,1.0577419950226936
318,5110.0,1.0661921141365154
319,5130.0,1.0365922332503368
320,5150.0,1.0100223523641583
321,5170.0,0.9725684714779799
322,5190.0,0.9822335905918014
323,5210.0,1.0076027097056228
324,5230.0,1.0317628288194445
325,5250.0,1.053512947933266
326,5270.0,0.9719650670470875
327,5290.0,1.049283186160909
328,5310.0,1.0722333052747306
329,5330.0,0.9949194243885522
330,5350.0,1.0480735435023736
331,5370.0,1.0408236626161953
332,5390.0,1.0202937817300168
333,5410.0,1.0027739008438383
334,5430.0,1.0118340199576599
335,5450.0,1.0299541390714815
336,5470.0,1.007004258185303
337,5490.0,1.0045843772991245
338,5510.0,0.995524496412946
339,5530.0,1.0088146155267677
340,5550.0,1.0142547346405892
341,5570.0,0.9979408537544108
342,5590.0,0.9810279728682323
343,5610.0,0.9991490919820539
344,5630.0,0.9888802110958753
345,5650.0,0.9906923302096969
346,5670.0,0.9707594493235185
347,5690.0,0.98888056843734
348,5710.0,0.9647186875511616
349,5730.0,1.0136458066649832
350,5750.0,0.9798199257788046
351,5754.399369999999,0.981281642662593
352,5770.0,0.9864651886248814
353,5790.0,0.9568674920033835
354,5810.0,0.9792167953818857
355,5830.0,0.9949230987603878
356,5850.0,0.97076140213889
357,5870.0,0.965324705517392
358,5890.0,0.8952560088958942
359,5910.0,0.9502243122743962
360,5930.0,0.9514326156528984
361,5950.0,0.9472049190314006
362,5970.0,0.9556622224099026
363,5990.0,0.9387485257884047
364,6010.0,0.9266678291669068
365,6030.0,0.9411651325454089
366,6050.0,0.9496224359239112
367,6070.0,0.9459987393024132
368,6090.0,0.9170050426809153
369,6110.0,0.9157963460594174
370,6130.0,0.8789506494379196
371,6150.0,0.8874069528164218
372,6170.0,0.8626412561949238
373,6190.0,0.896468559573426
374,6210.0,0.8886158629519281
375,6230.0,0.8650581663304301
376,6250.0,0.8378764697089324
377,6270.0,0.8692877730874344
378,6290.0,0.8777440764659366
379,6310.0,0.8553953798444386
380,6330.0,0.8620396832229408
381,6350.0,0.8541879866014429
382,6370.0,0.8499592899799451
383,6390.0,0.8626445933584471
384,6410.0,0.8469398967369492
385,6430.0,0.8511682001154514
386,6450.0,0.8433165034939536
387,6470.0,0.8421088068724556
388,6490.0,0.8233831102509578
389,6510.0,0.8409014136294598
390,6530.0,0.831236717007962
391,6550.0,0.7865370203864641
392,6570.0,0.7055953237649663
393,6590.0,0.8106996271434683
394,6606.93448,0.8245099524613272
395,6610.0,0.8270098842889224
396,6630.0,0.8221768860347616
397,6650.0,0.8209688877806008
398,6670.0,0.8046598895264401
399,6690.0,0.8137208912722793
400,6710.0,0.7895588930181185
401,6730.0,0.8028478947639578
402,6750.0,0.790162896509797
403,6770.0,0.7919748982556362
404,6790.0,0.7823099000014754
405,6810.0,0.7835179017473146
406,6830.0,0.7871419034931539
407,6850.0,0.7702289052389931
408,6870.0,0.7786859069848323
409,6890.0,0.7853299087306715
410,6910.0,0.7804979104765108
411,6930.0,0.77324891222235
412,6950.0,0.7696249139681892
413,6970.0,0.7744569157140284
414,6990.0,0.7696249174598677
415,7010.0,0.755127919205707
416,7030.0,0.7672089209515461
417,7050.0,0.7702289226973853
418,7070.0,0.7527119244432245
419,7090.0,0.7351939261890639
420,7110.0,0.7170729279349031
421,7130.0,0.7068039296807422
422,7150.0,0.7055959314265815
423,7170.0,0.7092199331724207
424,7190.0,0.6941189349182599
425,7210.0,0.7068039366640991
426,7230.0,0.7140529384099383
427,7250.0,0.7164689401557777
428,7270.0,0.7170729419016169
429,7290.0,0.704991943647456
430,7310.0,0.7182809453932952
431,7330.0,0.7194889471391345
432,7350.0,0.7225089488849737
433,7370.0,0.735193950630813
434,7390.0,0.7213009523766521
435,7410.0,0.7182809541224914
436,7430.0,0.7285499558683307
437,7450.0,0.72975795761417
438,7470.0,0.734589959360009
439,7490.0,0.7315699611058483
440,7510.0,0.7382149628516875
441,7530.0,0.7466709645975268
442,7550.0,0.749691966343366
443,7570.0,0.7442549680892052
444,7585.77575,0.7361549106288016
445,7590.0,0.7339859955380749
446,7610.0,0.7249261189766659
447,7630.0,0.712845242415257
448,7650.0,0.7013683658538482
449,7670.0,0.6753944892924393
450,7690.0,0.6868716127310305
451,7710.0,0.6759987361696216
452,7730.0,0.6753948596082127
453,7750.0,0.6705619830468038
454,7770.0,0.673583106485395
455,7790.0,0.6814352299239861
456,7810.0,0.6784153533625772
457,7830.0,0.6717704768011683
458,7850.0,0.6621066002397594
459,7870.0,0.6705627236783506
460,7890.0,0.6578778471169417
461,7910.0,0.6457969705555329
462,7930.0,0.647005093994124
463,7950.0,0.6403612174327151
464,7970.0,0.6590863408713062
465,7990.0,0.6578784643098974
466,8010.0,0.6627115877484885
467,8030.0,0.6621077111870796
468,8050.0,0.6615038346256708
469,8070.0,0.6651279580642618
470,8090.0,0.656671081502853
471,8110.0,0.6609002049414441
472,8130.0,0.6747933283800353
473,8150.0,0.6784174518186263
474,8170.0,0.6832495752572175
475,8190.0,0.6675446986958086
476,8210.0,0.6596918221343997
477,8230.0,0.6645249455729909
478,8250.0,0.663921069011582
479,8270.0,0.6711691924501731
480,8290.0,0.6639213158887642
481,8310.0,0.6415714393273554
482,8330.0,0.6379475627659466
483,8350.0,0.6379476862045377
484,8370.0,0.6415718096431288
485,8390.0,0.6228469330817199
486,8410.0,0.6379480565203111
487,8430.0,0.6107661799589021
488,8450.0,0.5969933033974932
489,8470.0,0.5963294268360844
490,8490.0,0.6017055502746755
491,8510.0,0.5703556737132667
492,8530.0,0.6003767971518578
493,8550.0,0.5371329205904489
494,8570.0,0.62103504402904
495,8590.0,0.6031561674676311
496,8610.0,0.6071422909062223
497,8630.0,0.6325124143448134
498,8650.0,0.6246605377834045
499,8670.0,0.5448656612219956
500,8690.0,0.6155997846605867
501,8709.6359,0.6399150408219776
502,8710.0,0.6403659122877926
503,8730.0,0.6397622658068409
504,8750.0,0.6077476193258893
505,8770.0,0.6397629728449377
506,8790.0,0.653052326363986
507,8810.0,0.6415756798830345
508,8830.0,0.6452000334020829
509,8850.0,0.6349323869211313
510,8870.0,0.5976627404401796
511,8890.0,0.633120093959228
512,8910.0,0.6445974474782764
513,8930.0,0.6319128009973247
514,8950.0,0.6343291545163731
515,8970.0,0.6349345080354215
516,8990.0,0.6313098615544699
517,9010.0,0.5892692150735183
518,9030.0,0.6186255685925666
519,9050.0,0.650640922111615
520,9070.0,0.6482252756306633
521,9090.0,0.6331236291497118
522,9110.0,0.6421849826687601
523,9130.0,0.6548703361878085
524,9150.0,0.6494346897068569
525,9170.0,0.6470180432259053
526,9190.0,0.6518513967449536
527,9210.0,0.619232750264002
528,9230.0,0.5822661037830503
529,9250.0,0.6018374573020987
530,9270.0,0.6113818108211471
531,9290.0,0.6095701643401955
532,9310.0,0.6144025178592438
533,9330.0,0.6137988713782923
534,9350.0,0.6113832248973406
535,9370.0,0.6026245784163891
536,9390.0,0.6107799319354374
537,9410.0,0.5941682854544859
538,9430.0,0.6113846389735341
539,9450.0,0.6020219924925826
540,9470.0,0.6150093460116309
541,9490.0,0.6156136995306792
542,9510.0,0.6036540530497276
543,9530.0,0.598701406568776
544,9550.0,0.5666267600878244
545,9570.0,0.5937481136068727
546,9590.0,0.6113874671259211
547,9610.0,0.6040178206449694
548,9630.0,0.605347174164018
549,9650.0,0.5975555276830663
550,9670.0,0.5957438812021147
551,9690.0,0.6053482347211631
552,9710.0,0.5984625882402115
553,9730.0,0.5938119417592598
554,9750.0,0.5902482952783081
555,9770.0,0.5927856487973565
556,9790.0,0.5849330023164049
557,9810.0,0.5979813558354533
558,9830.0,0.5912767093545016
559,9850.0,0.59544506287355
560,9870.0,0.5910964163925984
561,9890.0,0.5898277699116468
562,9910.0,0.5864461234306952
563,9930.0,0.5889224769497436
564,9950.0,0.588801830468792
565,9970.0,0.5889841839878404
566,9990.0,0.5858435375068887
567,10000.0,0.5833067142664128
568,10030.0,0.5756962459475223
569,10070.0,0.5639779548556682
570,10130.0,0.5781140182178871
571,10170.0,0.571590727126033
572,10220.0,0.5722556132612153
573,10280.0,0.5723176766234342
574,10320.0,0.5634993855315801
575,10380.0,0.5585474488937989
576,10430.0,0.5595743350289812
577,10480.0,0.5516622211641637
578,10520.0,0.5484019300723095
579,10580.0,0.5393419934345284
580,10630.0,0.5353558795697109
581,10680.0,0.5259937657048932
582,10720.0,0.5281694746130391
583,10780.0,0.523881537975258
584,10820.0,0.5156072468834039
585,10870.0,0.5125881330185862
586,10920.0,0.5011720191537686
587,10980.0,0.5011730825159875
588,11020.0,0.5035297914241333
589,11080.0,0.49767185478635223
590,11130.0,0.4950747409215346
591,11170.0,0.4907264498296805
592,11220.0,0.49000233596486287
593,11280.0,0.48154739932708174
594,11330.0,0.4802192854622641
595,11380.0,0.47756217159744646
596,11430.0,0.47188505773262884
597,11470.0,0.4775027666407748
598,11481.5362,0.4770151821034286
599,11530.0,0.4749676211270013
600,11570.0,0.46856698299592014
601,11620.0,0.46125968533206874
602,11670.0,0.4599323876682173
603,11730.0,0.46259143047159557
604,11770.0,0.45226379234051445
605,11830.0,0.44839983514389276
606,11870.0,0.4407301970128116
607,11920.0,0.4475578993489601
608,11980.0,0.4323979421523384
609,12030.0,0.44013164448848696
610,12070.0,0.43511900635740586
611,12120.0,0.43493970869355436
612,12180.0,0.4356667514969327
613,12230.0,0.4321644538330813
614,12270.0,0.42860281570200015
615,12320.0,0.4250405180381487
616,12370.0,0.42401522037429723
617,12430.0,0.4187622631776755
618,12480.0,0.41707196551382403
619,12530.0,0.41248366784997265
620,12580.0,0.4105523701861212
621,12620.0,0.40831873205504005
622,12670.0,0.4037894343911886
623,12720.0,0.4035501367273372
624,12780.0,0.4019811795307155
625,12830.0,0.38138488186686403
626,12880.0,0.3939505842030126
627,12920.0,0.38984494607193143
628,12980.0,0.3937729888753097
629,13020.0,0.3877943507442286
630,13080.0,0.38936739354760685
631,13130.0,0.38127409588375544
632,13180.0,0.379946798219904
633,13182.5674,0.37994380475146056
634,13230.0,0.3798892704598819
635,13280.0,0.3732477843726986
636,13320.0,0.37451779550295194
637,13380.0,0.370110812198332
638,13430.0,0.37144232611114864
639,13470.0,0.368001337241402
640,13520.0,0.3658298511542186
641,13570.0,0.3597913650670353
642,13630.0,0.3584053817624153
643,13670.0,0.35907139289266865
644,13730.0,0.3591354095880487
645,13770.0,0.357566420718302
646,13820.0,0.35756893463111866
647,13880.0,0.3538879513264987
648,13930.0,0.34434646523931534
649,13970.0,0.34289847636956866
650,14020.0,0.3380079902823854
651,14080.0,0.34018600697776535
652,14120.0,0.3351740181080187
653,14180.0,0.3378950348033988
654,14230.0,0.3331255487162154
655,14280.0,0.3277520626290321
656,14330.0,0.33331257654184876
657,14380.0,0.3343410904546654
658,14420.0,0.32486010158491874
659,14480.0,0.3312661182802988
660,14520.0,0.3271601294105521
661,14570.0,0.32921664332336875
662,14620.0,0.3240851572361855
663,14670.0,0.32281867114900215
664,14720.0,0.3184121850618188
