,lambda (Angstroms),Total Flux (erg/s/cm^2/Angstrom)
0,1017.9,1.7337362703303794
1,1038.0,2.107574031854394
2,1058.1,1.5967317933784086
3,1078.5,1.4918684767162145
4,1096.4782,1.374659343792385
5,1098.6,1.360809996982711
6,1118.7,1.4195239036306218
7,1138.8,1.3930978102785323
8,1158.9,1.419071716926443
9,1179.3,1.7135322490467109
10,1199.4,2.5973361556946215
11,1219.5,6.058300062342532
12,1239.6,3.2631439689904433
13,1258.92541,2.18175162342689
14,1259.7,2.1384172083004014
15,1280.1,1.7391435302007765
16,1300.2,1.7310196120732049
17,1326.52,1.590560670525061
18,1345.73,1.576956040314581
19,1364.38,1.5150009620519336
20,1383.02,1.5842858757883547
21,1401.66,1.8094007895247757
22,1420.87,1.5217561593142956
23,1439.52,1.4218810810516482
24,1445.43977,1.4127902051444303
25,1458.16,1.3932543591804163
26,1476.8,1.379126876126319
27,1495.45,1.4169793997873212
28,1514.65,1.478242292778809
29,1533.3,1.7938148164398116
30,1551.94,2.3650973333857146
31,1570.59,1.5350198570467166
32,1589.79,1.3414027500382044
33,1608.44,1.309445273699207
34,1627.08,1.2936477906451098
35,1645.73,1.2747203143061123
36,1659.58691,1.2558473492949989
37,1664.37,1.2493530752099637
38,1683.58,1.15386727935201
39,1702.22,1.1194086882644378
40,1720.86,1.126730097176866
41,1739.51,1.1201715551284097
42,1758.72,1.096355759270456
43,1777.36,1.069227168182884
44,1796.0,1.056158577095312
45,1814.65,1.0434400350468558
46,1833.86,1.030594239188902
47,1852.5,1.0670656481013299
48,1871.14,1.075267057013758
49,1889.79,1.1750885149653019
50,1905.46072,1.2995979415035082
51,1908.43,1.3231565933883396
52,1927.64,1.0860751632011245
53,1946.28,0.9750453360959872
54,1964.93,0.9206304457788838
55,1983.57,0.8966846186737464
56,2002.78,0.8964661884865315
57,2021.42,0.8701543613813942
58,2040.07,0.8608084710642907
59,2058.71,0.8672346439591534
60,2077.35,0.874288816854016
61,2096.56,0.8474743866668012
62,2115.21,0.8220694963496976
63,2133.85,0.8009026692445604
64,2152.49,0.7845178421394231
65,2171.7,0.7814474119522081
66,2187.7616199999998,0.767069557570707
67,2190.35,0.7647819283222937
68,2208.99,0.7552968709917673
69,2227.63,0.7611328136612411
70,2246.84,0.7404316290411009
71,2265.49,0.7454156221090024
72,2284.13,0.755362564778476
73,2302.77,0.7684945074479496
74,2321.42,0.7858245005158511
75,2340.62,0.771079265497283
76,2359.27,0.7595292585651845
77,2377.91,0.7499062012346581
78,2396.56,0.7492421943025596
79,2415.76,0.7599499592839917
80,2434.41,0.762520952351893
81,2453.05,0.7458028950213668
82,2471.7,0.7500548880892681
83,2490.34,0.7408258307587418
84,2509.55,0.7333446461386016
85,2511.88643,0.7324416538816938
86,2528.19,0.7260266204199037
87,2546.83,0.7150342621334813
88,2565.48,0.7020678843415404
89,2584.69,0.6952094142405655
90,2603.33,0.6905440559541431
91,2621.97,0.6834746976677208
92,2640.62,0.6613523198757799
93,2659.83,0.645899849774805
94,2678.47,0.6488974914883826
95,2697.11,0.6578511332019602
96,2715.76,0.6729997554100193
97,2734.4,0.697604397123597
98,2753.61,0.728311927022622
99,2772.25,0.7679175687361997
100,2790.9,0.9317531909442588
101,2809.54,0.8846388326578365
102,2828.75,0.7591003625568614
103,2847.39,0.7061600042704391
104,2866.04,0.6699716264784983
105,2884.0315,0.6469191886775233
106,2884.68,0.6460895072378121
107,2903.32,0.6283917631572872
108,2922.53,0.6305699963232267
109,2941.18,0.6421412518435169
110,2959.82,0.6377885077629919
111,2978.46,0.629949763682467
112,2997.67,0.6095579968484066
113,3016.32,0.5861502523686968
114,3034.96,0.5859815082881717
115,3053.6,0.5834417642076467
116,3072.81,0.5924799973735864
117,3091.46,0.5900162528938765
118,3110.1,0.6045655088133515
119,3128.74,0.6204867647328265
120,3147.39,0.6091870202531167
121,3166.59,0.6149152538182412
122,3185.24,0.6296765093385313
123,3203.88,0.6213677652580063
124,3222.53,0.6107150207782964
125,3241.73,0.5999362543434209
126,3260.38,0.601148509863711
127,3279.02,0.5973017657831861
128,3297.67,0.5878920213034763
129,3311.31121,0.5779291488845547
130,3316.31,0.5742746622522823
131,3335.52,0.5746540033390289
132,3354.16,0.5678557793857211
133,3372.8,0.5613025554324134
134,3391.45,0.5596923238482294
135,3410.66,0.565806664934976
136,3429.3,0.5872574409816681
137,3447.94,0.5536922170283604
138,3466.59,0.5500599854441764
139,3485.8,0.5503613265309231
140,3504.44,0.5420071025776152
141,3523.08,0.5272788786243074
142,3541.73,0.5164866470401234
143,3560.37,0.5141274230868156
144,3579.58,0.5175227641735624
145,3598.22,0.5173815402202544
146,3616.87,0.5111403086360704
147,3635.51,0.5124520846827627
148,3654.72,0.5092164257695093
149,3673.36,0.5015132018162015
150,3692.01,0.49981197023201746
151,3710.65,0.5032137462787097
152,3729.29,0.5953525223254018
153,3748.5,0.4976558634121485
154,3767.15,0.49741063182796447
155,3785.79,0.48915540787465667
156,3801.8939600000003,0.4795628180455196
157,3804.43,0.4780525871476346
158,3823.64,0.4850539825935188
159,3842.29,0.487716716329372
160,3860.93,0.5205374561061176
161,3879.57,0.513690195882863
162,3898.78,0.4955135913287472
163,3917.43,0.49168432506460047
164,3936.07,0.478964064841346
165,3954.71,0.49781380461809155
166,3973.36,0.5113935383539447
167,3992.56,0.48960793984072126
168,4011.21,0.4873746735765745
169,4029.85,0.49026341335332
170,4048.5,0.4932101470891732
171,4067.7,0.5134995485759497
172,4086.35,0.520639282311803
173,4104.99,0.5458930220885485
174,4123.64,0.5235537558244017
175,4142.28,0.5137654956011474
176,4161.49,0.5151228910470315
177,4180.13,0.526774630823777
178,4198.77,0.5202963706005225
179,4217.42,0.5292951043363757
180,4236.63,0.5540344997822599
181,4255.27,0.5611192395590056
182,4273.91,0.5707339793357511
183,4292.56,0.5941377130716042
184,4311.77,0.6226241085174885
185,4330.41,0.682491848294234
186,4349.05,0.7181105880709795
187,4365.15832,0.6947666817059355
188,4367.7,0.691085735428095
189,4386.34,0.629732176056375
190,4405.55,0.6165278136351979
191,4424.19,0.6122082542634779
192,4442.84,0.6041756983470307
193,4461.48,0.6193751389753107
194,4480.69,0.6432947765541336
195,4499.33,0.6606182171824136
196,4517.98,0.6845996612659663
197,4536.62,0.6880791018942463
198,4555.83,0.7009257394730692
199,4574.47,0.7071651801013492
200,4593.12,0.704471624184902
201,4611.76,0.700010064813182
202,4630.4,0.717671505441462
203,4649.61,0.6965771430202848
204,4668.26,0.7021335871038377
205,4686.9,0.7284370277321177
206,4705.54,0.6908604683603976
207,4724.75,0.7029051059392205
208,4743.4,0.6995525500227733
209,4762.04,0.7165899906510533
210,4780.68,0.7552424312793333
211,4799.33,0.8035398753628861
212,4818.53,0.8800545094864363
213,4837.18,1.0066799535699889
214,4855.82,1.304796394198269
215,4874.47,1.2216828382818217
216,4893.67,1.044769472405372
217,4912.32,0.9694859164889246
218,4930.96,0.9414363571172046
219,4949.6,1.0314887977454845
220,4968.81,1.0392554353243075
221,4987.46,0.9926448794078603
222,5006.1,3.20881832003614
223,5011.87234,2.532787636768805
224,5024.74,1.0257856541092636
225,5043.39,0.900949393124943
226,5062.6,0.8607743645185731
227,5081.24,0.8366190993846462
228,5099.88,0.8538878342507193
229,5118.53,0.8772855732663987
230,5137.74,0.9132295446600287
231,5156.38,0.9431232795261019
232,5175.02,0.9682330143921749
233,5193.67,0.9982297534078542
234,5212.31,0.9848524882739274
235,5231.52,1.0066314596675574
236,5250.16,1.0074791945336306
237,5268.81,1.0525369335493098
238,5287.45,1.079914668415383
239,5306.66,1.073742639809013
240,5325.3,1.060980374675086
241,5343.95,1.0216081136907653
242,5362.59,1.0201858485568387
243,5381.8,0.9970018199504685
244,5400.44,0.9877875548165418
245,5419.09,1.0050592938322211
246,5437.73,0.9994490286982941
247,5456.37,0.9907007635643672
248,5475.58,0.9987207349579973
249,5494.23,1.0023834739736766
250,5512.87,1.0069382088397496
251,5531.51,1.026455943705823
252,5550.72,1.019703915099453
253,5569.37,1.0189816541151324
254,5588.01,1.0143493889812054
255,5606.65,1.0074171238472784
256,5625.3,1.0053548628629578
257,5644.5,1.0088728301069816
258,5663.15,1.010130569122661
259,5681.79,1.0213183039887341
260,5700.44,1.0105360430044135
261,5719.64,1.0159540102484372
262,5738.29,1.0028807492641165
263,5754.399369999999,1.0242262996122626
264,5756.93,1.0275811086143565
265,5775.58,1.0632708196013285
266,5794.78,1.1345011118774606
267,5813.43,1.1243908228644326
268,5832.07,1.0833405232825106
269,5850.71,1.1081602237005888
270,5869.36,1.1494099346875606
271,5888.57,1.1290902375325866
272,5907.21,1.1072399379506648
273,5925.85,1.0766496383687427
274,5944.5,1.0877393493557146
275,5963.71,1.0973896522007405
276,5982.35,1.0766293526188186
277,6000.99,1.077509053036897
278,6019.64,1.078418764023869
279,6038.28,1.079358464441947
280,6057.49,1.0803587672869728
281,6076.13,1.0813384677050508
282,6094.78,1.0823481786920228
283,6113.42,1.083397879110101
284,6132.63,1.0844881819551269
285,6151.27,1.085577882373205
286,6169.92,1.0866975933601768
287,6188.56,1.087827293778255
288,6207.77,1.0890275966232807
289,6226.41,1.090207297041359
290,6245.06,1.091417008028331
291,6263.7,1.0926567084464092
292,6282.34,1.0939164088644873
293,6301.55,1.0952267117095131
294,6320.2,1.0965364226964849
295,6338.84,1.0978661231145632
296,6357.48,1.0992258235326413
297,6376.69,1.100636126377667
298,6395.33,1.1020358267957453
299,6413.98,1.1034755377827172
300,6432.62,1.1049152382007954
301,6451.27,1.1064049491877672
302,6470.47,1.1079352414638994
303,6489.12,1.1094649524508713
304,6507.76,1.1110046528689492
305,6526.41,1.1125843638559212
306,6545.61,1.1142146561320534
307,6564.26,1.1158343671190254
308,6582.9,1.1174640675371035
309,6601.54,1.1191337679551816
310,6606.93448,1.1196224732592646
311,6620.75,1.120859553350303
312,6639.4,1.1225596667802724
313,6658.04,1.1242597801494214
314,6676.68,1.1260098935185705
315,6695.33,1.1277600069485398
316,6714.54,1.1296101237844496
317,6733.18,1.1314102371535986
318,6751.82,1.1332403505227477
319,6770.47,1.135110463952717
320,6789.68,1.1370305807886267
321,6808.32,1.1389406941577758
322,6826.96,1.1408608075269249
323,6845.61,1.1428109209568942
324,6864.25,1.1447910343260435
325,6883.46,1.146841151161953
326,6902.1,1.148861264531102
327,6920.75,1.1509113779610713
328,6939.39,1.1529714913302205
329,6958.6,1.1551216081661302
330,6977.24,1.157241721535279
331,6995.89,1.1593718349652486
332,7014.53,1.1615419483343978
333,7033.74,1.1637920651703073
334,7052.38,1.1659821785394564
335,7071.03,1.1682322919694257
336,7089.67,1.1704724053385749
337,7108.31,1.172742518707724
338,7127.52,1.1751226355436335
339,7146.17,1.1774527489736029
340,7164.81,1.1798028623427521
341,7183.45,1.1821629757119012
342,7202.66,1.1846430925478106
343,7221.3,1.18706320591696
344,7239.95,1.1895133193469292
345,7258.59,1.1919634327160784
346,7277.24,1.1944635461460478
347,7296.44,1.197053662921137
348,7315.09,1.1995937763511064
349,7333.73,1.2021538897202555
350,7352.38,1.204734003150225
351,7371.58,1.2074341199253142
352,7390.23,1.2100642333552836
353,7408.87,1.2127243467244329
354,7427.51,1.2154044600935816
355,7446.72,1.2181945769294913
356,7465.37,1.2209346903594607
357,7484.01,1.2236748037286098
358,7502.65,1.2264549170977588
359,7521.3,1.2292650305277284
360,7540.51,1.232175147363638
361,7559.15,1.235035260732787
362,7577.79,1.2379053741019361
363,7585.77575,1.2391514565857633
364,7596.44,1.2408200085866075
365,7615.65,1.24383826940459
366,7634.29,1.246796285107203
367,7652.93,1.2497743008098159
368,7671.58,1.2527823208126985
369,7690.22,1.2558103365153115
370,7709.43,1.258958597333294
371,7728.07,1.2620366130359069
372,7746.72,1.2651546330387895
373,7765.36,1.2682826487414025
374,7784.57,1.271530909559385
375,7803.21,1.274708925261998
376,7821.86,1.2779169452648806
377,7840.5,1.2811549609674937
378,7859.71,1.2845032217854762
379,7878.35,1.2877912374880889
380,7897.0,1.2910992574909717
381,7915.64,1.2944272731935846
382,7934.28,1.2977952888961977
383,7953.49,1.3012835497141801
384,7972.13,1.3046915654167932
385,7990.78,1.3081295854196757
386,8000.0,1.3098335502682859
387,8167.98,1.3420657861977345
388,8339.48,1.3697395358220974
389,8514.59,1.399534837843801
390,8693.37,1.4315917180644633
391,8709.6359,1.434666893067968
392,8875.9,1.4662334779869732
393,9062.27,1.5035030048687845
394,9252.55,1.5435873471721115
395,9446.83,1.5867366157378588
396,9645.19,1.6331509090912746
397,9847.71,1.683130325757607
398,10000.0,1.7227620145457678
399,10054.5,1.73694517873601
400,10265.6,1.7949158498670936
401,10481.1,1.8706519542192894
402,10701.2,1.9837037387571932
403,10925.9,2.110981203480805
404,11155.3,2.2543744718724232
405,11389.6,2.4161937908966435
406,11481.5362,2.4864456773598396
407,11628.7,2.5990664167851243
408,11872.9,2.8061657063485987
409,12122.2,3.040857094097059
410,12376.7,3.3074008172498197
411,12636.6,3.4850173502455077
412,12901.9,3.564546693084122
413,13172.8,3.6540993202042906
414,13182.5674,3.6576417206021254
415,13449.4,3.7547172368113113
416,13731.8,3.8668865177194838
417,14020.1,3.991516467031899
418,14314.5,4.08298778537243
419,14615.1,4.179470823053014
420,14922.0,4.281805930385586
421,15135.6125,4.3558083962318115
422,15235.3,4.390604737355921
423,15555.2,4.506643839085093
424,15881.8,4.629753972329068
425,16215.3,4.760496361909183
426,16555.7,4.8757210078254385
427,16903.3,4.873479747309841
428,17258.3,4.872783805183727
429,17378.0083,4.87306424702173
430,17620.6,4.87494520588859
431,17990.6,4.879363154431789
432,18368.4,4.885401075944276
433,18754.1,4.893110123925659
434,19147.8,4.902461451875544
435,19549.9,4.916129673792355
436,19952.6231,4.9347158754940805
437,19960.4,4.935154207256498
438,20379.5,4.960888366710433
439,20807.4,4.989283899591223
440,21244.3,5.020355155294932
441,21690.4,5.054236483217625
442,22145.8,5.090930058057335
443,22610.8,5.130552403908159
444,22908.6765,5.157281905108246
445,23085.6,5.1761722959534335
446,23570.3,5.230101384667681
447,24065.2,5.287376080365394
448,24570.5,5.348074140046248
449,25086.4,5.412323320709918
450,25613.2,5.480245257855917
451,26151.0,5.551953829984084
452,26302.679900000003,5.572841746803203
453,26700.1,5.63346899522938
454,27260.7,5.699822027459923
455,27833.1,5.674597852734206
456,28417.5,5.650597196358055
457,29014.2,5.627806146290208
458,29623.4,5.606285427836492
459,30199.5172,5.587497431895663
460,30245.4,5.586350769351918
461,30880.5,5.572158626316895
462,31528.9,5.559341066021023
463,32190.9,5.547896462511049
464,32866.8,5.53784318983372
465,33556.9,5.529199622035784
466,34261.5,5.521974133163988
467,34673.685,5.518645807528751
468,34980.9,5.515482164219483
469,35715.4,5.509495175944698
470,36465.3,5.504917154832021
471,37231.0,5.482841710418129
472,38012.7,5.462690647471364
473,38810.9,5.4445634779125704
474,39625.8,5.42839200651009
475,39810.7171,5.425242156253017
476,40457.8,5.405475406295629
477,41307.3,5.381836334261815
478,42174.7,5.359961895083321
479,43060.2,5.339901190803223
480,43964.4,5.321621527550752
481,44887.5,5.305142007368982
482,45708.818999999996,5.289964710215461
483,45830.0,5.285812810742376
484,46792.3,5.252189509421195
485,47774.8,5.2197667020346605
486,48777.9,5.188536279551778
487,49802.1,5.1585731056838
488,50847.8,5.129859071399731
489,51915.5,5.102409040410823
490,52480.746,5.0888577916748226
491,53005.6,5.066317265276116
492,54118.5,5.020336745298737
493,55254.9,4.975278972900234
494,56415.1,4.931107174645444
495,57599.6,4.887846728142429
496,58809.1,4.845485162042474
497,60043.9,4.804045702910415
498,60255.9586,4.797229802918351
499,61304.6,4.751919282399931
500,62591.8,4.6980876999761865
501,63906.1,4.644907662857225
502,65247.9,4.592329046250498
503,66617.9,4.540421631769043
504,67000.0,4.526412099837281
505,68016.7,4.485453787327503
506,69242.2916,4.437563681639615
507,69444.9,4.427759618897698
508,70903.0,4.358894044948306
509,71559.6261,4.32862420826564
510,72391.8,4.283223923294615
511,73911.8,4.201973408799715
512,73954.515,4.199744218315891
513,75463.8,4.076659059449267
514,76429.5536,3.9994911812136813
515,77048.3,3.929266487179016
516,78666.1,3.7472843148884425
517,78987.42450000001,3.7114609947559893
518,80317.8,3.5515649223299937
519,81630.8998,3.394978157420867
520,82004.3,3.3531854686770783
521,83726.1,3.1620674409152465
522,84362.84430000001,3.0919558240970755
523,85484.1,3.010983308372899
524,87186.21900000001,2.8895241849350954
525,87279.1,2.8847446852007006
526,89111.7,2.7919650421723667
527,90104.0836,2.7425251125609553
528,90982.8,2.705594799482403
529,92893.1,2.626765298029675
530,93119.6005,2.6175901206910273
531,94843.6,2.584071612299585
532,96236.03790000001,2.5580008817572044
533,96835.1,2.5532598078541215
534,98868.3,2.5385950962592227
535,99456.7731,2.5347481392320463
536,100944.0,2.533210503610418
537,102785.297,2.532484216970382
538,103064.0,2.53204608744896
539,105228.0,2.5300263273922914
540,106225.216,2.5296917849206855
541,107437.0,2.533865699631957
542,109693.0,2.5429723089347296
543,109780.26,2.5433733508678986
544,111996.0,2.553140948705355
545,113454.28,2.560357929255586
546,114348.0,2.564421336387441
547,116749.0,2.5766229844598247
548,117251.259,2.5794280486216747
549,119200.0,2.5906456714661616
550,121175.312,2.6029825107627182
551,121703.0,2.604549376162641
552,124259.0,2.613340735661997
553,125230.691,2.617124913209981
554,126868.0,2.619487947535085
555,129421.79100000001,2.624301678568315
556,129532.0,2.6239780284057486
557,132252.0,2.6165940932787124
558,133753.155,2.612957731235239
559,135028.0,2.6045690505847956
560,137864.0,2.5870167302071447
561,138229.477,2.5848916935403246
562,140758.0,2.562558583987842
563,142855.609,2.5447932752336935
564,143714.0,2.5337226275117266
565,146731.0,2.4958935788607652
566,147636.563,2.4848470138003105
567,149812.0,2.458946400367485
568,152577.522,2.426930229429871
569,152958.0,2.4223787979749876
570,156170.0,2.3849681445350543
571,157683.84,2.367807265376814
572,159449.0,2.3489151906404664
573,162797.0,2.31407821372511
574,162961.05099999998,2.312417923398716
575,166215.0,2.2777299450530064
576,168414.875,2.254895485431729
577,169705.0,2.2439003093346974
578,173268.0,2.214480086867871
579,174051.222,2.2082146894046732
580,176907.0,2.1861017077469453
581,179876.201,2.1638548666717403
582,180621.0,2.1575841817681742
583,184414.0,2.126568367313085
584,185896.125,2.1147893184838855
585,188286.0,2.099907559855565
586,192117.51799999998,2.076924409530659
587,192239.0,2.0760685522967424
588,196276.0,2.0484999051916506
589,198547.123,2.03346129534842
590,200397.0,2.0214095323445584
591,204605.0,1.9948481518097423
592,205191.907,1.9912584102672255
593,208901.0,1.963335292773644
594,212059.073,1.9401535559335128
595,213287.0,1.9313625047002145
596,217766.0,1.9000975993005742
597,219156.062,1.8906422324150673
598,222338.0,1.8692198871403871
599,226490.56699999998,1.8419546310758133
600,227006.0,1.8377382227344499
601,231773.0,1.7995213268504964
602,234070.535,1.7810706737405786
603,236639.0,1.7611696085475848
604,241608.0,1.7208542449660222
605,241904.18300000002,1.7184943914050903
606,246681.0,1.6788028515643016
607,250000.0,1.651699901884315
608,251861.0,1.6363455349374836
609,257149.0,1.5934580908816984
610,262549.0,1.5504033363617966
611,268061.0,1.5072032713777785
612,273690.0,1.4638289267124955
613,275422.87,1.4506987900511306
614,279437.0,1.4211114008353922
615,285304.0,1.3786068503468836
616,291295.0,1.3359416437716911
617,297411.0,1.2931219935607285
618,303656.0,1.2501297495176509
619,310032.0,1.2069643365442864
620,316227.766,1.1657079434395754
621,316541.0,1.163822458493823
622,323188.0,1.1245316506524783
623,329974.0,1.0851332488153533
624,336902.0,1.04561980850772
625,343976.0,1.0059747370966061
626,351199.0,0.9661945901072821
627,358573.0,0.9262730712232625
628,363078.055,0.9022922946219556
629,366102.0,0.8887216132826673
630,373789.0,0.8549019877224066
631,381638.0,0.8210416857811439
632,389651.0,0.7871310818245458
633,397832.0,0.7531679245839458
634,406186.0,0.7191296499735103
635,414714.0,0.6850209451760727
636,416869.38300000003,0.6765563363731343
637,423422.0,0.65605406214193
638,432313.0,0.6288507270598405
639,441390.0,0.6016926967437763
640,450658.0,0.5745643987412112
641,460121.0,0.5476577750901245
642,469782.0,0.521222282319
