,lambda (Angstroms),Total Flux (erg/s/cm^2/Angstrom)
0,1017.9,12.036644778200309
1,1038.0,14.470837733437952
2,1058.1,10.954730688675594
3,1078.5,10.233423538767532
4,1096.4782,9.427001051695557
5,1098.6,9.331824910142862
6,1118.7,9.737502861312036
7,1138.8,9.557170812481212
8,1158.9,9.737458763650388
9,1179.3,11.766026385732536
10,1199.4,17.851604336901712
11,1219.5,33.49378228807089
12,1239.6,18.031960239240064
13,1258.92541,12.050772718260173
14,1259.7,11.811039100538993
15,1280.1,9.60212069226567
16,1300.2,9.557042260584602
17,1326.52,8.77993431422412
18,1345.73,8.704605813100073
19,1364.38,8.36174726828157
20,1383.02,8.744938722682809
21,1401.66,9.990260177084048
22,1420.87,8.398891675960003
23,1439.52,7.846273131141499
24,1445.43977,7.795952372194119
25,1458.16,7.687824426036781
26,1476.8,7.609635646700812
27,1495.45,7.818956868019707
28,1514.65,8.157768125356048
29,1533.3,9.903429346674942
30,1551.94,13.063660567338973
31,1570.59,8.471561788657867
32,1589.79,7.400393045994209
33,1608.44,7.223464267313103
34,1627.08,7.135975487977134
35,1645.73,7.031126709296029
36,1659.58691,6.926628376459742
37,1664.37,6.890559904169384
38,1683.58,6.3617690910436195
39,1702.22,6.170568005324501
40,1720.86,6.210476919605382
41,1739.51,6.1736458386686035
42,1758.72,6.041215025542838
43,1777.36,5.89046393982372
44,1796.0,5.817422854104601
45,1814.65,5.746261773167822
46,1833.86,5.674510960042056
47,1852.5,5.875479874322938
48,1871.14,5.920088788603819
49,1889.79,6.4714577076670405
50,1905.46072,7.1593879516369805
51,1908.43,7.289733371528062
52,1927.64,5.97911152954496
53,1946.28,5.365490038937724
54,1964.93,5.064958542165998
55,1983.57,4.932867051558762
56,2002.78,4.93192520957566
57,2021.42,4.786673718968423
58,2040.07,4.7351622221966965
59,2058.71,4.77076073158946
60,2077.35,4.8097492409822244
61,2096.56,4.661537398999123
62,2115.21,4.521065902227397
63,2133.85,4.4038444116201605
64,2152.49,4.312942921012923
65,2171.7,4.295411079029821
66,2187.7616199999998,4.215446175138204
67,2190.35,4.202562450025171
68,2208.99,4.14820161140036
69,2227.63,4.17793077277555
70,2246.84,4.060640214300088
71,2265.49,4.084539380590179
72,2284.13,4.135138541965369
73,2302.77,4.202467703340559
74,2321.42,4.2918768696306495
75,2340.62,4.205286306240287
76,2359.27,4.138855472530378
77,2377.91,4.082884633905568
78,2396.56,4.075813800195658
79,2415.76,4.130603236805295
80,2434.41,4.140742403095387
81,2453.05,4.045071564470575
82,2471.7,4.063170730760666
83,2490.34,4.007469892135856
84,2509.55,3.9608193336603947
85,2511.88643,3.9551448623359224
86,2528.19,3.9155373807339613
87,2546.83,3.8500938350405605
88,2565.48,3.772800287444964
89,2584.69,3.72766663332639
90,2603.33,3.6940130876329897
91,2621.97,3.646769541939589
92,2640.62,3.5182459943439923
93,2659.83,3.4248223402254188
94,2678.47,3.430998794532018
95,2697.11,3.468535248838618
96,2715.76,3.5378117012430215
97,2734.4,3.6556081555496207
98,2753.61,3.8032045014310465
99,2772.25,3.995510955737646
100,2790.9,4.840277408142049
101,2809.54,4.58566386244865
102,2828.75,3.923880208330075
103,2847.39,3.6413366626366748
104,2866.04,3.4464231150410782
105,2884.0315,3.3201992820291233
106,2884.68,3.3156496901805528
107,2903.32,3.2088296176171385
108,2922.53,3.199449542834779
109,2941.18,3.2366694702324352
110,2959.82,3.1912993976690207
111,2978.46,3.1271893251056064
112,2997.67,2.9990492503232464
113,3016.32,2.8573391777209025
114,3034.96,2.8290391051574884
115,3053.6,2.787579032594074
116,3072.81,2.798638957811714
117,3091.46,2.75362888520937
118,3110.1,2.793498812645956
119,3128.74,2.8582587400825417
120,3147.39,2.7966186674801983
121,3166.59,2.813338592736767
122,3185.24,2.8714785201344237
123,3203.88,2.823518447571009
124,3222.53,2.765008374968666
125,3241.73,2.7058483002252345
126,3260.38,2.7014582276228913
127,3279.02,2.6741081550594767
128,3297.67,2.621768082457134
129,3311.31121,2.5698523942997964
130,3316.31,2.5508276573584676
131,3335.52,2.5423362278078177
132,3354.16,2.5021548406748604
133,3372.8,2.463173453541903
134,3391.45,2.4460620656647754
135,3410.66,2.4624306361141257
136,3429.3,2.5456892489811684
137,3447.94,2.388967861848211
138,3466.59,2.3628764739710837
139,3485.8,2.3534350444204337
140,3504.44,2.3070736572874764
141,3523.08,2.233722270154519
142,3541.73,2.1775508822773912
143,3560.37,2.157349495144434
144,3579.58,2.161028065593784
145,3598.22,2.1499666784608267
146,3616.87,2.1133852905836994
147,3635.51,2.1082639034507418
148,3654.72,2.083902473900092
149,3673.36,2.0415710867671346
150,3692.01,2.023949698890007
151,3710.65,2.02374831175705
152,3729.29,2.3730769246240926
153,3748.5,1.960285495073443
154,3767.15,1.9386341071963153
155,3785.79,1.8855827200633577
156,3801.8939600000003,1.830643173135585
157,3804.43,1.8219913722533974
158,3823.64,1.8271402405666488
159,3842.29,1.815719141870248
160,3860.93,1.9155380437629606
161,3879.57,1.866896945655673
162,3898.78,1.7769758139689245
163,3917.43,1.7403347152725237
164,3936.07,1.6725436171652361
165,3954.71,1.7152825190579486
166,3973.36,1.7379414203615478
167,3992.56,1.6390702892639126
168,4011.21,1.6078291905675117
169,4029.85,1.5934080924602243
170,4048.5,1.5787069937638234
171,4067.7,1.6178358626661884
172,4086.35,1.6144647639697873
173,4104.99,1.6658836658625
174,4123.64,1.570882567166099
175,4142.28,1.5153414690588116
176,4161.49,1.4924503373720632
177,4180.13,1.4996592392647756
178,4198.77,1.454618141157488
179,4217.42,1.4529670424610874
180,4236.63,1.492215910774339
181,4255.27,1.4829848126670513
182,4273.91,1.4894937145597638
183,4292.56,1.531102615863363
184,4311.77,1.5835414841766144
185,4330.41,1.713900386069327
186,4349.05,1.7799292879620396
187,4365.15832,1.702021075514148
188,4367.7,1.6897284246441953
189,4386.34,1.5181790527401655
190,4405.55,1.4652297000429333
191,4424.19,1.4347903281389034
192,4442.84,1.396070956571835
193,4461.48,1.4111815846678053
194,4480.69,1.444432231970573
195,4499.33,1.462162860066543
196,4517.98,1.4934534884994748
197,4536.62,1.4790441165954449
198,4555.83,1.4837747638982128
199,4574.47,1.4746453919941829
200,4593.12,1.4468060204271145
201,4611.76,1.4156966485230846
202,4630.4,1.429267276619055
203,4649.61,1.3648979239218226
204,4668.26,1.3542985523547544
205,4686.9,1.3830991804507244
206,4705.54,1.2905598085466947
207,4724.75,1.2914604558494625
208,4743.4,1.2644710842823939
209,4762.04,1.2742917123783641
210,4780.68,1.3212723404743345
211,4799.33,1.382842968907266
212,4818.53,1.4890336158730724
213,4837.18,1.675434244306004
214,4855.82,2.1364448724019742
215,4874.47,1.9658655008349057
216,4893.67,1.6506761478007121
217,4912.32,1.5048567762336438
218,4930.96,1.435717404329614
219,4949.6,1.5459480324255843
220,4968.81,1.529308679728352
221,4987.46,1.4345293081612835
222,5006.1,4.564959936257254
223,5011.87234,3.5941045681448287
224,5024.74,1.4298806514827835
225,5043.39,1.2325614061986825
226,5062.6,1.155302183576292
227,5081.24,1.1021829378875176
228,5099.88,1.104293692198743
229,5118.53,1.113634446914642
230,5137.74,1.1371752242922515
231,5156.38,1.152525978603477
232,5175.02,1.1610267329147026
233,5193.67,1.1744374876306014
234,5212.31,1.136588241941827
235,5231.52,1.1389090193194364
236,5250.16,1.117949773630662
237,5268.81,1.1455305283465609
238,5287.45,1.1525912826577864
239,5306.66,1.136232060035396
240,5325.3,1.1162728143466214
241,5343.95,1.0685635690625204
242,5362.59,1.0609743233737459
243,5381.8,1.0306551007513554
244,5400.44,1.0152358550625808
245,5419.09,1.0271066097784798
246,5437.73,1.0154773640897052
247,5456.37,1.0007581184009309
248,5475.58,1.0028888957785405
249,5494.23,1.0007596504944392
250,5512.87,0.9995044048056648
251,5531.51,1.0130411591168904
252,5550.72,1.0003449364944998
253,5569.37,0.9938156912103988
254,5588.01,0.9835384455216243
255,5606.65,0.9711091998328498
256,5625.3,0.9634599545487488
257,5644.5,0.961034731521685
258,5663.15,0.9566054862375838
259,5681.79,0.9615892405488093
260,5700.44,0.9458159952647083
261,5719.64,0.9451597722376444
262,5738.29,0.9274805269535432
263,5754.399369999999,0.9424627201095845
264,5756.93,0.9448164396859531
265,5775.58,0.9719823619194601
266,5794.78,1.0310043408408187
267,5813.43,1.015746263074326
268,5832.07,0.9727551842771447
269,5850.71,0.9892211054799637
270,5869.36,1.0200820277134708
271,5888.57,0.9958600076655174
272,5907.21,0.9707279288683364
273,5925.85,0.9381998500711554
274,5944.5,0.9422537723046623
275,5963.71,0.9447987522567092
276,5982.35,0.9213256734595281
277,6000.99,0.905150594662347
278,6019.64,0.8943415168958542
279,6038.28,0.905882438098673
280,6057.49,0.9061384180507197
281,6076.13,0.9291213392535387
282,6094.78,0.9146502614870459
283,6113.42,0.9104701826898647
284,6132.63,0.8966101626419114
285,6151.27,0.8971460838447304
286,6169.92,0.8919960060782375
287,6188.56,0.8787669272810563
288,6207.77,0.8627549072331031
289,6226.41,0.8436788284359221
290,6245.06,0.8666617506694292
291,6263.7,0.8509286718722482
292,6282.34,0.872083593075067
293,6301.55,0.9954465730271137
294,6320.2,0.8861574952606209
295,6338.84,0.8837134164634398
296,6357.48,0.9425433376662586
297,6376.69,0.9298683176183055
298,6395.33,0.9325302388211244
299,6413.98,0.9417821610546315
300,6432.62,0.9940750822574503
301,6451.27,1.0492620044909575
302,6470.47,1.117393983412316
303,6489.12,1.3057859056458232
304,6507.76,1.5414378268486422
305,6526.41,2.0125597490821496
306,6545.61,3.1654517280035077
307,6564.26,5.359003650237015
308,6582.9,3.480815571439834
309,6601.54,2.124547492642653
310,6606.93448,1.9880825879061488
311,6620.75,1.6385880568396851
312,6639.4,1.3812980679014797
313,6658.04,1.2179680789573428
314,6676.68,1.093458090013206
315,6695.33,0.9933451010750007
316,6714.54,1.0988881124689456
317,6733.18,1.1748381235248089
318,6751.82,0.9399351345806722
319,6770.47,0.8923991456424667
320,6789.68,0.8787261570364117
321,6808.32,0.907268168092275
322,6826.96,0.9353751791481383
323,6845.61,0.9273871902099328
324,6864.25,0.909382201265796
325,6883.46,0.9086472126597409
326,6902.1,0.9334762237156041
327,6920.75,0.9509802347773988
328,6939.39,0.957849245833262
329,6958.6,0.953601257227207
330,6977.24,0.9627272682830702
331,6995.89,0.9552082793448649
332,7014.53,0.9478842904007281
333,7033.74,0.9405593017946731
334,7052.38,0.9336513128505363
335,7071.03,0.9269323239123308
336,7089.67,0.9204013349681941
337,7108.31,0.9140593460240575
338,7127.52,0.9076983574180023
339,7146.17,0.9017003684797968
340,7164.81,0.8958593795356602
341,7183.45,0.8901813905915233
342,7202.66,0.8844894019854683
343,7221.3,0.8791104130413316
344,7239.95,0.8738804241031262
345,7258.59,0.8687804351589894
346,7277.24,0.863811446220784
347,7296.44,0.8588284576087977
348,7315.09,0.8541194686705922
349,7333.73,0.8495264797264555
350,7352.38,0.84504549078825
351,7371.58,0.8405505021762637
352,7390.23,0.8362965132380582
353,7408.87,0.8321465242939216
354,7427.51,0.8280935353497848
355,7446.72,0.8240155467437298
356,7465.37,0.8201585578055243
357,7484.01,0.8163855688613875
358,7502.65,0.8127035799172508
359,7521.3,0.8091065909790452
360,7540.51,0.8054836023729903
361,7559.15,0.8020426134288535
362,7577.79,0.7986796244847169
363,7585.77575,0.7972713111649702
364,7596.44,0.7953910764439077
365,7615.65,0.7920738820464452
366,7634.29,0.7889256637451074
367,7652.93,0.7858374454437695
368,7671.58,0.7828132275617979
369,7690.22,0.7798480092604602
370,7709.43,0.7768578148629977
371,7728.07,0.7740025965616598
372,7746.72,0.7712053786796883
373,7765.36,0.7684621603783504
374,7784.57,0.765678965980888
375,7803.21,0.7630327476795501
376,7821.86,0.7604245297975785
377,7840.5,0.7578623114962406
378,7859.71,0.7552681170987782
379,7878.35,0.7527838987974405
380,7897.0,0.7503456809154687
381,7915.64,0.7479334626141309
382,7934.28,0.745560244312793
383,7953.49,0.7431470499153305
384,7972.13,0.7408388316139927
385,7990.78,0.7385626137320211
386,8000.0,0.7374450003876899
387,8167.98,0.7180610449017064
388,8339.48,0.6995232370326377
389,8514.59,0.68103158055478
390,8693.37,0.6618760779843303
391,8709.6359,0.6600535855850141
392,8875.9,0.6414377290059708
393,9062.27,0.6191721126777592
394,9252.55,0.5952669659538652
395,9446.83,0.5720472996435954
396,9645.19,0.5495041233552224
397,9847.71,0.5276304466970184
398,10000.0,0.5120073265865723
399,10054.5,0.5064163001929481
400,10265.6,0.48585472108045724
401,10481.1,0.46593467182066667
402,10701.2,0.4466471764977901
403,10925.9,0.4346582351118275
404,11155.3,0.4284258597048858
405,11389.6,0.4231530743611785
406,11481.5362,0.42148153223717116
407,11628.7,0.4188221900616437
408,11872.9,0.41540068291057203
409,12122.2,0.4128563555855836
410,12376.7,0.4111732312205233
411,12636.6,0.41033935608308053
412,12901.9,0.41035073017325535
413,13172.8,0.4112063997587373
414,13182.5674,0.4112666069239131
415,13449.4,0.4129408166638199
416,13731.8,0.4155362922442842
417,14020.1,0.41900778342646505
418,14314.5,0.4233753585358443
419,14615.1,0.42685405173516294
420,14922.0,0.4260228971871619
421,15135.6125,0.4254529219470703
422,15235.3,0.4252124092877383
423,15555.2,0.42445246268313813
424,15881.8,0.42369051750945125
425,16215.3,0.4229256932123766
426,16555.7,0.4221589897919143
427,16903.3,0.4213895864166125
428,17258.3,0.42061760253217023
429,17378.0083,0.42036198777142747
430,17620.6,0.41997198796409285
431,17990.6,0.4193912022159757
432,18368.4,0.41881319071424955
433,18754.1,0.4182380659492528
434,19147.8,0.41766494041132374
435,19549.9,0.4170952640618159
436,19952.6231,0.41687234170684134
437,19960.4,0.41687578177592616
438,20379.5,0.41730960295553143
439,20807.4,0.4178200870470445
440,21244.3,0.418410658207554
441,21690.4,0.41908074059414896
442,22145.8,0.4198285462853736
443,22610.8,0.42065871151686124
444,22908.6765,0.42122896114955166
445,23085.6,0.42186163001004906
446,23570.3,0.4236569343636708
447,24065.2,0.4255498186727432
448,24570.5,0.427542039406981
449,25086.4,0.42963435303609887
450,25613.2,0.431826894264669
451,26151.0,0.4341200413275486
452,26302.679900000003,0.43478214235057977
453,26700.1,0.43709213875628594
454,27260.7,0.43831891320073296
455,27833.1,0.43819339820251935
456,28417.5,0.437807639703295
457,29014.2,0.4371702066155346
458,29623.4,0.43629214488088797
459,30199.5172,0.4352676181869754
460,30245.4,0.4352201206635865
461,30880.5,0.4343684753098891
462,31528.9,0.4333242688111686
463,32190.9,0.4320982930212966
464,32866.8,0.4307073397941449
465,33556.9,0.42916520098358496
466,34261.5,0.4274856684434886
467,34673.685,0.42645484245077175
468,34980.9,0.42561993377147234
469,35715.4,0.42355675919144664
470,36465.3,0.42140122792179197
471,37231.0,0.4191706423861545
472,38012.7,0.4181811537963571
473,38810.9,0.41764864018195746
474,39625.8,0.4172152527547785
475,39810.7171,0.4171416951291392
476,40457.8,0.41603152847955444
477,41307.3,0.4146897775928396
478,42174.7,0.41343747044847645
479,43060.2,0.41227649468604444
480,43964.4,0.41121351322428157
481,44887.5,0.4102504137027672
482,45708.818999999996,0.4095027315218669
483,45830.0,0.4092058991910461
484,46792.3,0.40697665065335353
485,47774.8,0.40482796283429195
486,48777.9,0.4027649953520521
487,49802.1,0.4007901977293724
488,50847.8,0.39890472958444345
489,51915.5,0.3971150404400037
490,52480.746,0.3962373040271208
491,53005.6,0.3944512118941194
492,54118.5,0.3908004865513972
493,55254.9,0.38720940938411397
494,56415.1,0.38368129504982845
495,57599.6,0.38021866797780535
496,58809.1,0.3768222623690152
497,60043.9,0.3734943928810168
498,60255.9586,0.37294642416482715
499,61304.6,0.36910490774254634
500,62591.8,0.3645307450566854
501,63906.1,0.36000175786120137
502,65247.9,0.3555199339862105
503,66617.9,0.3510852521344163
504,67000.0,0.34988728119956075
505,68016.7,0.3463406761720407
506,69242.2916,0.34218662291109614
507,69444.9,0.3413158627920525
508,70903.0,0.3351901903251374
509,71559.6261,0.3324943834644115
510,72391.8,0.32839151874600525
511,73911.8,0.3210372535492151
512,73954.515,0.3208344949919074
513,75463.8,0.3093481979392686
514,76429.5536,0.3020840273244829
515,77048.3,0.2954030699197831
516,78666.1,0.2780743934043153
517,78987.42450000001,0.27465968931882867
518,80317.8,0.25939281073294673
519,81630.8998,0.2444328008409899
520,82004.3,0.24044542787123502
521,83726.1,0.222195871691793
522,84362.84430000001,0.2154969131204894
523,85484.1,0.20784409384534097
524,87186.21900000001,0.19635649353464207
525,87279.1,0.1959098842386393
526,89111.7,0.1872332364325076
527,90104.0836,0.18260588348929122
528,90982.8,0.17917625062367162
529,92893.1,0.17185515704967677
530,93119.6005,0.171002424474407
531,94843.6,0.16805364794335587
532,96236.03790000001,0.16589403453216062
533,96835.1,0.16559638302629992
534,98868.3,0.16558833442870063
535,99456.7731,0.1656153513186753
536,100944.0,0.16648180377358784
537,102785.297,0.16764166384308907
538,103064.0,0.1677852168826795
539,105228.0,0.16899875310351914
540,106225.216,0.16960080638342384
541,107437.0,0.17077909035137354
542,109693.0,0.17306653125169058
543,109780.26,0.17315844979467002
544,111996.0,0.1754519306231524
545,113454.28,0.17701699226848283
546,114348.0,0.1779410873747291
547,116749.0,0.18050952415220295
548,117251.259,0.18106378824982505
549,119200.0,0.18324688902010036
550,121175.312,0.1855249859573326
551,121703.0,0.1859649645385953
552,124259.0,0.1881757685935665
553,125230.691,0.18904565107171756
554,126868.0,0.19012002686412613
555,129421.79100000001,0.19186642476880544
556,129532.0,0.1918899693248176
557,132252.0,0.19254644770404275
558,133753.155,0.1929474398170152
559,135028.0,0.192771067256636
560,137864.0,0.19244917721361196
561,138229.477,0.19241628122774412
562,140758.0,0.1914444898773735
563,142855.609,0.19068649780992758
564,143714.0,0.19000566527120172
565,146731.0,0.1876769160376562
566,147636.563,0.18699680673225927
567,149812.0,0.18542505838669354
568,152577.522,0.18348097704171762
569,152958.0,0.18319920814172377
570,156170.0,0.18088170879234133
571,157683.84,0.17981639514662923
572,159449.0,0.1786832291341821
573,162797.0,0.17659139867108625
574,162961.05099999998,0.17649158525990738
575,166215.0,0.1743405268665787
576,168414.875,0.17292122048165826
577,169705.0,0.17232254046116213
578,173268.0,0.17072208049996995
579,174051.222,0.1703815567799214
580,176907.0,0.16921131368987508
581,179876.201,0.16803460090457095
582,180621.0,0.16767211836595786
583,184414.0,0.16587697929465206
584,185896.125,0.16519382000912347
585,188286.0,0.1644932113381687
586,192117.51799999998,0.16341590165432285
587,192239.0,0.16336934431730277
588,196276.0,0.16186870148296448
589,198547.123,0.16104897034547522
590,200397.0,0.1604005424442973
591,204605.0,0.158970213272418
592,205191.907,0.15877657902909625
593,208901.0,0.15704215343282327
594,212059.073,0.15559539127121302
595,213287.0,0.15505455815319397
596,217766.0,0.1531233639197758
597,219156.062,0.15253596210472886
598,222338.0,0.15121297117765897
599,226490.56699999998,0.1494194125732127
600,227006.0,0.14911563822226703
601,231773.0,0.1459553470022215
602,234070.535,0.14445158002839137
603,236639.0,0.14284122029518695
604,241608.0,0.13976783155833283
605,241904.18300000002,0.1395870874222874
606,246681.0,0.13651290551840262
607,250000.0,0.13440393975214224
608,251861.0,0.13320606530541845
609,257149.0,0.1298441777731677
610,262549.0,0.12645336811466656
611,268061.0,0.12303403632991505
612,273690.0,0.11958443500256263
613,275422.87,0.11853513642986557
614,279437.0,0.11618523097032207
615,285304.0,0.11279246500909118
616,291295.0,0.10936989775602583
617,297411.0,0.10591755984586934
618,303656.0,0.10243407381759476
619,310032.0,0.09891890094068864
620,316227.766,0.09554211951204306
621,316541.0,0.09539093387145364
622,323188.0,0.09222392992022899
623,329974.0,0.08903135140164758
624,336902.0,0.0858125772818816
625,343976.0,0.08256617951582726
626,351199.0,0.07929143706965669
627,358573.0,0.07598803592081803
628,363078.055,0.07399334913352025
629,366102.0,0.07290078834228908
630,373789.0,0.07016250049031024
631,381638.0,0.06740537385440781
632,389651.0,0.06462885733848399
633,397832.0,0.06183204875034311
634,406186.0,0.05901392034974062
635,414714.0,0.056174146588627634
