,lambda (Angstroms),Total Flux (erg/s/cm^2/Angstrom)
0,1017.9,12.036372389100153
1,1038.0,14.470568866718976
2,1058.1,10.954465344337798
3,1078.5,10.233161769383766
4,1096.4782,9.426742432862701
5,1098.6,9.331567455071431
6,1118.7,9.737256430656018
7,1138.8,9.556935406240605
8,1158.9,9.737234381825195
9,1179.3,11.765813192866268
10,1199.4,17.851402168450853
11,1219.5,33.49359114403545
12,1239.6,18.031780119620034
13,1258.92541,12.050603198209686
14,1259.7,11.810869550269498
15,1280.1,9.601950346132835
16,1300.2,9.5568711302923
17,1326.52,8.77976215711206
18,1345.73,8.704432906550037
19,1364.38,8.361573634140784
20,1383.02,8.744764361341405
21,1401.66,9.990085088542024
22,1420.87,8.398715837980001
23,1439.52,7.846096565570749
24,1445.43977,7.795775575675922
25,1458.16,7.687647213018391
26,1476.8,7.609457823350406
27,1495.45,7.818778434009853
28,1514.65,8.157589062678024
29,1533.3,9.90324967333747
30,1551.94,13.063480283669486
31,1570.59,8.471380894328933
32,1589.79,7.400211522997105
33,1608.44,7.223282133656551
34,1627.08,7.135792743988567
35,1645.73,7.030943354648014
36,1659.58691,6.926444568093068
37,1664.37,6.890374952084692
38,1683.58,6.36157954552181
39,1702.22,6.170374002662251
40,1720.86,6.210278459802691
41,1739.51,6.173442919334302
42,1758.72,6.041007512771419
43,1777.36,5.890251969911859
44,1796.0,5.8172064270523
45,1814.65,5.746040886583911
46,1833.86,5.6742854800210285
47,1852.5,5.8752499371614695
48,1871.14,5.91985439430191
49,1889.79,6.47121885383352
50,1905.46072,7.159145350668275
51,1908.43,7.289491685764031
52,1927.64,5.97887576477248
53,1946.28,5.365260019468861
54,1964.93,5.064734271082999
55,1983.57,4.93264852577938
56,2002.78,4.93171260478783
57,2021.42,4.786466859484212
58,2040.07,4.7349611110983485
59,2058.71,4.77056536579473
60,2077.35,4.809559620491112
61,2096.56,4.6613536994995615
62,2115.21,4.520887951113698
63,2133.85,4.40367220581008
64,2152.49,4.312776460506462
65,2171.7,4.295250539514911
66,2187.7616199999998,4.215290586207173
67,2190.35,4.202406225012585
68,2208.99,4.14804080570018
69,2227.63,4.177765386387775
70,2246.84,4.060470107150044
71,2265.49,4.08436469029509
72,2284.13,4.134959270982685
73,2302.77,4.202283851670279
74,2321.42,4.291688434815325
75,2340.62,4.205093153120144
76,2359.27,4.138657736265189
77,2377.91,4.082682316952784
78,2396.56,4.075606900097829
79,2415.76,4.130391618402648
80,2434.41,4.140526201547694
81,2453.05,4.0448507822352875
82,2471.7,4.062945365380333
83,2490.34,4.007239946067928
84,2509.55,3.960584666830197
85,2511.88643,3.9549096213396355
86,2528.19,3.9153036903669807
87,2546.83,3.8498619175202804
88,2565.48,3.772570143722482
89,2584.69,3.727438316663195
90,2603.33,3.693786543816495
91,2621.97,3.6465447709697942
92,2640.62,3.5180229971719963
93,2659.83,3.4246011701127093
94,2678.47,3.430779397266009
95,2697.11,3.468317624419309
96,2715.76,3.5375958506215106
97,2734.4,3.6553940777748104
98,2753.61,3.802992250715523
99,2772.25,3.995300477868823
100,2790.9,4.840068704071025
101,2809.54,4.585456931224325
102,2828.75,3.9236751041650377
103,2847.39,3.641133331318337
104,2866.04,3.446221557520539
105,2884.0315,3.319999435676578
106,2884.68,3.3154498450902765
107,2903.32,3.208629808808569
108,2922.53,3.1992497714173895
109,2941.18,3.2364697351162177
110,2959.82,3.1910996988345106
111,2978.46,3.1269896625528033
112,2997.67,2.9988496251616232
113,3016.32,2.857139588860451
114,3034.96,2.8288395525787444
115,3053.6,2.787379516297037
116,3072.81,2.798439478905857
117,3091.46,2.753429442604685
118,3110.1,2.793299406322978
119,3128.74,2.858059370041271
120,3147.39,2.796419333740099
121,3166.59,2.8131392963683837
122,3185.24,2.871279260067212
123,3203.88,2.8233192237855045
124,3222.53,2.7648091874843326
125,3241.73,2.705649150112617
126,3260.38,2.701259113811446
127,3279.02,2.6739090775297383
128,3297.67,2.621569041228567
129,3311.31121,2.5696533796230745
130,3316.31,2.550628828679234
131,3335.52,2.542138113903909
132,3354.16,2.50195742033743
133,3372.8,2.4629767267709517
134,3391.45,2.4458660328323876
135,3410.66,2.462235318057063
136,3429.3,2.5454946244905843
137,3447.94,2.388773930924106
138,3466.59,2.362683236985542
139,3485.8,2.353242522210217
140,3504.44,2.3068818286437383
141,3523.08,2.2335311350772598
142,3541.73,2.1773604411386955
143,3560.37,2.157159747572217
144,3579.58,2.160839032796892
145,3598.22,2.1497783392304135
146,3616.87,2.1131976452918497
147,3635.51,2.108076951725371
148,3654.72,2.083716236950046
149,3673.36,2.0413855433835675
150,3692.01,2.0237648494450036
151,3710.65,2.023564155878525
152,3729.29,2.3728934623120463
153,3748.5,1.9601027475367214
154,3767.15,1.9384520535981575
155,3785.79,1.8854013600316788
156,3801.8939600000003,1.830462412308135
157,3804.43,1.8218106861266987
158,3823.64,1.8269601202833246
159,3842.29,1.815539570935124
160,3860.93,1.9153590218814802
161,3879.57,1.8667184728278365
162,3898.78,1.7767979069844624
163,3917.43,1.740157357636262
164,3936.07,1.6723668085826182
165,3954.71,1.7151062595289743
166,3973.36,1.7377657101807737
167,3992.56,1.6388951446319562
168,4011.21,1.607654595283756
169,4029.85,1.593234046230112
170,4048.5,1.5785334968819118
171,4067.7,1.6176629313330941
172,4086.35,1.6142923819848938
173,4104.99,1.66571183293125
174,4123.64,1.5707112835830497
175,4142.28,1.5151707345294056
176,4161.49,1.4922801686860316
177,4180.13,1.4994896196323877
178,4198.77,1.454449070578744
179,4217.42,1.4527985212305436
180,4236.63,1.4920479553871695
181,4255.27,1.4828174063335258
182,4273.91,1.489326857279882
183,4292.56,1.5309363079316813
184,4311.77,1.5833757420883072
185,4330.41,1.7137351930346636
186,4349.05,1.7797646439810197
187,4365.15832,1.7018569060144475
188,4367.7,1.6895642123220977
189,4386.34,1.5180145263700826
190,4405.55,1.4650648500214667
191,4424.19,1.4346251640694518
192,4442.84,1.3959054782859175
193,4461.48,1.4110157923339026
194,4480.69,1.4442661159852863
195,4499.33,1.4619964300332715
196,4517.98,1.4932867442497373
197,4536.62,1.4788770582977224
198,4555.83,1.4836073819491065
199,4574.47,1.4744776959970916
200,4593.12,1.4466380102135572
201,4611.76,1.4155283242615424
202,4630.4,1.4290986383095274
203,4649.61,1.3647289619609113
204,4668.26,1.354129276177377
205,4686.9,1.3829295902253622
206,4705.54,1.2903899042733473
207,4724.75,1.2912902279247311
208,4743.4,1.264300542141197
209,4762.04,1.2741208561891821
210,4780.68,1.321101170237167
211,4799.33,1.3826714844536332
212,4818.53,1.4888618079365363
213,4837.18,1.675262122153002
214,4855.82,2.136272436200987
215,4874.47,1.9656927504174528
216,4893.67,1.650503073900356
217,4912.32,1.5046833881168218
218,4930.96,1.435543702164807
219,4949.6,1.5457740162127922
220,4968.81,1.529134339864176
221,4987.46,1.4343546540806418
222,5006.1,4.5647849681286266
223,5011.87234,3.5939295027634257
224,5024.74,1.4297053257413916
225,5043.39,1.2323857030993413
226,5062.6,1.1551260917881458
227,5081.24,1.1020064689437588
228,5099.88,1.1041168460993716
229,5118.53,1.113457223457321
230,5137.74,1.1369976121461256
231,5156.38,1.1523479893017383
232,5175.02,1.1608483664573515
233,5193.67,1.1742587438153007
234,5212.31,1.1364091209709135
235,5231.52,1.1387295096597183
236,5250.16,1.1177698868153312
237,5268.81,1.1453502641732805
238,5287.45,1.1524106413288933
239,5306.66,1.136051030017698
240,5325.3,1.1160914071733108
241,5343.95,1.0683817845312602
242,5362.59,1.060792161686873
243,5381.8,1.0304725503756778
244,5400.44,1.0150529275312905
245,5419.09,1.0269233048892399
246,5437.73,1.0152936820448526
247,5456.37,1.0005740592004653
248,5475.58,1.0027044478892704
249,5494.23,1.0005748252472195
250,5512.87,0.9993192024028325
251,5531.51,1.012855579558445
252,5550.72,1.00015896824725
253,5569.37,0.9936293456051993
254,5588.01,0.9833517227608122
255,5606.65,0.970922099916425
256,5625.3,0.9632724772743744
257,5644.5,0.9608468657608426
258,5663.15,0.956417243118792
259,5681.79,0.9614006202744046
260,5700.44,0.9456269976323541
261,5719.64,0.9449703861188222
262,5738.29,0.9272907634767716
263,5754.399369999999,0.942272630681133
264,5756.93,0.9446262198429766
265,5775.58,0.97179118095973
266,5794.78,1.0308121704204094
267,5813.43,1.0155531315371629
268,5832.07,0.9725610921385723
269,5850.71,0.9890260527399818
270,5869.36,1.0198860138567354
271,5888.57,0.9956630038327587
272,5907.21,0.9705299644341682
273,5925.85,0.9380009250355776
274,5944.5,0.9420538861523312
275,5963.71,0.9445978761283547
276,5982.35,0.9211238367297641
277,6000.99,0.9049477973311735
278,6019.64,0.8941377584479271
279,6038.28,0.9056777190493365
280,6057.49,0.9059327090253598
281,6076.13,0.9289146696267693
282,6094.78,0.9144426307435229
283,6113.42,0.9102615913449323
284,6132.63,0.8964005813209557
285,6151.27,0.8969355419223651
286,6169.92,0.8917845030391187
287,6188.56,0.8785544636405281
288,6207.77,0.8625414536165515
289,6226.41,0.8434644142179611
290,6245.06,0.8664463753347146
291,6263.7,0.850712335936124
292,6282.34,0.8718662965375336
293,6301.55,0.9952282865135569
294,6320.2,0.8859382476303105
295,6338.84,0.8834932082317198
296,6357.48,0.9423221688331294
297,6376.69,0.9296461588091528
298,6395.33,0.9323071194105622
299,6413.98,0.9415580805273157
300,6432.62,0.9938500411287252
301,6451.27,1.0490360022454788
302,6470.47,1.1171669917061582
303,6489.12,1.3055579528229118
304,6507.76,1.541208913424321
305,6526.41,2.012329874541075
306,6545.61,3.165220864001754
307,6564.26,5.358771825118507
308,6582.9,3.4805827857199167
309,6601.54,2.1243137463213264
310,6606.93448,1.9878485635834762
311,6620.75,1.6383540284198426
312,6639.4,1.3810640339507398
313,6658.04,1.2177340394786715
314,6676.68,1.093224045006603
315,6695.33,0.9931110505375004
316,6714.54,1.0986540562344727
317,6733.18,1.1746040617624043
318,6751.82,0.9397010672903361
319,6770.47,0.8921650728212334
320,6789.68,0.8784920785182058
321,6808.32,0.9070340840461375
322,6826.96,0.9351410895740692
323,6845.61,0.9271530951049665
324,6864.25,0.909148100632898
325,6883.46,0.9084131063298704
326,6902.1,0.933242111857802
327,6920.75,0.9507461173886994
328,6939.39,0.9576151229166311
329,6958.6,0.9533671286136035
330,6977.24,0.9624931341415351
331,6995.89,0.9549741396724324
332,7014.53,0.9476501452003641
333,7033.74,0.9403251508973365
334,7052.38,0.9334171564252681
335,7071.03,0.9266981619561654
336,7089.67,0.9201671674840971
337,7108.31,0.9138251730120287
338,7127.52,0.9074641787090011
339,7146.17,0.9014661842398984
340,7164.81,0.8956251897678301
341,7183.45,0.8899471952957617
342,7202.66,0.8842552009927341
343,7221.3,0.8788762065206659
344,7239.95,0.873646212051563
345,7258.59,0.8685462175794947
346,7277.24,0.863577223110392
347,7296.44,0.8585942288043988
348,7315.09,0.8538852343352962
349,7333.73,0.8492922398632277
350,7352.38,0.844811245394125
351,7371.58,0.8403162510881318
352,7390.23,0.8360622566190291
353,7408.87,0.8319122621469608
354,7427.51,0.8278592676748925
355,7446.72,0.8237812733718649
356,7465.37,0.8199242789027622
357,7484.01,0.8161512844306937
358,7502.65,0.8124692899586254
359,7521.3,0.8088722954895227
360,7540.51,0.8052493011864952
361,7559.15,0.8018083067144268
362,7577.79,0.7984453122423584
363,7585.77575,0.797036996554335
364,7596.44,0.7951565382219539
365,7615.65,0.7918389410232226
366,7634.29,0.7886903318725538
367,7652.93,0.7856017227218848
368,7671.58,0.7825771137808989
369,7690.22,0.7796115046302301
370,7709.43,0.7766209074314988
371,7728.07,0.77376529828083
372,7746.72,0.7709676893398442
373,7765.36,0.7682240801891751
374,7784.57,0.765440482990444
375,7803.21,0.762793873839775
376,7821.86,0.7601852648987892
377,7840.5,0.7576226557481204
378,7859.71,0.7550280585493891
379,7878.35,0.7525434493987202
380,7897.0,0.7501048404577343
381,7915.64,0.7476922313070654
382,7934.28,0.7453186221563965
383,7953.49,0.7429050249576653
384,7972.13,0.7405964158069963
385,7990.78,0.7383198068660105
386,8000.0,0.737202000193845
387,8167.98,0.7178145224508532
388,8339.48,0.6992731185163188
389,8514.59,0.6807777902773899
390,8693.37,0.6616185389921652
391,8709.6359,0.6597957055243868
392,8875.9,0.6411698645029854
393,9062.27,0.6188930563388796
394,9252.55,0.5949764829769326
395,9446.83,0.5717451498217977
396,9645.19,0.5491900616776112
397,9847.71,0.5273042233485092
398,10000.0,0.5116719579642084
399,10054.5,0.5060776500964741
400,10265.6,0.48550336054022863
401,10481.1,0.4655703359103333
402,10701.2,0.44626958824889507
403,10925.9,0.43426711755591374
404,11155.3,0.4280209298524429
405,11389.6,0.4227340371805892
406,11481.5362,0.4210569595288742
407,11628.7,0.4183805950308218
408,11872.9,0.414930841455286
409,12122.2,0.4123576777927918
410,12376.7,0.4106451156102617
411,12636.6,0.4097811780415403
412,12901.9,0.4097618650866277
413,13172.8,0.4105861998793687
414,13182.5674,0.41064527725696737
415,13449.4,0.4122739083319099
416,13731.8,0.4148211461221421
417,14020.1,0.4182433917132325
418,14314.5,0.4225606792679222
419,14615.1,0.42598802586758144
420,14922.0,0.42510444859358093
421,15135.6125,0.42449798541097533
422,15235.3,0.42422770464386916
423,15555.2,0.42337223134156904
424,15881.8,0.42251275875472566
425,16215.3,0.42164834660618833
426,16555.7,0.42077999489595713
427,16903.3,0.41990679320830626
428,17258.3,0.4190288012660851
429,17378.0083,0.4187374399014466
430,17620.6,0.4182109939820464
431,17990.6,0.4174221011079879
432,18368.4,0.41663159535712474
433,18754.1,0.4158395329746264
434,19147.8,0.4150449702056619
435,19549.9,0.41424913203090796
436,19952.6231,0.41379969738703826
437,19960.4,0.4137948908879631
438,20379.5,0.4137843014777657
439,20807.4,0.41384104352352225
440,21244.3,0.413968329103777
441,21690.4,0.41416537029707445
442,22145.8,0.4144302731426868
443,22610.8,0.4147673557584306
444,22908.6765,0.41502173931845737
445,23085.6,0.4153198150050245
446,23570.3,0.4161984671818354
447,24065.2,0.4171554093363716
448,24570.5,0.41819201970349046
449,25086.4,0.41930867651804943
450,25613.2,0.4205049471323345
451,26151.0,0.42178102066377426
452,26302.679900000003,0.42215626856010136
453,26700.1,0.423427069378143
454,27260.7,0.42318795660036646
455,27833.1,0.4215656991012597
456,28417.5,0.4196518198516475
457,29014.2,0.4174541033077673
458,29623.4,0.414983072440444
459,30199.5172,0.4124520833098864
460,30245.4,0.41226756033179324
461,30880.5,0.4095192376549445
462,31528.9,0.4065386344055843
463,32190.9,0.4033356465106483
464,32866.8,0.3999261698970724
465,33556.9,0.3963231004917925
466,34261.5,0.3925393342217443
467,34673.685,0.3902775494155443
468,34980.9,0.3885584668857362
469,35715.4,0.3843813795957233
470,36465.3,0.38006761396089594
471,37231.0,0.37563332119307724
472,38012.7,0.37239407689817855
473,38810.9,0.3695643200909787
474,39625.8,0.36678562637738926
475,39810.7171,0.3661798718722619
476,40457.8,0.3636337642397772
477,41307.3,0.3604068887964198
478,42174.7,0.35722973522423823
479,43060.2,0.3541037473430222
480,43964.4,0.35103425661214077
481,44887.5,0.34802270685138365
482,45708.818999999996,0.3454524365413048
483,45830.0,0.344979949595523
484,46792.3,0.3413558253266768
485,47774.8,0.33778298141714597
486,48777.9,0.33426599767602605
487,49802.1,0.3308065988646862
488,50847.8,0.3274053647922217
489,51915.5,0.32406802022000186
490,52480.746,0.32237094687733436
491,53005.6,0.3203096059470597
492,54118.5,0.3160752432756986
493,55254.9,0.31188820469205697
494,56415.1,0.30775164752491424
495,57599.6,0.3036678339889027
496,58809.1,0.29963713118450763
497,60043.9,0.29566169644050844
498,60255.9586,0.2950025179886561
499,61304.6,0.2911769538712732
500,62591.8,0.2866223725283427
501,63906.1,0.2821133789306007
502,65247.9,0.27765196699310524
503,66617.9,0.2732381260672082
504,67000.0,0.2720459677730718
505,68016.7,0.26869433808602033
506,69242.2916,0.2647753198791582
507,69444.9,0.26403543139602625
508,70903.0,0.2588515951625687
509,71559.6261,0.2565799253657025
510,72391.8,0.25335775937300264
511,73911.8,0.24761212677460753
512,73954.515,0.24745457396824752
513,75463.8,0.2397265989696343
514,76429.5536,0.23486728433210577
515,77048.3,0.23074053495989155
516,78666.1,0.22009019670215763
517,78987.42450000001,0.2180019320415055
518,80317.8,0.20879140536647336
519,81630.8998,0.19980910213167194
520,82004.3,0.1973882139356175
521,83726.1,0.1863619358458965
522,84362.84430000001,0.18233424057517644
523,85484.1,0.17731354692267048
524,87186.21900000001,0.16982163736537118
525,87279.1,0.16950294211931966
526,89111.7,0.1633501182162538
527,90104.0836,0.16008945819603784
528,90982.8,0.1575361253118358
529,92893.1,0.1521200785248384
530,93119.6005,0.1514932235864729
531,94843.6,0.14849282397167793
532,96236.03790000001,0.14629151568857593
533,96835.1,0.14566019151314996
534,98868.3,0.1445196672143503
535,99456.7731,0.1442189094207916
536,100944.0,0.14385790188679393
537,102785.297,0.14349807562248793
538,103064.0,0.14342760844133973
539,105228.0,0.14297937655175957
540,106225.216,0.1428156526837898
541,107437.0,0.14284004517568677
542,109693.0,0.1429792656258453
543,109780.26,0.1429880929824414
544,111996.0,0.14319196531157619
545,113454.28,0.143381759875738
546,114348.0,0.14348054368736457
547,116749.0,0.14383176207610146
548,117251.259,0.14392221197517774
549,119200.0,0.14428944451005019
550,121175.312,0.1447269139263291
551,121703.0,0.14475948226929763
552,124259.0,0.14499688429678326
553,125230.691,0.1451165566851497
554,126868.0,0.14512251343206306
555,129421.79100000001,0.14520244584817898
556,129532.0,0.1451799846624088
557,132252.0,0.14470102385202138
558,133753.155,0.14447537250297807
559,135028.0,0.144025283628318
560,137864.0,0.143094488606806
561,138229.477,0.14298312267565505
562,140758.0,0.14184054493868675
563,142855.609,0.14094087211073172
564,143714.0,0.14038738263560085
565,146731.0,0.1385062080188281
566,147636.563,0.13796043978492223
567,149812.0,0.13668037919334677
568,152577.522,0.13510710559908512
569,152958.0,0.1348835040708619
570,156170.0,0.13305705439617066
571,157683.84,0.1322231761924058
572,159449.0,0.13130536456709108
573,162797.0,0.12962199933554314
574,162961.05099999998,0.12954220059870736
575,166215.0,0.12787376343328932
576,168414.875,0.12678073947435348
577,169705.0,0.12625657023058107
578,173268.0,0.12486189024998498
579,174051.222,0.12456660127817175
580,176907.0,0.12352560684493753
581,179876.201,0.12248327608829787
582,180621.0,0.12218815918297893
583,184414.0,0.12073608964732603
584,185896.125,0.12018698570994656
585,188286.0,0.11950205566908435
586,192117.51799999998,0.11844988242685786
587,192239.0,0.11841032215865138
588,196276.0,0.11714220074148224
589,198547.123,0.11645328078519818
590,200397.0,0.11590177122214865
591,204605.0,0.11469190663620901
592,205191.907,0.11452902149192243
593,208901.0,0.11324427671641163
594,212059.073,0.11218039113909488
595,213287.0,0.11177757907659697
596,217766.0,0.1103498319598879
597,219156.062,0.10991867544645892
598,222338.0,0.10894253558882948
599,226490.56699999998,0.10760163266305237
600,227006.0,0.10739461911113352
601,231773.0,0.10512922350111076
602,234070.535,0.10405676636268521
603,236639.0,0.10289321014759348
604,241608.0,0.10068421577916642
605,241904.18300000002,0.10055499487057598
606,246681.0,0.09839135275920131
607,250000.0,0.09691504291661165
608,251861.0,0.09607958265270922
609,257149.0,0.09374748888658385
610,262549.0,0.09140828405733328
611,268061.0,0.08906236816495752
612,273690.0,0.08670896750128132
613,275422.87,0.0859971308657071
614,279437.0,0.08438856548516104
615,285304.0,0.08207933250454559
616,291295.0,0.07976319887801292
617,297411.0,0.07744037992293468
618,303656.0,0.07511023690879738
619,310032.0,0.07277260047034433
620,316227.766,0.07054006939131113
621,316541.0,0.07043696693572682
622,323188.0,0.06829031496011449
623,329974.0,0.06613942570082379
624,336902.0,0.0639841386409408
625,343976.0,0.061823639757913634
626,351199.0,0.059657668534828345
627,358573.0,0.057486217960409015
628,363078.055,0.056183082514993626
629,366102.0,0.05543154417114454
630,373789.0,0.05356015024515512
631,381638.0,0.05168818692720391
632,389651.0,0.049815328669241994
633,397832.0,0.047941124375171555
634,406186.0,0.04606511017487031
635,414714.0,0.04418707329431382
