,lambda (Angstroms),Total Flux (erg/s/cm^2/Angstrom)
0,100.09,12.960689089250778
1,101.94999999999999,12.924632625584588
2,104.09,12.883148289427771
3,104.712855,12.871074128545832
4,106.02000000000001,12.737970481392649
5,107.99,12.53736982965469
6,110.0,12.332696197799251
7,114.13,11.912147751763522
8,117.87,11.531312236143975
9,120.22644299999999,11.2913647382854
10,120.89000000000001,11.234716704602207
11,125.14000000000001,10.871888001338258
12,126.88,10.723341690628862
13,128.05,10.623457198060525
14,131.04,10.368196490738557
15,131.94,10.291364038942143
16,134.09,10.107815421070157
17,136.9,9.86792478003747
18,138.038426,9.770735952371632
19,140.07999999999998,9.646155512705825
20,143.02,9.466789587015034
21,147.02,9.222796292386954
22,151.14000000000001,8.971399825253332
23,155.02,8.734652607350796
24,158.489319,8.522966424317186
25,159.0,8.499409589320681
26,161.95000000000002,8.363330659905957
27,166.11,8.171440753517736
28,169.98,7.992925095436391
29,173.14,7.847162447568416
30,177.17,7.66126773947983
31,180.05,7.528422039149522
32,181.970086,7.439853609128127
33,182.13,7.434226373139365
34,185.95000000000002,7.2998059860251185
35,191.16,7.116473362831606
36,193.82,7.0228789485525756
37,197.88,6.880013016479318
38,202.02,6.7343356812863915
39,204.83,6.635461092082981
40,208.929613,6.491184486924158
41,210.07999999999998,6.460747988450711
42,215.97000000000003,6.30497174801177
43,219.98,6.1989036448024075
44,223.04000000000002,6.117954391863838
45,227.19,6.008185465570359
46,229.82,5.939011520990153
47,234.09,5.8268191881245714
48,239.88329199999998,5.674091039347407
49,240.1,5.669693371322965
50,246.26,5.543965038559804
51,251.98999999999998,5.427347184017124
52,257.27,5.3192423870772725
53,260.25,5.258893741107431
54,263.87,5.185247093902457
55,268.78,5.085153424036043
56,273.77,4.983415878640235
57,275.42287,4.949718747708928
58,278.86,4.895944009046654
59,284.05,4.81474465728424
60,290.0,4.721522013595152
61,296.07,4.626589870391325
62,300.88,4.551278859592247
63,307.89,4.4416498826896404
64,316.227766,4.311248583757039
65,317.96999999999997,4.290900902097808
66,327.64,4.177887795793981
67,338.37,4.052458276646093
68,347.85,3.9416255616067666
69,356.77,3.8373587607680766
70,363.078055,3.7636512032229734
71,365.92,3.738785163672187
72,375.31,3.6565575302200264
73,384.94,3.5721316846604614
74,394.81,3.4858273409934935
75,404.94,3.397182566376838
76,414.37,3.3145988502401096
77,416.86938299999997,3.29269559235039
78,422.08000000000004,3.257811967394826
79,429.92,3.205360384012919
80,440.95000000000005,3.1316229490547007
81,451.22,3.0629162136130956
82,459.61,3.0067535900283766
83,470.32,2.935119969024522
84,478.630092,2.879565413010831
85,480.16999999999996,2.871647724468752
86,490.22,2.8198652986402917
87,500.48,2.767151840397506
88,506.28,2.7372334252875494
89,512.14,2.707270246059213
90,520.46,2.6644503949773437
91,530.14,2.6145949115455536
92,540.0,2.5637648457586266
93,549.5408739999999,2.5146561758560355
94,550.04,2.5126956195856978
95,560.26,2.472680845252013
96,569.37,2.4369894369897946
97,579.9499999999999,2.3954233202275264
98,589.37,2.358459064512916
99,600.33,2.315318814131586
100,610.09,2.27677730017887
101,620.0,2.2382139422975764
102,630.0699999999999,2.198640753892468
103,630.957344,2.195162320653228
104,640.3100000000001,2.1661016490832243
105,650.72,2.133672537517568
106,658.25,2.1101734495464437
107,664.34,2.0912919928725864
108,675.1400000000001,2.057710080643086
109,684.53,2.0283718981213266
110,695.65,1.9938661876035446
111,705.33,1.9636011203830297
112,716.7900000000001,1.9280872211839486
113,724.43596,1.9042938664542934
114,726.76,1.898923781052794
115,735.18,1.8794679069184794
116,745.4,1.8558271871212468
117,755.7700000000001,1.8318570620187709
118,764.5200000000001,1.8114752072129214
119,775.16,1.7870530135610085
120,784.14,1.7662333652871192
121,795.0400000000001,1.7411025731061176
122,804.25,1.7198407313641892
123,815.44,1.6939923065930511
124,824.8800000000001,1.6721897053830828
125,831.763771,1.6561754465411693
126,834.4300000000001,1.6515266094658698
127,844.09,1.6349743302171553
128,855.8399999999999,1.6146702322345055
129,865.75,1.5975720891563725
130,875.77,1.5802718015132957
131,885.9100000000001,1.5627615970720983
132,894.11,1.5485951278671852
133,904.46,1.5307055435292767
134,914.94,1.5127150701600705
135,925.53,1.4955724932259207
136,934.1,1.4821084853934687
137,944.9100000000001,1.4650423913294308
138,954.992586,1.44889201927557
139,955.85,1.4475505551191874
140,964.7,1.432802529679778
141,975.8699999999999,1.409588223779416
142,984.9,1.3970748472870012
143,994.01,1.3820644898821397
144,1005.52,1.3649335981038795
145,1014.82,1.3493296650319573
146,1024.21,1.3299317404335327
147,1036.07,1.3114399491633182
148,1045.66,1.2994072212837768
149,1055.34,1.2827924488777336
150,1065.1,1.2640717525592433
151,1074.96,1.2487876291001945
152,1084.9,1.2299337037286995
153,1094.94,1.2154906732166462
154,1096.4782,1.2128301183681063
155,1105.07,1.200597538998491
156,1115.3,1.1859577969221144
157,1125.62,1.1706517376984382
158,1136.03,1.1585035283274625
159,1143.91,1.1467620636527949
160,1154.49,1.1326654935591425
161,1165.1699999999998,1.1179504507462683
162,1175.96,1.0998640826422503
163,1184.1100000000001,1.0913963995256841
164,1195.06,1.0735139052709117
165,1206.12,1.0565874227249952
166,1214.48,1.0441605505980638
167,1225.72,1.0315330017575481
168,1234.22,1.0227300536237063
169,1245.6399999999999,1.007683228488592
170,1254.2700000000002,0.9951126209197615
171,1258.92541,0.9881703632568432
172,1265.88,0.9805587767274493
173,1274.6499999999999,0.9743714085078347
174,1286.44,0.963269094259344
175,1295.3600000000001,0.9516549545912749
176,1304.34,0.9427109107438243
177,1316.41,0.9332581376582195
178,1325.53,0.9237124883922117
179,1334.72,0.9132024159169253
180,1343.9699999999998,0.9061342192622575
181,1356.41,0.8934843580704658
182,1365.8100000000002,0.8829087019673436
183,1375.2800000000002,0.8740357446549428
184,1384.81,0.8646476591631609
185,1394.41,0.8536019094620998
186,1404.0800000000002,0.8442642215517603
187,1413.8100000000002,0.8351689314620392
188,1423.61,0.8258015541630398
189,1433.48,0.8160163956547614
190,1443.41,0.8067443329671015
191,1445.43977,0.8048387629746566
192,1446.74,0.8040048977473035
193,1453.42,0.7990201024475877
194,1463.49,0.7912624663221178
195,1473.6399999999999,0.7843221161152144
196,1483.85,0.7775183600972354
197,1494.1399999999999,0.7705636619978228
198,1504.5,0.7628338509521557
199,1511.44,0.7570384711377801
200,1518.42,0.7528222947826878
201,1525.43,0.7476875600220579
202,1535.9999999999998,0.7392691021376274
203,1546.6499999999999,0.7325047481717631
204,1553.79,0.7272423696538032
205,1564.5600000000002,0.7200185150657881
206,1575.4,0.7130093545315187
207,1586.32,0.7059220629158156
208,1593.64,0.7009936299646299
209,1604.69,0.6932560745915969
210,1615.81,0.6856444002723094
211,1623.27,0.6800443434286149
212,1634.5199999999998,0.6728313433519977
213,1645.8500000000001,0.6651287011939464
214,1653.4499999999998,0.659292147457743
215,1659.58691,0.6554277213528755
216,1664.91,0.6531724211154073
217,1672.6,0.6484562158985407
218,1676.4499999999998,0.6477406508211759
219,1684.19,0.6444020899149928
220,1695.86,0.6382141194285387
221,1703.6899999999998,0.6341146850815861
222,1715.5,0.6279998094650459
223,1723.4199999999998,0.6241539016773237
224,1735.37,0.6189596679306976
225,1743.3799999999999,0.6149158837022058
226,1755.46,0.6096899527633569
227,1763.5600000000002,0.6050156380940956
228,1775.79,0.5992905600872975
229,1783.98,0.5955153349772665
230,1796.35,0.5902549718403824
231,1804.64,0.5861326433517186
232,1812.97,0.5813849581116018
233,1825.54,0.575534422217452
234,1833.96,0.5711442915365655
235,1846.68,0.5643029165744663
236,1855.1999999999998,0.5602890295149471
237,1863.7599999999998,0.5565037507039748
238,1876.68,0.5508888979846098
239,1885.3500000000001,0.5460904388571411
240,1894.05,0.5417456059160829
241,1905.46072,0.5365790253396019
242,1907.18,0.5360217906718188
243,1915.98,0.5326147351746714
244,1924.82,0.5292814818752642
245,1933.7099999999998,0.5260839525730323
246,1947.11,0.5220933528160122
247,1956.1000000000001,0.5184711975081308
248,1965.1299999999999,0.5161251503979899
249,1974.2,0.5130121744855888
250,1983.3100000000002,0.5095705207709281
251,1997.06,0.5045316129941354
252,2006.28,0.5014471000732604
253,2015.5400000000002,0.4979101413501256
254,2024.84,0.4947776498247313
255,2034.1899999999998,0.49137750829651217
256,2043.5800000000002,0.48850888696603306
257,2053.01,0.48471914183329434
258,2067.24,0.47964771442938436
259,2072.0099999999998,0.4786900117599079
260,2076.78,0.4783413580904312
261,2086.37,0.4762002347486536
262,2096.0,0.472058970604616
263,2105.67,0.4684472606583187
264,2115.39,0.4654420767091968
265,2125.1600000000003,0.46163460875724993
266,2134.97,0.45739040900304373
267,2144.82,0.4551246974465774
268,2154.72,0.45195851888728655
269,2164.67,0.4476028003251709
270,2174.66,0.44412112596079567
271,2184.7,0.44149753559359556
272,2187.7616199999998,0.4404760011230895
273,2194.78,0.43893542698044785
274,2204.91,0.43617912153698146
275,2215.09,0.43219374871521554
276,2225.31,0.43012408119081014
277,2235.58,0.4295933802881053
278,2245.9,0.42655944900710097
279,2256.27,0.42246249134779723
280,2266.6800000000003,0.41987580398585383
281,2277.15,0.4181583495699513
282,2282.4,0.4185508128485101
283,2292.93,0.41471300737864825
284,2303.51,0.41329583953048676
285,2314.15,0.409412756628366
286,2324.83,0.4044770280236058
287,2335.56,0.4022090520405461
288,2346.34,0.3983719746791869
289,2357.17,0.3984205859395283
290,2362.6,0.3947318490562092
291,2373.51,0.3931317669112715
292,2384.46,0.3887323440636943
293,2395.4700000000003,0.38697274816215765
294,2406.53,0.38417159588232164
295,2417.64,0.3822108872241863
296,2423.21,0.38359811488162865
297,2434.39,0.38093572249387403
298,2445.63,0.37961665305215997
299,2456.92,0.37740413723214655
300,2462.58,0.37488006280865005
301,2473.95,0.37135681858335756
302,2485.37,0.36672507397976556
303,2496.8399999999997,0.3644177519978742
304,2502.6,0.36629078481777866
305,2511.88643,0.36027586811711615
306,2514.15,0.35894750368700173
307,2519.94,0.35736648456264947
308,2525.75,0.35649490339641693
309,2537.41,0.35621086898019116
310,2543.2599999999998,0.35551961273019805
311,2555.0,0.35802931214645095
312,2566.79,0.3531683164580032
313,2572.7100000000005,0.3542733960614287
314,2584.59,0.3510665391845195
315,2596.52,0.34801904720290955
316,2602.5,0.3459033936806942
317,2614.5099999999998,0.3431426345315629
318,2626.58,0.34336620025679065
319,2632.64,0.3481623235670541
320,2644.7900000000004,0.3516591731247604
321,2657.0,0.356951698556826
322,2663.12,0.34494798774144847
323,2675.41,0.3455839610059927
324,2687.76,0.34598885014489583
325,2693.96,0.33972257716199716
326,2706.3900000000003,0.34164489413337906
327,2712.6299999999997,0.33478514506671975
328,2725.15,0.33000731084964025
329,2737.73,0.3308083425069198
330,2744.04,0.32222026029367934
331,2756.71,0.3227478707624975
332,2763.06,0.3250216624654963
333,2775.82,0.324161101745853
334,2782.2200000000003,0.31707963834415104
335,2795.06,0.30895245845698655
336,2807.96,0.307790762444181
337,2814.43,0.3158980718958979
338,2827.42,0.320625023694631
339,2833.9399999999996,0.3192528520416472
340,2847.02,0.3127716726519187
341,2853.5899999999997,0.3050966058942341
342,2866.7599999999998,0.3158412253160443
343,2873.37,0.320907982474599
344,2884.0315,0.3164473815175739
345,2886.63,0.31549600956167667
346,2893.2799999999997,0.3189603328193832
347,2913.3399999999997,0.32764928201481036
348,2926.7900000000004,0.3207359922879158
349,2947.07,0.31601214032795893
350,2967.5,0.31674354212569467
351,2988.0699999999997,0.3146827340972769
352,3008.7799999999997,0.3134910862427055
353,3029.6400000000003,0.31284386214582666
354,3050.64,0.31162419822279436
355,3071.79,0.31256459805745473
356,3093.0800000000004,0.3107656180659615
357,3107.36,0.31441948579829954
358,3128.89,0.30888992181911457
359,3150.58,0.30635793518146825
360,3172.42,0.3076475323015147
361,3187.07,0.2981996126361612
362,3209.16,0.30146047935236203
363,3231.3999999999996,0.2896410098262554
364,3246.3199999999997,0.3044892769247487
365,3268.82,0.3115265905786426
366,3291.48,0.30694004157407534
367,3306.67,0.3029802554364153
368,3311.31121,0.3024659293635851
369,3321.9300000000003,0.30167833640626995
370,3329.59,0.3093844414204508
371,3337.27,0.30300603655216224
372,3344.96,0.3031933917426388
373,3352.6699999999996,0.2960721870506459
374,3360.4,0.3046523724761835
375,3368.1499999999996,0.3036460180192516
376,3375.91,0.2879060036210849
377,3383.6899999999996,0.28738252934044883
378,3391.49,0.30202560517734317
379,3399.31,0.30442171113176797
380,3407.15,0.3003521872037233
381,3415.0000000000005,0.2972727233344439
382,3422.87,0.308135269582695
383,3430.7599999999998,0.30104313594847665
384,3438.6699999999996,0.3016589824317887
385,3446.6000000000004,0.27661502903263124
386,3454.55,0.2986747257510043
387,3462.5099999999998,0.28429879252814266
388,3470.49,0.2941312794228115
389,3478.4900000000002,0.2784523764350108
390,3486.5099999999998,0.28821552356474067
391,3494.55,0.28263139081200095
392,3502.6000000000004,0.29815702811802647
393,3510.68,0.2965331356003479
394,3518.77,0.2876472331414344
395,3526.88,0.2815843608000515
396,3535.01,0.29392398857619906
397,3543.1600000000003,0.3031413664698771
398,3551.33,0.3007980044810857
399,3559.52,0.29627819260982474
400,3567.72,0.29024018079732905
401,3575.95,0.2778914591611291
402,3584.19,0.26418945758369444
403,3592.45,0.27430565612379026
404,3600.7299999999996,0.29960523478141654
405,3609.0299999999997,0.28172839355657336
406,3617.35,0.28908387244926065
407,3625.6899999999996,0.2915243214594785
408,3630.58,0.2921128201956853
409,3633.29,0.3257865361210678
410,3636.01,0.32840187210521554
411,3638.72,0.2658292680305981
412,3641.44,0.29790617401474584
413,3644.15,0.29496374994012836
414,3646.86,0.2697596358655109
415,3649.58,0.2699984618496587
416,3652.2900000000004,0.26211349777504117
417,3655.01,0.2525949137591889
418,3657.72,0.29786403968457154
419,3660.4399999999996,0.2931808956687193
420,3663.15,0.33293607159410177
421,3665.87,0.30438760757824956
422,3668.5800000000004,0.30432353350363206
423,3671.3,0.30131386948777983
424,3674.0099999999998,0.3003492854131624
425,3676.7300000000005,0.3079934313973101
426,3679.44,0.24423249732269267
427,3682.16,0.2702198133068404
428,3684.87,0.269078319232223
429,3687.59,0.2670597352163707
430,3690.3,0.2785046411417532
431,3693.0099999999998,0.29907800706713583
432,3695.73,0.29534875305128355
433,3698.44,0.33979976897666603
434,3701.16,0.31228740496081386
435,3703.8700000000003,0.28467794088619636
436,3706.59,0.25216166687034414
437,3709.2999999999997,0.29424820279572667
438,3712.02,0.2901530487798744
439,3714.73,0.30523705470525697
440,3717.45,0.30217389068940476
441,3720.1600000000003,0.3164890166147872
442,3722.88,0.255765382598935
443,3725.5899999999997,0.28399899852431754
444,3728.3100000000004,0.3100437145084653
445,3731.02,0.34629564043384786
446,3733.74,0.2958721764179956
447,3736.4500000000003,0.2567412323433781
448,3739.1600000000003,0.28235566826876063
449,3741.88,0.2976232642529084
450,3744.5899999999997,0.253973360178291
451,3747.31,0.22382311616243872
452,3750.02,0.21943273208782124
453,3752.74,0.275784958071969
454,3755.4500000000003,0.2470775339973515
455,3758.17,0.2369134099814993
456,3760.8799999999997,0.2953856759068818
457,3763.6,0.3013892118910296
458,3766.31,0.26848367781641214
459,3769.0299999999997,0.24334824380055992
460,3771.7400000000002,0.2640818097259424
461,3774.46,0.26729350571009014
462,3777.17,0.3086933616354727
463,3779.8900000000003,0.32777669761962047
464,3782.6,0.352355023545003
465,3785.31,0.2993383494703855
466,3788.03,0.26482776545453324
467,3790.7400000000002,0.2652405613799158
468,3793.46,0.27114141736406355
469,3796.1699999999996,0.2878989032894461
470,3798.89,0.2828868192735939
471,3801.6,0.2540354851989764
472,3801.8939600000003,0.25747504804232724
473,3804.3199999999997,0.28592423957266233
474,3807.03,0.28118085316405544
475,3809.75,0.29137470492368256
476,3812.4599999999996,0.2866395785150757
477,3815.1800000000003,0.3011056202747027
478,3817.89,0.3037019938660959
479,3820.6099999999997,0.288961535625723
480,3823.32,0.28668525921711613
481,3826.04,0.2715418809767432
482,3828.75,0.26948762456813635
483,3831.46,0.2576594581595295
484,3834.18,0.26161570991915656
485,3836.89,0.2632415635105497
486,3839.61,0.2607462852701768
487,3842.32,0.2554353988615699
488,3845.04,0.292175470621197
489,3847.75,0.3100844442125901
490,3850.47,0.2906892859722172
491,3853.18,0.2999057595636104
492,3855.9,0.3153380013232374
493,3858.61,0.2841718749146306
494,3861.33,0.29586241667425767
495,3864.0400000000004,0.3179900902656508
496,3866.76,0.30525623202527785
497,3869.47,0.32647930561667104
498,3872.1899999999996,0.3096622473762981
499,3874.9,0.2954164209676912
500,3877.61,0.2952906945590844
501,3880.3300000000004,0.28629453631871143
502,3883.04,0.2753010799101046
503,3885.7599999999998,0.2844382516697317
504,3888.47,0.2724826252611248
505,3891.19,0.2670103370207519
506,3893.9,0.28951624061214504
507,3896.62,0.28025690237177214
508,3899.33,0.2814757259631653
509,3902.05,0.3210117977227923
510,3904.7599999999998,0.2979789713141855
511,3907.48,0.32418021307381256
512,3910.19,0.3214270866652057
513,3912.91,0.3428749284248328
514,3915.6200000000003,0.30532320201622587
515,3918.34,0.296766843775853
516,3921.0499999999997,0.31895621736724616
517,3923.76,0.28961989095863927
518,3926.48,0.27791394271826636
519,3929.19,0.3037546063096595
520,3931.9100000000003,0.26727061806928654
521,3934.62,0.22025965166067976
522,3937.3399999999997,0.26144640342030684
523,3940.0499999999997,0.24606968701169996
524,3942.77,0.27547011877132704
525,3945.48,0.3079637523627202
526,3948.2,0.3080917941223473
527,3950.9100000000003,0.2886567677137404
528,3953.63,0.30042540947336743
529,3956.3399999999997,0.30781618306476066
530,3959.06,0.3041612248243877
531,3961.77,0.2940272984157808
532,3964.49,0.2845088401754079
533,3967.2000000000003,0.24841668376680104
534,3969.92,0.23396006552642812
535,3972.6299999999997,0.2210298691178213
536,3975.34,0.2368456927092144
537,3978.06,0.2884831444688415
538,3980.77,0.29283111806023465
539,3983.4900000000002,0.3155701598198617
540,3986.2,0.32022253341125484
541,3988.92,0.28360277517088195
542,3991.63,0.3124862487622751
543,3994.35,0.30995379052190214
544,3997.06,0.3303093641132953
545,3999.78,0.33255490587292236
546,4002.4900000000002,0.3231980794643155
547,4005.21,0.33212132122394256
548,4007.9199999999996,0.3187307948153357
549,4010.64,0.3433694365749628
550,4013.35,0.351669010166356
551,4016.0699999999997,0.37808395192598304
552,4018.78,0.34669182551737615
553,4021.49,0.33685809910876935
554,4024.2099999999996,0.35268104086839647
555,4026.92,0.34318451445978954
556,4029.64,0.33592745621941666
557,4032.35,0.3252219298108098
558,4035.07,0.33097077157043686
559,4037.78,0.32716914516183
560,4040.5,0.29912668692145705
561,4043.21,0.3408269605128502
562,4045.93,0.3337303022724773
563,4048.64,0.35052087586387043
564,4051.36,0.3234940176234975
565,4054.07,0.36034219121489064
566,4056.79,0.31262453297451775
567,4059.5,0.31030310656591087
568,4062.2200000000003,0.3134245483255379
569,4064.93,0.3387019219169311
570,4067.6400000000003,0.3274413955083242
571,4070.36,0.31123283726795126
572,4073.0699999999997,0.3081754108593445
573,4075.7900000000004,0.2881347526189715
574,4078.5,0.33573132621036467
575,4081.22,0.31235586796999176
576,4083.93,0.3300797415613849
577,4086.65,0.29741978332101193
578,4089.36,0.32078915691240506
579,4092.0800000000004,0.33220829867203217
580,4094.79,0.31932767226342534
581,4097.51,0.30023681402305236
582,4100.22,0.3207731876144455
583,4102.94,0.29374642937407264
584,4105.650000000001,0.28559440296546573
585,4108.37,0.2860924447250929
586,4111.08,0.30634511831648603
587,4113.79,0.32878129190787914
588,4116.51,0.3314421336675062
589,4119.22,0.31703590725889935
590,4121.94,0.3220446490185265
