,lambda (Angstroms),Total Flux (erg/s/cm^2/Angstrom)
0,102.00000000000001,3.0846754956279225
1,103.9,3.075884287950957
2,104.712855,3.0721232473675357
3,106.08,3.038895199359028
4,108.05,2.9910149419235705
5,110.06,2.9421624966328483
6,113.93,2.8481033108166405
7,117.92999999999999,2.7508845141525695
8,120.22644299999999,2.6950701591335067
9,120.95,2.680326282918915
10,124.92,2.5994298372945184
11,126.95,2.5580646523541923
12,128.12,2.5342236344413394
13,131.1,2.473500358277798
14,132.01,2.45495734497283
15,133.85,2.4174637788042923
16,136.97,2.3538877325032765
17,138.038426,2.3321164821842815
18,140.16,2.3012155407028954
19,143.09,2.2585397992740854
20,147.10000000000002,2.2001337521125186
21,150.88,2.1450776741410484
22,155.1,2.0836129535988994
23,158.489319,2.034247187656129
24,159.07999999999998,2.0277429151775275
25,162.04,1.995148934342265
26,165.80999999999997,1.953635658441125
27,170.07000000000002,1.9067267582533338
28,172.82999999999998,1.87633508239548
29,176.86,1.8319588317996023
30,180.14,1.7958411896825928
31,181.81,1.7774520312643727
32,181.970086,1.7756892484498992
33,186.05,1.741415111738007
34,190.82,1.7013437823789304
35,193.92,1.6753016218801928
36,197.98,1.6411947999041914
37,202.12,1.6064159298543095
38,204.93999999999997,1.5827259845972028
39,208.929613,1.5492104701021572
40,210.19,1.5412501722154768
41,216.07999999999998,1.5040504334999447
42,220.1,1.4786611391736397
43,223.16,1.4593349602831227
44,226.79000000000002,1.436408842796535
45,229.94,1.4165148826700908
46,234.21999999999997,1.389484715119475
47,239.88329199999998,1.3537178251347317
48,240.23,1.3520304728167056
49,245.82,1.3248243476376764
50,252.13,1.2941143718120083
51,256.81,1.2713363001253557
52,259.78999999999996,1.2568338033175175
53,264.01,1.2362957810999675
54,268.92,1.2123993645822637
55,273.92,1.188064937951105
56,275.42287,1.1807506331761328
57,279.01,1.1673523495914417
58,284.2,1.1479672532465741
59,290.15,1.125743136655408
60,296.21999999999997,1.1030713390520366
61,301.03999999999996,1.0850677967338014
62,308.05,1.0588851065568237
63,316.227766,1.0283407516094305
64,318.14000000000004,1.023006236111426
65,327.81,0.9960298544187963
66,337.77000000000004,0.9682443305338749
67,348.03000000000003,0.9396218373779618
68,356.96,0.9147098581991118
69,363.078055,0.8976424143950508
70,366.12,0.8912873591059758
71,374.64,0.8734877313816805
72,385.14,0.8515508473008233
73,395.02000000000004,0.8309105009549499
74,405.15000000000003,0.8097474867223897
75,413.64,0.7920105262984968
76,416.86938299999997,0.78526372991602
77,422.29999999999995,0.7765996503262275
78,430.15,0.7640757580058645
79,441.17999999999995,0.7464790168293288
80,451.46,0.7300785314783057
81,459.84999999999997,0.7166932639355738
82,469.47999999999996,0.7013300461099946
83,478.630092,0.6867325364740078
84,480.42,0.6845364548909042
85,490.48,0.6721934338553426
86,499.59999999999997,0.6610048188635014
87,506.55,0.6524991472082275
88,512.41,0.645413153773119
89,519.54,0.6366686275301116
90,530.42,0.6233242430759852
91,540.28,0.6112203017456832
92,549.5408739999999,0.5999019849991353
93,550.33,0.5991671832245903
94,560.5600000000001,0.589635783272231
95,569.6600000000001,0.5811505660392428
96,580.26,0.5712225788557622
97,589.68,0.5624576289066687
98,600.65,0.5521960147920665
99,610.41,0.5431188583008617
100,620.3199999999999,0.5339122643646075
101,630.4,0.5245122721572975
102,630.957344,0.5239920142632339
103,640.65,0.5168248078904383
104,649.56,0.5102739074184477
105,658.6,0.5035971120026458
106,664.69,0.4991314451271775
107,675.49,0.49115803554900717
108,684.89,0.4841825348272663
109,694.4200000000001,0.47727310186171396
110,705.6999999999999,0.46887609457562507
111,715.5200000000001,0.46177677209695517
112,724.43596,0.45521430552793446
113,725.47,0.45465096278513356
114,735.56,0.4491538173716607
115,745.7900000000001,0.44364130990190587
116,754.43,0.4389686428570689
117,764.9300000000001,0.43327041763591273
118,775.57,0.42754416635847464
119,784.55,0.42273656103409557
120,795.46,0.4168261180052562
121,804.67,0.411853308374128
122,815.8700000000001,0.4057849428715615
123,825.31,0.40077223893368413
124,831.763771,0.3970845843794038
125,834.87,0.3957417765225401
126,844.54,0.39216667854428966
127,854.3199999999999,0.3882668566076517
128,864.2099999999999,0.38439135371262617
129,874.22,0.3804609464993597
130,884.34,0.37652036632770564
131,894.5799999999999,0.3724929368378107
132,904.94,0.3683458060296747
133,915.42,0.36555133590329786
134,926.02,0.38501602245868005
135,934.59,0.41416691506430503
136,945.41,0.4689751717029121
137,954.16,0.5109340818311756
138,954.992586,0.5135516398103344
139,965.1999999999999,0.5457333995931087
140,974.14,0.38950025075522665
141,985.4200000000001,0.5584588312819256
142,994.53,0.5542709392782226
143,1006.05,0.5997458976884684
144,1015.36,0.5659722372543876
145,1024.75,0.41569045944815575
146,1034.23,0.510488105848254
147,1043.8,0.6419119064546822
148,1055.89,0.6416805448383516
149,1065.6599999999999,0.5975277770144023
150,1075.52,0.6329916533967828
151,1085.47,0.5881783739854933
152,1095.52,0.6375922103590153
153,1096.4782,0.6363043071709711
154,1105.6499999999999,0.6246462940581776
155,1115.88,0.6204932575214356
156,1126.21,0.5951408382228488
157,1134.02,0.6371199845227555
158,1144.51,0.6102645928052167
159,1155.1,0.620297618325833
160,1165.79,0.6283188610846041
161,1173.8700000000001,0.5514674539275294
162,1184.73,0.6080982259911641
163,1195.69,0.5293255152929539
164,1203.98,0.4680747443360047
165,1215.12,0.35726606466647354
166,1226.36,0.4810137022350973
167,1234.86,0.5765855674782736
168,1246.29,0.607676437799392
169,1254.9299999999998,0.6048281271759854
170,1258.92541,0.5885651550740578
171,1263.63,0.5698610468621194
172,1275.3200000000002,0.6270185933080615
173,1284.16,0.6389021563176535
174,1296.04,0.5930864283260191
175,1305.03,0.5875936220427872
176,1314.07,0.6347241593286143
177,1326.23,0.6224347953237089
178,1335.4199999999998,0.5985258633167123
179,1344.68,0.6313517723063979
180,1354.0,0.623427073578954
181,1366.53,0.5983223119850838
182,1376.0,0.6061043439648162
183,1385.5400000000002,0.6103585169412309
184,1395.14,0.5740489822005163
185,1404.82,0.5822015371702957
186,1414.55,0.5915498357091338
187,1424.3600000000001,0.5901542239584658
188,1434.23,0.5878367044906687
189,1440.85,0.6001668530340508
190,1445.43977,0.6010497416639056
191,1447.5,0.6015923365477076
192,1454.1799999999998,0.5957797978996523
193,1464.26,0.5784821425744432
194,1474.4099999999999,0.5750174986705868
195,1484.63,0.575137866188083
196,1494.92,0.5770780451269322
197,1505.29,0.5654799942616129
198,1512.23,0.5411119837500106
199,1515.72,0.5549981960431674
200,1526.23,0.5463952680205535
201,1533.27,0.5173940452537408
202,1543.9,0.5325893225248745
203,1554.6,0.5170551112173608
204,1565.38,0.5200859701056788
205,1576.23,0.5356401404153497
206,1583.5,0.543009969461553
207,1594.48,0.5499640038394502
208,1605.53,0.5359491496387001
209,1616.66,0.5341219656337817
210,1624.1200000000001,0.5219138113950853
211,1635.3799999999999,0.5336304914583935
212,1646.72,0.5334982417175331
213,1654.32,0.5136420103215422
214,1659.58691,0.5241309281125578
215,1665.79,0.5367892533848668
216,1673.48,0.5103513965252706
217,1677.33,0.5345881433510904
218,1685.08,0.5416912895589096
219,1696.76,0.5262436866824357
220,1704.59,0.515946236980142
221,1716.3999999999999,0.5062505907497348
222,1724.33,0.5028679461598
223,1736.28,0.5165428070866953
224,1744.29,0.5080251665866476
225,1756.3799999999999,0.5211308346708454
226,1764.49,0.4974385992831568
227,1776.72,0.5068142745246572
228,1784.92,0.5084010937380916
229,1793.16,0.5186420149964697
230,1805.59,0.5154739004626879
231,1813.92,0.500861176322189
232,1826.5,0.5010907194569457
233,1834.9299999999998,0.49344680042880573
234,1843.4,0.47317778344560935
235,1856.18,0.47327613680508396
236,1864.74,0.47783317442301065
237,1873.35,0.4906889645971168
238,1886.34,0.4713835786925452
239,1895.04,0.46027352346777445
240,1903.79,0.47254982079918306
241,1905.46072,0.4713611129905684
242,1916.99,0.46351218748161227
243,1925.8400000000001,0.45812689465921974
244,1934.73,0.46357773237774297
245,1943.65,0.474762143001953
246,1957.1299999999999,0.45703103529055744
247,1966.16,0.4728645799022858
248,1975.24,0.4786390126901588
249,1984.35,0.46491491838371857
250,1993.51,0.45706621225342303
251,2002.71,0.46099383666404325
252,2016.6000000000001,0.45511889199703404
253,2025.9099999999999,0.46220765039517253
254,2035.2600000000002,0.45199703933422686
255,2044.65,0.4558879588141968
256,2054.09,0.44048666647031154
257,2063.57,0.44499390466734184
258,2073.1,0.459029131040517
259,2077.87,0.44918572304471904
260,2082.66,0.45425923031937887
261,2097.1,0.441405255589961
262,2106.78,0.44442414649157014
263,2116.5,0.44437856793409497
264,2126.27,0.44744547755276454
265,2136.09,0.4328232753475787
266,2145.9500000000003,0.43576580368330864
267,2155.85,0.44029066255995436
268,2165.7999999999997,0.43182930961274474
269,2175.8,0.4294787448416797
270,2185.84,0.4263921106115305
271,2187.7616199999998,0.42795705088563357
272,2195.9300000000003,0.43483182356713324
273,2206.07,0.4274288442607181
274,2216.25,0.41797188535151636
275,2226.48,0.41160367693883126
276,2236.76,0.42343491902266284
277,2247.08,0.4140334815037079
278,2257.46,0.40697922458057284
279,2262.66,0.4088268762183087
280,2273.1,0.4132752998909937
281,2283.6,0.41632730415949876
282,2294.14,0.40422142882521717
283,2304.73,0.4050920039874523
284,2315.36,0.3982036995469007
285,2326.05,0.3616161757021692
286,2336.79,0.3881582023539544
287,2347.5699999999997,0.378272949402953
288,2352.9900000000002,0.39072046322536214
289,2363.85,0.3767645510687874
290,2374.7599999999998,0.3814847894087294
291,2385.7200000000003,0.3672438782451879
292,2396.73,0.37636911757816327
293,2402.2599999999998,0.36957326249290934
294,2413.34,0.3709325125210079
295,2424.48,0.37889634314492665
296,2435.67,0.370420324265362
297,2446.92,0.37773338598161743
298,2452.56,0.3747787619887002
299,2463.88,0.37155593440007895
300,2475.25,0.3651263573079744
301,2486.68,0.36906046081168997
302,2492.41,0.35662910771250267
303,2503.91,0.37410152191134155
304,2511.88643,0.36207732609568094
305,2515.4700000000003,0.3567272774945447
306,2527.08,0.35254528860081497
307,2532.91,0.3523227325930247
308,2544.6000000000004,0.35064544670433384
309,2556.3399999999997,0.36025883769379224
310,2562.2400000000002,0.3562160093154111
311,2574.0600000000004,0.36410610330990845
312,2585.94,0.36236484955818493
313,2597.88,0.3593302480602406
314,2603.87,0.3527591980625282
315,2615.8900000000003,0.3498044995696228
316,2627.9599999999996,0.35500497795486674
317,2634.0200000000004,0.3579734555865633
318,2646.1800000000003,0.37201041235247595
319,2652.28,0.373822691486692
320,2664.5200000000004,0.36005755125764355
321,2676.8199999999997,0.3648422632823743
322,2682.9900000000002,0.36593907004599935
323,2695.38,0.3562999604513989
324,2707.82,0.3590746277349477
325,2714.06,0.34985676212798184
326,2726.5899999999997,0.3474915077921994
327,2732.87,0.354891443687753
328,2745.49,0.3339161677326393
329,2758.16,0.3364424686556749
330,2764.52,0.3423200075562674
331,2777.2799999999997,0.34809918685997177
332,2783.68,0.3397419272630838
333,2796.5299999999997,0.3058556849474569
334,2802.98,0.31662500222871814
335,2815.91,0.3441216629181302
336,2822.4,0.3483112817019109
337,2835.43,0.3421265961476216
338,2841.97,0.3363078918095516
339,2855.09,0.32974888463593105
340,2868.26,0.3421427543404598
341,2874.88,0.3425199530074287
342,2884.0315,0.3421729432034921
343,2888.15,0.3420681496316391
344,2894.8,0.3412726249017627
345,2908.17,0.35249667623432684
346,2928.33,0.34486560442164876
347,2948.6200000000003,0.3405402340804167
348,2969.06,0.34129146543700695
349,2989.64,0.3401378983782314
350,3010.37,0.34087823301727815
351,3031.2299999999996,0.3397159691277709
352,3052.24,0.33918820693608603
353,3073.4,0.33675334644222354
354,3087.59,0.3363923070562164
355,3108.99,0.3352182492788697
356,3130.54,0.33091969319934517
357,3152.2400000000002,0.3297464388176431
358,3166.79,0.33000010350640957
359,3188.74,0.32147335195441135
360,3210.8399999999997,0.3257870021002355
361,3233.1,0.31793055405707005
362,3248.02,0.32669202293379834
363,3270.54,0.331129777833525
364,3293.2099999999996,0.328663534431074
365,3308.41,0.32640270647707065
366,3311.31121,0.3260929349259406
367,3323.68,0.32488047136027887
368,3331.3399999999997,0.3253733614688745
369,3339.02,0.31071602674746646
370,3346.7200000000003,0.32387406719605477
371,3354.43,0.3134165952296412
372,3362.17,0.30914768601822223
373,3369.92,0.3043661643918013
374,3377.6800000000003,0.3008034303503786
375,3385.47,0.3152886590639504
376,3393.28,0.3212454629475185
377,3401.1000000000004,0.32671515441608484
378,3408.9399999999996,0.3095294210546474
379,3416.7999999999997,0.3165708628632064
380,3424.67,0.32821499225676354
381,3432.5699999999997,0.33063388440531516
382,3440.48,0.32417976413886496
383,3448.4100000000003,0.3076870190424111
384,3456.36,0.30579784911595354
385,3464.33,0.30334005435949235
386,3472.3199999999997,0.3162481347730275
387,3480.32,0.30656190277156076
388,3488.3399999999997,0.3117547459400904
389,3496.38,0.31161886427861635
390,3504.4399999999996,0.31208775778713865
391,3512.52,0.30956152646565727
392,3520.62,0.3172723703141722
393,3528.7400000000002,0.3034018893326835
394,3536.87,0.314558195936193
395,3545.02,0.3224418777096988
396,3553.2000000000003,0.32419012223819904
397,3561.39,0.31905395435169753
398,3569.6,0.3044624616351923
399,3577.8300000000004,0.3008321440886834
400,3586.07,0.28884391412717275
401,3594.3399999999997,0.30228884692065655
402,3602.63,0.31836615488413667
403,3607.45,0.349134070853253
404,3610.18,0.29952268155775247
405,3612.92,0.2680003798472501
406,3615.65,0.3245742905517496
407,3618.3900000000003,0.32862448884124723
408,3621.12,0.3254979995457467
409,3623.8599999999997,0.3169973978352444
410,3626.59,0.3306782085397439
411,3629.33,0.3118994068292415
412,3632.06,0.323464717533741
413,3634.8,0.30797331582323867
414,3637.5299999999997,0.2850667265277381
415,3640.27,0.3132904248172358
416,3643.0,0.33254143552173526
417,3645.7400000000002,0.3215195338112329
418,3648.47,0.3179212445157324
419,3651.2099999999996,0.3190493428052301
420,3653.94,0.32544005350972954
421,3656.68,0.3209827517992272
422,3659.4100000000003,0.34837106250372674
423,3662.15,0.31250606079322435
424,3664.8799999999997,0.3101303714977239
425,3667.62,0.3252196697872215
426,3670.35,0.334030280491721
427,3673.09,0.32957287878121866
428,3675.82,0.34383198948571814
429,3678.56,0.3042839877752158
430,3681.29,0.29147279847971524
431,3684.0299999999997,0.30036799676921294
432,3686.76,0.3182442074737124
433,3689.5,0.33269430576321
434,3692.23,0.31558121646770954
435,3694.9700000000003,0.30256561475720717
436,3697.7,0.3054406254617067
437,3700.44,0.3282208237512043
438,3703.17,0.33307433445570384
439,3705.91,0.32135733274520145
440,3708.6400000000003,0.3337241434497009
441,3711.38,0.30457094173919863
442,3714.11,0.3109209524436981
443,3716.85,0.3210336507331958
444,3719.58,0.3363377614376952
445,3722.32,0.37862395972719287
446,3725.0499999999997,0.5120608704316923
447,3727.7900000000004,0.80440976872119
448,3730.52,1.2572814794256895
449,3733.2599999999998,1.397136277715187
450,3735.9900000000002,1.1022322884196867
451,3738.73,0.6764366867091843
452,3741.4599999999996,0.4251445974136838
453,3744.2,0.37182289570318144
454,3746.93,0.37128380640768094
455,3749.67,0.3430944046971786
456,3752.4,0.31595181540167805
457,3755.1400000000003,0.31905851369117577
458,3757.87,0.3350931243956752
459,3760.6099999999997,0.3669185226851729
460,3763.34,0.3615803333896723
461,3766.08,0.37558393167917004
462,3768.8100000000004,0.3777640423836695
463,3771.55,0.3531917406731671
464,3774.2799999999997,0.3566451513776666
465,3777.02,0.3637290496671643
466,3779.75,0.3766691603716638
467,3782.4900000000002,0.3965880586611614
468,3785.2200000000003,0.4347619693656609
469,3787.96,0.45450806765515855
470,3790.69,0.4296740783596581
471,3793.43,0.4139643766491557
472,3796.1600000000003,0.3796232873536552
473,3798.9,0.35478708564315287
474,3801.6299999999997,0.33062249634765234
475,3801.8939600000003,0.3334440648120734
476,3804.3700000000003,0.3599266486970977
477,3807.1,0.36851057802474435
478,3809.8399999999997,0.40066225654406745
479,3812.57,0.42953878587171407
480,3815.31,0.4641558643910372
481,3818.04,0.4440972937186838
482,3820.7799999999997,0.4509035722380068
483,3823.5099999999998,0.4327677015656535
484,3826.25,0.4049348800849765
485,3828.98,0.40656380941262316
486,3831.7200000000003,0.3855898879319462
487,3834.45,0.35399481725959286
488,3837.1899999999996,0.3476924957789159
489,3839.92,0.3312558251065626
490,3842.66,0.33843280362588557
491,3845.3900000000003,0.3795556329535323
492,3848.13,0.4263076114728553
493,3850.8599999999997,0.43433364080050196
494,3853.6,0.442540219319825
495,3856.33,0.46572474864747165
496,3859.07,0.45578982716679467
497,3861.8,0.4711719564944413
498,3864.5400000000004,0.4733413350137644
499,3867.27,0.4985755643414111
500,3870.0099999999998,0.4958797428607341
501,3872.7400000000002,0.5083246721883807
502,3875.48,0.5064710507077038
503,3878.2100000000005,0.4725933800353504
504,3880.9500000000003,0.4542117585546735
505,3883.68,0.4176858878823202
506,3886.42,0.3956364664016432
507,3889.15,0.3761712957292898
508,3891.89,0.4030469742486129
509,3894.62,0.40571060357625954
510,3897.36,0.3930312820955826
511,3900.09,0.3965168114232292
512,3902.83,0.41796428994255225
513,3905.56,0.43932241927019894
514,3908.3,0.44838619778952193
515,3911.0299999999997,0.4524350271171686
516,3913.7699999999995,0.4712189056364917
517,3916.5,0.4752830349641383
518,3919.24,0.47492601348346136
519,3921.9700000000003,0.47202974281110804
520,3924.71,0.476218321330431
521,3927.4399999999996,0.47003975065807774
522,3930.18,0.4522618291774007
523,3932.91,0.4226251585050474
524,3935.65,0.39821173702437046
525,3938.38,0.40510646635201714
526,3941.1200000000003,0.4299375448713401
527,3943.85,0.44164667419898684
528,3946.5899999999997,0.4479760527183098
529,3949.32,0.44583068204595644
530,3952.06,0.45894286056527955
531,3954.7900000000004,0.46302208989292615
532,3957.53,0.45879436841224924
533,3960.2599999999998,0.4388473977398959
534,3963.0,0.41891347625921893
535,3965.73,0.38066260558686554
536,3968.4700000000003,0.35187118410618856
537,3971.2,0.3470671134338353
538,3973.94,0.3451885919531583
539,3976.67,0.368951221280805
540,3979.41,0.372084799800128
541,3982.1400000000003,0.41112262912777464
542,3984.88,0.4365929076470977
543,3987.6099999999997,0.45179733697474433
544,3990.35,0.46038941549406737
545,3993.08,0.46874534482171404
546,3995.8199999999997,0.4837700233410371
547,3998.55,0.47916925266868376
548,4001.2799999999997,0.49156838199633046
549,4004.02,0.5014793605156534
550,4006.75,0.4964727898433001
551,4009.49,0.4933305683626232
552,4012.2200000000003,0.48805009769026986
553,4014.96,0.4952266762095929
554,4017.69,0.5107154055372395
555,4020.43,0.5077508840565625
556,4023.16,0.4980363133842092
557,4025.9,0.5092003919035323
558,4028.63,0.5133609212311789
559,4031.3700000000003,0.514434399750502
560,4034.1,0.5218113290781486
561,4036.8399999999997,0.5145954075974716
562,4039.57,0.5056673369251183
563,4042.31,0.5090542154444413
564,4045.04,0.512677144772088
565,4047.78,0.513339823291411
566,4050.5099999999998,0.5057103526190577
567,4053.25,0.5263559311383808
568,4055.98,0.5259659604660274
569,4058.7200000000003,0.5065746389853504
570,4061.45,0.5013244683129972
571,4064.1899999999996,0.5010334468323201
572,4066.92,0.5006940761599667
573,4069.66,0.5063132546792898
574,4072.3900000000003,0.5085662840069365
575,4075.13,0.5069104625262595
576,4077.8599999999997,0.48312829185390616
577,4080.6,0.4878139703732292
578,4083.33,0.4782261997008759
579,4086.07,0.4730143782201989
580,4088.8,0.4745165075478456
581,4091.54,0.4576516860671686
582,4094.27,0.4471355153948152
583,4097.01,0.4323659939141383
584,4099.74,0.411368723241785
585,4102.48,0.425987801761108
586,4105.21,0.4297980310887547
587,4107.95,0.4152365096080777
