,lambda (Angstroms),Total Flux (erg/s/cm^2/Angstrom)
0,101.99,0.9591826815560586
1,103.88,0.9564641244438626
2,104.712855,0.9552662640183658
3,106.06,0.9450859474544111
4,108.03,0.9301990694640977
5,110.03999999999999,0.9150110765288139
6,113.91,0.8857680241363864
7,117.91,0.8555428776993037
8,120.22644299999999,0.8380468651344528
9,120.94000000000001,0.8335288740404075
10,124.89999999999999,0.8084493778044496
11,126.92999999999999,0.7955938691465466
12,128.1,0.7881847821593317
13,131.08,0.7693119984778782
14,131.99,0.7635532891722668
15,134.14000000000001,0.749936321030547
16,136.95000000000002,0.7321558308578342
17,138.038426,0.7252652780749793
18,140.14000000000001,0.7157586229313293
19,143.07,0.7025673973894586
20,147.08,0.6845364360864205
21,150.85,0.6674904036414194
22,155.07999999999998,0.6484378935185139
23,158.489319,0.6330648512413795
24,159.06,0.631122170913879
25,162.01,0.6210843472326425
26,166.17,0.6069357879916447
27,170.04,0.5937844267542262
28,172.8,0.5842846606856794
29,176.83,0.5707367581428379
30,180.12,0.5595628601125776
31,181.970086,0.5532855252786403
32,182.2,0.5526920737472312
33,186.02,0.5428481220706196
34,190.79,0.5305684175241702
35,193.89,0.5225936709489095
36,197.95,0.512145751905181
37,202.09,0.5015041780724134
38,204.9,0.494291983857419
39,208.929613,0.4838818924508812
40,210.16,0.48150097466646985
41,216.04999999999998,0.4702945038852797
42,220.07,0.46260822283767616
43,223.13,0.4567226136372616
44,226.75,0.4498632942759868
45,229.91,0.44476326315399006
46,234.18,0.43913037230243107
47,239.88329199999998,0.4292912599259981
48,240.19,0.42890030789912936
49,245.78,0.42053862386106694
50,252.08999999999997,0.41185553738876396
51,256.77,0.40422702856620013
52,259.75,0.4007060381022599
53,263.97,0.39606719022379416
54,268.88,0.3893515769291813
55,273.87,0.3824401142529861
56,275.42287,0.379955993267118
57,278.97,0.3755299862812716
58,284.15,0.3713670973374846
59,290.1,0.36534241814529667
60,296.18,0.3583503015085735
61,300.99,0.35326573606077116
62,308.0,0.3473423684746809
63,316.227766,0.3387661018852726
64,318.09,0.33737240968922855
65,327.76,0.33103283685346774
66,337.72,0.3231410738809571
67,347.98,0.31470210593939496
68,356.9,0.315953305526263
69,363.078055,0.3236380934543994
70,366.06,0.3279968469504831
71,374.59,0.3233980569945965
72,385.08,0.3084754271895261
73,394.96000000000004,0.32775072570486496
74,405.09000000000003,0.3421949309741345
75,413.57,0.3394317636674618
76,416.86938299999997,0.3346927543895193
77,422.22999999999996,0.3278161847682339
78,430.08,0.322150718527072
79,441.12,0.33447229401720857
80,451.39,0.3339589883997904
81,459.78,0.31817012981847215
82,470.49,0.31757588340537096
83,478.630092,0.3266605259545341
84,480.34,0.32876472840458904
85,490.4,0.307447181621894
86,499.52000000000004,0.3308827396678007
87,506.46999999999997,0.31055820928611777
88,512.33,0.38224327748228154
89,519.46,0.37295176660150464
90,530.34,0.3567387119896039
91,540.1999999999999,0.3246316468725689
92,549.5408739999999,0.31935410365947
93,550.24,0.3190223630047221
94,560.47,0.36114480234930013
95,569.58,0.3834232416874337
96,580.17,0.3766379953197976
97,589.59,0.37853250251685766
98,600.55,0.33952945972277904
99,610.3100000000001,0.33437980263608125
100,620.23,0.3787272741217327
101,630.3100000000001,0.3634273741797334
102,630.957344,0.3645579142406011
103,640.55,0.3818895000420023
104,649.46,0.3713401682317179
105,658.49,0.34963974710412327
106,664.59,0.37532490680752
107,675.39,0.38535126824959953
108,684.78,0.3458068791700742
109,694.3100000000001,0.37885188588702023
110,705.5899999999999,0.3271195900598589
111,715.41,0.38153388092663854
112,724.43596,0.3809634711935977
113,725.36,0.3809600226415746
114,735.45,0.37978140969878227
115,745.68,0.3682623175873089
116,754.31,0.3646744731179037
117,764.81,0.3370699354668314
118,775.45,0.35999861864707805
119,784.43,0.33796102625597046
120,795.3399999999999,0.35244296389661817
121,804.55,0.3550132771569633
122,815.7399999999999,0.3530971564602491
123,825.1899999999999,0.35464206257428393
124,831.763771,0.3174190157222667
125,834.74,0.30069527005655317
126,844.41,0.34406804629818627
127,854.1899999999999,0.33774553953946573
128,864.08,0.34412934978039134
129,874.08,0.3423377770209634
130,884.1999999999999,0.34052514098842224
131,894.4399999999999,0.338696641682768
132,904.8000000000001,0.33126947910400056
133,915.28,0.32156005325212
134,925.88,0.5785456641271263
135,934.4399999999999,0.840895750645056
136,945.26,1.081153595519355
137,954.01,1.2396853568548554
138,954.992586,1.2455277241646288
139,965.06,1.3054154968255853
140,973.99,0.5596964091100736
141,985.26,1.0153711088240915
142,994.38,1.0017078213699517
143,1005.89,1.2489480582562293
144,1015.2,1.2772368710634616
145,1024.6,0.9112266103102913
146,1034.08,1.1018659286145407
147,1046.05,1.5018515450809822
148,1055.73,1.4404250110287813
149,1065.5,1.1999392034161778
150,1075.3600000000001,1.3167161222431711
151,1085.31,1.1427987675097622
152,1095.35,1.3398621392159504
153,1096.4782,1.332842028665908
154,1105.48,1.2770336098128028
155,1115.71,1.2356374386816953
156,1126.04,1.0863970117233046
157,1133.84,1.2906660571951873
158,1144.3300000000002,1.214337220913143
159,1154.92,1.2210941288038148
160,1165.61,1.1992227808672031
161,1173.69,0.8262130100226921
162,1184.55,1.1347823271796984
163,1195.51,0.946224988509421
164,1203.79,0.801172806010343
165,1214.93,0.6756550068509554
166,1226.17,0.9214061518642841
167,1234.6699999999998,1.1223941065451821
168,1246.1,1.1580178654866722
169,1254.74,1.1131197620093736
170,1258.92541,1.0892820670243233
171,1266.35,1.0472144863297719
172,1275.12,1.1936304933399242
173,1283.96,1.2138491825040918
174,1295.8400000000001,1.0228673109283348
175,1304.83,1.019993333279677
176,1313.8700000000001,1.1728334000267442
177,1326.03,1.1174193570670468
178,1335.22,1.0287986570012886
179,1344.47,1.1306751702104005
180,1353.79,1.0938557655735273
181,1366.32,1.0024794711421945
182,1375.79,1.006109499692496
183,1385.33,0.9946214103968124
184,1394.93,0.7805872343759986
185,1404.6,0.7684072405091998
186,1414.3400000000001,0.916454028796416
187,1424.14,0.9020740303585021
188,1434.01,0.9209526140746029
189,1440.6299999999999,0.9384975120685836
190,1445.43977,0.9396018096794172
191,1447.28,0.9400649471134856
192,1453.96,0.9059177460127353
193,1464.04,0.8488396323756752
194,1474.19,0.8519705464216909
195,1484.3999999999999,0.8588081984817718
196,1494.6899999999998,0.8527645678939395
197,1505.06,0.805958654658194
198,1512.0,0.736463684951726
199,1515.4899999999998,0.7667355794365137
200,1525.9900000000002,0.7500141318979093
201,1536.57,0.6487354017113918
202,1543.66,0.6190110770400866
203,1554.36,0.6081453228816992
204,1565.1399999999999,0.6569208860753988
205,1575.9899999999998,0.6921674769521743
206,1583.26,0.7097136663230643
207,1594.24,0.7106636228969808
208,1605.29,0.6951024071539734
209,1616.41,0.6857111190940419
210,1623.8700000000001,0.6665819121761383
211,1635.1299999999999,0.6950646794823587
212,1646.4599999999998,0.6944939744716552
213,1654.06,0.6678904229199034
214,1659.58691,0.680236128187561
215,1665.53,0.6936023449767014
216,1673.22,0.6351640829466281
217,1677.07,0.7082450732176578
218,1684.82,0.71100876662038
219,1696.49,0.6749068482990598
220,1704.32,0.6547096822788423
221,1716.1399999999999,0.6163031025395102
222,1724.06,0.6056020196684856
223,1736.01,0.6342761933668766
224,1744.02,0.6219047936450449
225,1756.11,0.6390072633532914
226,1764.22,0.6067497893527852
227,1776.45,0.5960648550708874
228,1784.65,0.6073176642195741
229,1797.02,0.6226753259475319
230,1805.31,0.6210482182454116
231,1813.65,0.5735327234039538
232,1826.22,0.5829494365745626
233,1834.6499999999999,0.5655008248822978
234,1843.1200000000001,0.5268634834785632
235,1855.89,0.5241948480918227
236,1864.46,0.5317388324094137
237,1873.06,0.5581304444434021
238,1886.05,0.5143004456435777
239,1894.75,0.4915913833988916
240,1903.5,0.5191603340148683
241,1905.46072,0.5155677646800572
242,1916.69,0.4950999248133306
243,1925.54,0.47836891749338817
244,1934.43,0.5009794624567454
245,1943.3600000000001,0.5082611597034024
246,1956.83,0.4695290411045748
247,1965.8600000000001,0.504427119059481
248,1974.93,0.5161710492976869
249,1984.05,0.4891493698900174
250,1993.21,0.4765922427656476
251,2007.02,0.4896007185748674
252,2016.29,0.4759904102295718
253,2025.59,0.4922484160967509
254,2034.94,0.4605868123180547
255,2044.3400000000001,0.4682212988934831
256,2053.77,0.4254122996813862
257,2063.25,0.437931690823414
258,2072.7799999999997,0.4745106723195664
259,2077.5499999999997,0.4441051321030551
260,2087.1400000000003,0.45823784202415696
261,2096.78,0.43520074229938355
262,2106.46,0.4405273948579098
263,2116.18,0.4430902996997358
264,2125.9500000000003,0.4437850948956863
265,2135.7599999999998,0.4259634423749366
266,2145.62,0.42120588020831146
267,2155.52,0.432746270324986
268,2165.47,0.4215865507957852
269,2175.47,0.41864172162070906
270,2185.5099999999998,0.40612934472893253
271,2187.7616199999998,0.4086059288948485
272,2195.6,0.4172938660138008
273,2205.73,0.4092013544986025
274,2215.9100000000003,0.39537155694433607
275,2226.14,0.38527367335100154
276,2236.41,0.3924938809264125
277,2246.7400000000002,0.38327412525494176
278,2257.11,0.3711267607522165
279,2267.53,0.3764742102104232
280,2272.75,0.37718420773171296
281,2283.24,0.37779711673522426
282,2293.78,0.35666343969966746
283,2304.37,0.3587575766250426
284,2315.01,0.3466685275113495
285,2325.69,0.2980669695664021
286,2336.43,0.33133974837457286
287,2347.21,0.32838321835148915
288,2352.62,0.33315294892432
289,2363.48,0.3212955012387274
290,2374.3900000000003,0.3197696675140666
291,2385.35,0.3077577477503377
292,2396.3599999999997,0.31606254194754074
293,2407.42,0.3067343501056757
294,2412.9700000000003,0.30858479976911585
295,2424.1099999999997,0.31228739026474184
296,2435.3,0.3018065947212996
297,2446.54,0.3086571131387894
298,2452.18,0.304056367931907
299,2463.5,0.3013225686868877
300,2474.8700000000003,0.29427358340280035
301,2486.29,0.29530421207964497
302,2497.77,0.2609858775096078
303,2503.5299999999997,0.2919306058089619
304,2511.88643,0.28020846986472575
305,2515.08,0.2757430570845549
306,2520.8799999999997,0.2856312768682536
307,2526.6899999999996,0.2784891646170967
308,2532.52,0.27841078829622845
309,2544.21,0.27138963954992473
310,2555.9500000000003,0.2769522306293426
311,2567.7499999999995,0.27336252949962636
312,2573.67,0.2784845648650568
313,2585.5499999999997,0.275427007456495
314,2597.4799999999996,0.2724205898736547
315,2603.47,0.2667090009950953
316,2615.49,0.26323279509855385
317,2627.56,0.2647406290277339
318,2633.62,0.2646609159051847
319,2645.77,0.2689674935555192
320,2657.9799999999996,0.26714017899671955
321,2664.11,0.2555917416301805
322,2676.4100000000003,0.2581128387576796
323,2682.58,0.2564315732517178
324,2694.96,0.2494022141003714
325,2707.3999999999996,0.24873806273989083
326,2713.64,0.24403937298993916
327,2726.17,0.2438723333157574
328,2732.4500000000003,0.24584091542638295
329,2745.06,0.23322511947335564
330,2757.73,0.23210773131119417
331,2764.09,0.23299025714297422
332,2776.8500000000004,0.2372211806671115
333,2783.25,0.2332201783594688
334,2796.1000000000004,0.21363481356990488
335,2802.54,0.21983388312283936
336,2815.48,0.23087853001957423
337,2821.97,0.22984263939823027
338,2834.9999999999995,0.2212372979812639
339,2848.08,0.21969879639001907
340,2854.65,0.21779524948982956
341,2867.8199999999997,0.22082175958488354
342,2874.43,0.21755108454527128
343,2884.0315,0.21677355098468284
344,2887.7000000000003,0.21649070312998567
345,2894.36,0.21331169974450642
346,2907.72,0.21541941998024178
347,2927.8700000000003,0.21081642460225278
348,2948.17,0.20674383049936565
349,2968.6099999999997,0.20441963091990684
350,2989.1800000000003,0.20129541911220294
351,3009.8999999999996,0.1986350085796009
352,3030.77,0.19640649932210064
353,3051.77,0.19299567783635532
354,3072.93,0.19003086437738526
355,3087.11,0.1871829382503439
356,3108.5099999999998,0.18430518683153677
357,3130.06,0.1807242366878314
358,3151.76,0.17904568781922792
359,3173.6,0.17556383347405274
360,3188.2500000000005,0.17080022467566375
361,3210.3500000000004,0.16990284587399843
362,3232.6,0.16659246834743494
363,3247.52,0.1654351418442292
364,3270.0299999999997,0.16320713986117552
365,3292.7000000000003,0.16100494590489708
366,3307.8999999999996,0.1588982084485481
367,3311.31121,0.1596044450393903
368,3323.1699999999996,0.16209187289184607
369,3330.8300000000004,0.16038627905281552
370,3338.51,0.1567540531149885
371,3346.2,0.15702816112776333
372,3353.92,0.15316397099234347
373,3361.65,0.1540593148075254
374,3369.4,0.15088992652391092
375,3377.17,0.14961190614150002
376,3384.95,0.15422911970969091
377,3392.75,0.15354910117908535
378,3400.5800000000004,0.1557220845002852
379,3408.41,0.14850146782148504
380,3416.27,0.1502858529944902
381,3424.15,0.15178520606869897
382,3432.04,0.15204609309350953
383,3439.95,0.15168614801952365
384,3447.8799999999997,0.14764547084674137
385,3455.83,0.1437245615751626
386,3463.8,0.14250512020478748
387,3471.7799999999997,0.14333111278501412
388,3479.79,0.14269630721704613
389,3487.81,0.14148483559967992
390,3495.85,0.1440602318835173
391,3503.91,0.13994699606855823
392,3511.98,0.13876089420420096
393,3520.08,0.13984529419164907
394,3528.19,0.14008042812969893
395,3536.33,0.14088956391955418
396,3544.48,0.1405511336600112
397,3552.65,0.14107517130167183
398,3560.84,0.140159676844536
399,3569.0499999999997,0.13755365028860375
400,3577.2799999999997,0.1320115916338751
401,3585.52,0.1311575669297482
402,3593.79,0.1311041440774267
403,3602.07,0.13266125517570698
404,3610.38,0.1326093681257926
405,3618.7000000000003,0.13255631502648002
406,3627.0400000000004,0.13634782982837104
407,3635.3999999999996,0.1340824125314656
408,3643.7799999999997,0.13402886313576376
409,3652.18,0.13180538164126548
410,3659.79,0.11933751804922599
411,3662.5200000000004,0.12528238656351404
412,3665.25,0.1288639550778021
413,3667.98,0.13224062359209016
414,3670.7000000000003,0.13286815815577643
415,3673.43,0.1360665266700645
416,3676.16,0.12718059518435254
417,3678.8900000000003,0.11354333369864061
418,3681.62,0.11687663221292868
419,3684.35,0.13448230072721676
420,3687.07,0.106153345290903
421,3689.7999999999997,0.11069992380519109
422,3692.53,0.11136843231947914
423,3695.26,0.1272976408337672
424,3697.99,0.11089888934805527
425,3700.7200000000003,0.1292978778623433
426,3703.44,0.1117398424260296
427,3706.1699999999996,0.10949186094031765
428,3708.9,0.12859084945460572
429,3711.63,0.12792111796889377
430,3714.3599999999997,0.14334358648318185
431,3717.08,0.1468176210468681
432,3719.81,0.1901766895611562
433,3722.54,0.30741755807544424
434,3725.27,0.4909206265897323
435,3728.0,0.5682803951040203
436,3730.73,0.49138366361830843
437,3733.45,0.31356229818199466
438,3736.18,0.19153516669628276
439,3738.91,0.14799143521057084
440,3741.64,0.15220630372485888
441,3744.3700000000003,0.15011327223914694
442,3747.1,0.13325954075343502
443,3749.8199999999997,0.13208717531712127
444,3752.55,0.14078014383140933
445,3755.2799999999997,0.14705161234569739
446,3758.0099999999998,0.14568188085998546
447,3760.7400000000002,0.14971014937427352
448,3763.47,0.13607621788856158
449,3766.1899999999996,0.12633775245224785
450,3768.92,0.12195822096653591
451,3771.6499999999996,0.11769368948082398
452,3774.38,0.13180965799511205
453,3777.11,0.1417941265094001
454,3779.83,0.14222176107308637
455,3782.56,0.14678662958737443
456,3785.29,0.1537496981016625
457,3788.0200000000004,0.15938286661595055
458,3790.75,0.14986363513023862
459,3793.48,0.1414710036445267
460,3796.2000000000003,0.14147523820821295
461,3798.93,0.126479806722501
462,3801.66,0.13431947523678908
463,3801.8939600000003,0.13385731155385885
464,3804.3900000000003,0.1289314252384444
465,3807.12,0.13620972342073162
466,3809.8500000000004,0.15635712160301884
467,3812.57,0.15228526667841122
468,3815.2999999999997,0.14809586486069845
469,3818.03,0.15675906304298567
470,3820.76,0.1646806612252729
471,3823.49,0.1368661594075601
472,3826.2200000000003,0.13034035758984733
473,3828.94,0.13926260266523974
474,3831.6699999999996,0.13579820084752695
475,3834.4,0.12411109902981418
476,3837.13,0.1366289972121014
477,3839.86,0.13809769539438863
478,3842.58,0.12982424046978103
479,3845.31,0.14298553865206823
480,3848.04,0.15757163683435546
481,3850.77,0.16384503501664266
482,3853.5000000000005,0.1587490331989299
483,3856.23,0.16062603138121712
484,3858.95,0.16654517645660952
485,3861.6800000000003,0.16722387463889674
486,3864.41,0.19822387282118398
487,3867.14,0.22842567100347116
488,3869.8700000000003,0.2337455691857584
489,3872.6,0.2080176673680456
490,3875.3199999999997,0.174924512443438
491,3878.05,0.14613671062572525
492,3880.7799999999997,0.13548280880801244
493,3883.51,0.13735310699029968
494,3886.2400000000002,0.16125200517258692
495,3888.96,0.15860335024797928
496,3891.69,0.13948664843026654
497,3894.42,0.13700054661255373
498,3897.1499999999996,0.13697094479484095
499,3899.88,0.14225104297712818
500,3902.61,0.14089484115941542
501,3905.3300000000004,0.1484454862348078
502,3908.06,0.14942088441709503
503,3910.79,0.15474088259938226
504,3913.52,0.13762748078166948
505,3916.25,0.1362012789639567
506,3918.98,0.13641667714624392
507,3921.7000000000003,0.1499202222216363
508,3924.43,0.14440942040392352
509,3927.1600000000003,0.14333821858621076
510,3929.89,0.13893391676849798
511,3932.62,0.13710941495078519
512,3935.3500000000004,0.13422501313307242
513,3938.07,0.1413339582084648
514,3940.7999999999997,0.14554415639075202
515,3943.53,0.14437295457303925
516,3946.2599999999998,0.14468675275532647
517,3948.99,0.14084735093761372
518,3951.71,0.13581379601300608
519,3954.44,0.1289629941952933
520,3957.17,0.13593129237758053
521,3959.9,0.13850319055986776
522,3962.6299999999997,0.14598148874215497
523,3965.36,0.14775008692444222
524,3968.08,0.1546641319998346
525,3970.8100000000004,0.15924923018212184
526,3973.54,0.14324572836440902
527,3976.27,0.13157192654669625
528,3978.9999999999995,0.1324039247289835
529,3981.73,0.1443502229112707
530,3984.45,0.1427614679866631
531,3987.1800000000003,0.13839376616895033
532,3989.91,0.14096906435123754
533,3992.64,0.14574916253352477
534,3995.37,0.14505126071581198
535,3998.1,0.13944705889809922
536,4000.8199999999997,0.13871160397349158
537,4003.55,0.14015360215577882
538,4006.2799999999997,0.14558860033806603
539,4009.01,0.14488239852035326
540,4011.74,0.14817599670264048
541,4014.46,0.1565115417780329
542,4017.19,0.1460026399603201
543,4019.92,0.14242993814260732
544,4022.6499999999996,0.15094643632489455
545,4025.38,0.14773043450718176
546,4028.1099999999997,0.14347283268946898
547,4030.8300000000004,0.1412106777648614
548,4033.56,0.1441992759471486
549,4036.29,0.15111927412943582
550,4039.02,0.15832417231172305
551,4041.75,0.14985687049401028
552,4044.4799999999996,0.1371330686762975
553,4047.2000000000003,0.14305381375168988
554,4049.93,0.1475139119339771
555,4052.6600000000003,0.14047481011626434
556,4055.39,0.13734880829855153
557,4058.12,0.13773750648083877
558,4060.85,0.14466250466312597
559,4063.57,0.13786734973851839
560,4066.2999999999997,0.1358195479208056
561,4069.03,0.13584164610309282
562,4071.7599999999998,0.15186604428538003
563,4074.4900000000002,0.15269134246766727
564,4077.21,0.13030728754305967
565,4079.94,0.13349418572534688
566,4082.67,0.1327629839076341
567,4085.4,0.13604488208992135
568,4088.1299999999997,0.13370208027220856
569,4090.86,0.13018937845449577
570,4093.58,0.13244702352988819
571,4096.31,0.1420251217121754
572,4099.04,0.15527301989446263
573,4101.77,0.16099641807674983
574,4104.5,0.16442661625903707
575,4107.2300000000005,0.14398671444132427
576,4109.95,0.13751655951671668
577,4112.68,0.1329355576990039
578,4115.41,0.12857465588129113
579,4118.14,0.12433035406357834
580,4120.87,0.14697095224586557
581,4123.59,0.13335789732125797
582,4126.32,0.1405011955035452
583,4129.05,0.1296973936858324
584,4131.78,0.12819959186811963
585,4134.51,0.13174969005040685
