,lambda (Angstroms),Total Flux (erg/s/cm^2/Angstrom)
0,102.07000000000001,0.17105015606415971
1,103.97,0.17057673340125393
2,104.712855,0.17039252268851224
3,105.9,0.1688037692371955
4,108.12,0.16583006887171375
5,109.88,0.16348223321980032
6,114.0,0.15797084299827557
7,118.01,0.15260765282999544
8,120.22644299999999,0.14966483249278778
9,121.04,0.1487617114378693
10,125.0,0.14433782902458425
11,127.03,0.1420713259478245
12,127.91,0.14109055283376118
13,130.89,0.13776140617477395
14,132.1,0.13641175296793687
15,133.94,0.1343549133476226
16,137.06,0.1308811692523071
17,138.038426,0.1297895726732978
18,139.93,0.12828834596441038
19,142.86,0.12600567050024997
20,146.85999999999999,0.12287781331573067
21,150.98,0.11957645188967575
22,154.85,0.11655926060015327
23,158.489319,0.11368372848168483
24,158.82,0.11348755946876332
25,162.15,0.11150868914695226
26,165.93,0.10927329444111268
27,170.17999999999998,0.10674807898084336
28,172.95000000000002,0.10505791513026778
29,176.98,0.10272337304441237
30,179.85000000000002,0.10102381684183047
31,181.93,0.09979240512009865
32,181.970086,0.0997685930894917
33,186.17000000000002,0.09788130410960778
34,190.95000000000002,0.09574206417762658
35,194.04999999999998,0.0943566849372204
36,198.10999999999999,0.09253417201591418
37,201.8,0.09088656633620484
38,205.07999999999998,0.08941235584312991
39,208.929613,0.08766423996549925
40,209.85,0.08735261732840743
41,216.23,0.08525557997468157
42,220.25,0.0839180240119891
43,222.8,0.08306842516998267
44,226.94,0.0816977972382546
45,230.1,0.08130585005365056
46,233.83999999999997,0.08295083301870784
47,239.83999999999997,0.08884479556692802
48,239.88329199999998,0.08883144909445828
49,245.98999999999998,0.08743903294497843
50,251.72,0.0881299888376757
51,256.99,0.07950517293794002
52,259.96,0.08687573207603964
53,264.19,0.09171034951515127
54,269.1,0.09165058838655502
55,274.1,0.09093218656517392
56,275.42287,0.09025320427621758
57,279.2,0.08855140610636233
58,283.74,0.09034534387439294
59,289.68,0.08899279337705854
60,295.74,0.08608361731412144
61,301.24,0.07673686055733034
62,308.26,0.08043292996957152
63,316.227766,0.08554569018110217
64,318.36,0.08702559374973472
65,328.03,0.08689180444020832
66,337.99999999999994,0.08542309079843187
67,348.27,0.08368960282440538
68,357.20000000000005,0.08568600353442907
69,363.078055,0.08828814472187271
70,366.36,0.08986841336737417
71,374.90000000000003,0.0886935714323851
72,385.4,0.08435531036477559
73,395.29,0.08842658586395102
74,405.43,0.09038963014723098
75,413.91999999999996,0.08930379645542103
76,416.86938299999997,0.08837131515348148
77,421.60999999999996,0.08700221608700964
78,430.44,0.08492479769835448
79,441.48,0.08657865369940171
80,450.73,0.08597059510426464
81,460.16,0.08279249356349247
82,469.8,0.08184164691947937
83,478.630092,0.0825066697787482
84,479.64,0.08260334497823923
85,489.67999999999995,0.07884949773822475
86,499.93,0.0812254422292458
87,505.71999999999997,0.08032219995636893
88,511.58000000000004,0.09572831826050389
89,519.89,0.09286399676005364
90,529.5600000000001,0.08935863647011937
91,539.4,0.08352741758149959
92,549.43,0.08205387025905483
93,549.5408739999999,0.08212337788831503
94,559.65,0.0886238571555781
95,570.05,0.08978514567756841
96,580.65,0.08727734070959701
97,590.0799999999999,0.08730309065790169
98,599.67,0.08198164181423699
99,609.4200000000001,0.0776082941786029
100,619.32,0.08604515642549754
101,629.38,0.08335958988042279
102,630.957344,0.08353181117335123
103,639.61,0.08456956179166433
104,650.0,0.08249449133299153
105,657.5300000000001,0.07962014682348179
106,665.14,0.08187229291679265
107,674.39,0.08237197636792609
108,685.35,0.07718641895435016
109,694.89,0.08014935834070833
110,704.5500000000001,0.07390480363129742
111,716.0,0.07915863865999774
112,724.43596,0.07839601436759187
113,725.9599999999999,0.0782743878629547
114,734.37,0.07789525468392745
115,744.5799999999999,0.07601886336907988
116,754.94,0.07488002387624729
117,765.44,0.07020873141729535
118,774.31,0.07324950849244737
119,785.0799999999999,0.07090572531312236
120,794.17,0.07140330772722966
121,805.2199999999999,0.07095381861566594
122,814.54,0.07033632115686288
123,825.8699999999999,0.06988063611306043
124,831.763771,0.0657825266944182
125,835.4399999999999,0.06325467243668581
126,845.11,0.0679876128882546
127,854.9,0.06681231568255225
128,864.8000000000001,0.06689903895768472
129,874.8100000000001,0.06625294271365198
130,884.94,0.06560649881234815
131,895.19,0.06495873725377316
132,905.55,0.063710176176033
133,916.0400000000001,0.06267535930291578
134,924.5100000000001,0.10678114632719578
135,935.2199999999999,0.1455817504157482
136,946.05,0.18018477684702944
137,954.8,0.1930871560043435
138,954.992586,0.1933522452223881
139,965.86,0.20831629068750518
140,974.8,0.12348284082541056
141,986.08,0.1841760597913583
142,995.21,0.17078066893666882
143,1004.4200000000001,0.1845278924008868
144,1016.05,0.18465259901205455
145,1025.45,0.13788698148367765
146,1034.94,0.17345035506407164
147,1044.51,0.19391394296337303
148,1054.18,0.18730059876130872
149,1063.93,0.17137206887815185
150,1073.78,0.17548750689362927
151,1086.21,0.1579098566938713
152,1096.26,0.1724430305066173
153,1096.4782,0.17224574785617414
154,1103.86,0.16560145498284093
155,1114.0700000000002,0.1626790635210743
156,1124.3799999999999,0.14986094452295345
157,1134.78,0.15862648074211377
158,1145.28,0.1522936894249199
159,1155.8799999999999,0.14928557057137176
160,1163.89,0.14577598490939814
161,1174.66,0.11742465924404782
162,1185.53,0.1369118060423433
163,1193.75,0.1307029825540258
164,1204.8,0.12222023978688364
165,1215.9399999999998,0.09493515223702269
166,1224.3700000000001,0.1213680909223613
167,1235.7,0.12728593105342734
168,1244.27,0.12634201118787
169,1255.78,0.12406936175349842
170,1258.92541,0.12355192529950026
171,1264.48,0.12266731191918784
172,1276.18,0.12429808195047161
173,1285.03,0.12290558235875038
174,1293.94,0.11566420107488186
175,1305.91,0.11456415349150295
176,1314.96,0.11779584825929083
177,1324.08,0.1138570310529069
178,1336.33,0.11047022557284077
179,1345.5900000000001,0.11103150441811321
180,1354.92,0.10865190128921387
181,1364.31,0.10459255646816726
182,1373.77,0.10256099967294885
183,1386.48,0.1009398712197537
184,1396.0900000000001,0.08470908019416712
185,1405.77,0.08062749719440875
186,1415.51,0.0949638925025031
187,1425.32,0.09068483583642564
188,1435.2,0.09222972719617639
189,1441.8300000000002,0.09158003021390385
190,1445.43977,0.09112958653207148
191,1448.48,0.09076217403697004
192,1455.17,0.08833540625314218
193,1465.26,0.08612111941624784
194,1475.41,0.08533218694900527
195,1485.64,0.08472249697463173
196,1495.94,0.08293179043151859
197,1506.31,0.08068940731966585
198,1513.26,0.07775496513766232
199,1516.75,0.07803641763907349
200,1523.75,0.0770361907651131
201,1534.3100000000002,0.0707416898238243
202,1544.95,0.0643861213754045
203,1555.66,0.0641610663582451
204,1566.44,0.0682432847723461
205,1573.67,0.06982620631538417
206,1584.58,0.06944837253039733
207,1595.56,0.06879593217667089
208,1606.62,0.06627405431581349
209,1614.04,0.06477510802941547
210,1625.22,0.06429026890786159
211,1636.4899999999998,0.06457122134078536
212,1644.04,0.06323320285529951
213,1655.44,0.06350875308913545
214,1659.58691,0.0633338830696581
215,1666.92,0.06304463596351714
216,1670.76,0.060327278300275386
217,1678.47,0.06398375189829779
218,1686.22,0.06267234072899475
219,1694.0,0.06102076848419763
220,1705.74,0.059748144274182444
221,1713.62,0.05783604511107174
222,1725.49,0.0567435129072489
223,1733.46,0.057594740517655965
224,1745.47,0.0566162566281941
225,1753.5300000000002,0.05611920101211894
226,1765.69,0.05505359174518668
227,1773.84,0.05392791290262929
228,1786.1299999999999,0.053850105641889384
229,1794.3799999999999,0.05337386988101841
230,1806.8100000000002,0.05298207093463947
231,1815.15,0.05108713194728626
232,1823.53,0.050833148192607626
233,1836.17,0.05015821171777015
234,1844.6499999999999,0.048088711044777924
235,1853.16,0.047755619296291615
236,1866.01,0.04758074529299561
237,1874.62,0.047526266626195725
238,1883.27,0.04538962319207039
239,1896.33,0.044178771660315856
240,1905.0800000000002,0.04498882130787694
241,1905.46072,0.044934181485761296
242,1913.8700000000001,0.04374161658124557
243,1927.1399999999999,0.04226825958713977
244,1936.04,0.043134069327340104
245,1944.97,0.043258629044192795
246,1953.95,0.04109847538879942
247,1967.49,0.04191601818456487
248,1976.58,0.04220125111023015
249,1985.7,0.040950304012547796
250,1994.87,0.04004889354261937
251,2004.07,0.04016272304934331
252,2013.3200000000002,0.039733319183821184
253,2027.28,0.03974627165271968
254,2036.64,0.03834988436825621
255,2046.0400000000002,0.038085770385995886
256,2055.48,0.03388140970593871
257,2064.9700000000003,0.03527031565363547
258,2074.5,0.03766213490353538
259,2079.28,0.036570904516811505
260,2084.08,0.03669030078118921
261,2093.7,0.0356767099610462
262,2103.36,0.03576875244310634
263,2113.07,0.03565483155292041
264,2122.82,0.035337983964937626
265,2132.62,0.034756463004708776
266,2147.4,0.0340296181687718
267,2157.31,0.034179163789601605
268,2167.27,0.03342323603818535
269,2177.28,0.03324919491452302
270,2187.33,0.03263984709306385
271,2187.7616199999998,0.03264317366757314
272,2197.42,0.032732193749436964
273,2202.49,0.0322831939403465
274,2212.65,0.0315834811671001
275,2222.8700000000003,0.031193968928657372
276,2233.13,0.030985340380083753
277,2243.43,0.030605595521379245
278,2253.79,0.030000621197478396
279,2264.19,0.029967660563446658
280,2274.64,0.029709962041751303
281,2285.14,0.02934375563239234
282,2295.69,0.028397481335369755
283,2306.29,0.02841691915068356
284,2316.9300000000003,0.028171560655866477
285,2327.63,0.02660968269585305
286,2332.9900000000002,0.027471457138313615
287,2343.76,0.02723356813557113
288,2354.58,0.027098681245165037
289,2365.4500000000003,0.02671372646709532
290,2376.37,0.026481913801362
291,2387.34,0.02581725324796506
292,2392.84,0.025920155604967507
293,2403.88,0.025647274008841505
294,2414.98,0.02547071294751917
295,2426.13,0.025389393998533218
296,2437.33,0.02498178716188365
297,2442.94,0.024895442166026148
298,2454.22,0.0246776327091148
299,2465.55,0.02441620536453984
300,2476.93,0.024157230132301262
301,2482.6400000000003,0.023940199361116528
302,2494.1,0.021897891508616173
303,2505.6099999999997,0.023477325768452205
304,2511.39,0.022593403954538405
305,2511.88643,0.022633227275925746
306,2517.17,0.02306132519878075
307,2522.98,0.02298497546508421
308,2534.6200000000003,0.022833108941809205
309,2546.32,0.022516241250888455
310,2552.1899999999996,0.022482940349546163
311,2563.97,0.022292814435097747
312,2575.81,0.022226177353003588
313,2587.7,0.02199764263120464
314,2593.66,0.021764289978393726
315,2605.63,0.02157983703306711
316,2617.66,0.021318922920094747
317,2623.7,0.021247412043756173
318,2635.81,0.02110541970725615
319,2647.9700000000003,0.021079379731051333
320,2654.08,0.020893604159126052
321,2666.33,0.02056527243145262
322,2672.4700000000003,0.020421496275704464
323,2684.8100000000004,0.020357962796562407
324,2697.2000000000003,0.020001291677715558
325,2703.42,0.01993375729843974
326,2715.9,0.019691344428124275
327,2722.1600000000003,0.019518165937084626
328,2734.72,0.019315674843241495
329,2747.35,0.01911521905381166
330,2753.68,0.018981495867185304
331,2766.3900000000003,0.018852031854227805
332,2772.77,0.01885554102789666
333,2785.57,0.01865883526347054
334,2791.99,0.018132090325375563
335,2804.87,0.018170106337421783
336,2817.8199999999997,0.018274137653881292
337,2824.32,0.01807998449225865
338,2837.3500000000004,0.0178263375851905
339,2843.89,0.01773272031180403
340,2857.02,0.017578028125326297
341,2863.6099999999997,0.01751672321223504
342,2876.8300000000004,0.017363539274288686
343,2883.46,0.017240840249433592
344,2884.0315,0.01723434826322017
345,2896.77,0.01709844885400983
346,2910.14,0.016987752756117185
347,2930.31,0.016702797520926852
348,2950.62,0.016393139656439217
349,2971.07,0.016204409162654275
350,2991.67,0.015960469423193648
351,3012.41,0.01571980705443572
352,3033.29,0.015482642056380483
353,3047.2900000000004,0.01527222912664996
354,3068.41,0.015041275335513632
355,3089.6800000000003,0.014813662298701617
356,3111.1,0.014614650016213919
357,3132.66,0.014367305104428914
358,3147.12,0.014171347821292962
359,3168.94,0.013955220883670105
360,3190.8999999999996,0.013694301316749943
361,3213.02,0.013532275887775717
362,3227.85,0.013346713798639743
363,3250.23,0.013210916343827667
364,3272.75,0.013007441259718285
365,3287.86,0.012851000911987698
366,3310.65,0.012674163185662085
367,3311.31121,0.012699501541746861
368,3318.28,0.01296993146003421
369,3325.9300000000003,0.013020064664445725
370,3333.6,0.012865020329522373
371,3341.29,0.012514035455264144
372,3348.9900000000002,0.01294206081133848
373,3356.71,0.012412979628077945
374,3364.45,0.012373242905482537
375,3372.2000000000003,0.012142580413219695
376,3379.97,0.01220950738162198
377,3387.77,0.012384206041021957
378,3395.5800000000004,0.0124532859307545
379,3403.3999999999996,0.012050836050819604
380,3411.25,0.012033228861882402
381,3419.11,0.012183995903277765
382,3426.99,0.012208721405338253
383,3434.89,0.012233667368063873
384,3442.81,0.012067073791454618
385,3450.75,0.011944674675510494
386,3458.7000000000003,0.011680996789898932
387,3466.68,0.011806078595285062
388,3474.67,0.011686608631003757
389,3482.6800000000003,0.011409599127387579
390,3490.71,0.011691944084436532
391,3498.75,0.011654158271818047
392,3506.82,0.011456275150197252
393,3514.9,0.011321092258909024
394,3523.0099999999998,0.01142156305861849
395,3531.13,0.011364798088660517
396,3539.27,0.011406578579367672
397,3547.43,0.011468638530739955
398,3555.6,0.011411373712444807
399,3563.7999999999997,0.011334457585147346
400,3572.02,0.011258203918515014
401,3580.25,0.010915428482215246
402,3588.5,0.010804944506580608
403,3596.78,0.010843869221943659
404,3605.07,0.010939283167639277
405,3613.38,0.010903328574000021
406,3621.71,0.010923849441025896
407,3630.06,0.011059302768716897
408,3638.4300000000003,0.010889486557073027
409,3646.81,0.01079723557576172
410,3655.2200000000003,0.010742774285448106
411,3663.65,0.010707165455799621
412,3672.09,0.010616310856483699
413,3680.56,0.01052635594816547
414,3683.44,0.00982246928394392
415,3686.1899999999996,0.010611922625399041
416,3688.9300000000003,0.008657121736521597
417,3691.67,0.008680322847644155
418,3694.42,0.009558323189099275
419,3697.16,0.00887710430022183
420,3699.8999999999996,0.010494304411344387
421,3702.64,0.009438616522466943
422,3705.39,0.010192850863922064
423,3708.13,0.00981150197504462
424,3710.87,0.009898298086167177
425,3713.6200000000003,0.009106964427622296
426,3716.36,0.010780420538744853
427,3719.1000000000004,0.014959717649867407
428,3721.85,0.022141030991322527
429,3724.5899999999997,0.027893786102445084
430,3727.33,0.02496187121356764
431,3730.08,0.01999631455502276
432,3732.82,0.013234589666145317
433,3735.56,0.010808704777267874
434,3738.3100000000004,0.010967112118722993
435,3741.05,0.00958465622984555
436,3743.79,0.009395309340968105
437,3746.53,0.009785154452090663
438,3749.2799999999997,0.011373685793545783
439,3752.02,0.01066213990466834
440,3754.7599999999998,0.008603384015790895
441,3757.51,0.008483456357246014
442,3760.25,0.00912204746836857
443,3762.99,0.009119565579491128
444,3765.7400000000002,0.008902044920946248
445,3768.48,0.010145264032068804
446,3771.2200000000003,0.01001853414319136
447,3773.97,0.00990642748464648
448,3776.7099999999996,0.009332584595769036
449,3779.45,0.008995748706891593
450,3782.2,0.009088613048346713
451,3784.94,0.01008601815946927
452,3787.68,0.008894828270591825
453,3790.42,0.008898218381714382
454,3793.17,0.011282895723169501
455,3795.9100000000003,0.011706249834292057
456,3798.65,0.010360723945414615
457,3801.3999999999996,0.008775692286869734
458,3801.8939600000003,0.008828863855909988
459,3804.14,0.009071402095911932
460,3806.88,0.008745528520875658
461,3809.63,0.008662493589726112
462,3812.37,0.009368059014689838
463,3815.1099999999997,0.009483917439653562
464,3817.86,0.009464473508504014
465,3820.6,0.00934405793346774
466,3823.34,0.007917771358431466
467,3826.0899999999997,0.01035890842728192
468,3828.83,0.011911005852245644
469,3831.57,0.01162842927720937
470,3834.3100000000004,0.011635938702173094
471,3837.06,0.010478651771023549
472,3839.7999999999997,0.008580307195987274
473,3842.54,0.008361563620951
474,3845.29,0.010332844689801453
475,3848.03,0.009338508114765179
476,3850.77,0.009062043539728903
477,3853.5199999999995,0.010062541608579358
478,3856.26,0.010267432033543081
479,3859.0,0.010131609458506807
480,3861.75,0.012866985527357261
481,3864.49,0.015467645952320986
482,3867.23,0.015463906377284712
483,3869.98,0.013198618446135166
484,3872.7200000000003,0.010844848871098888
485,3875.46,0.009752186296062615
486,3878.2100000000005,0.009992496364913069
487,3880.9500000000003,0.012388672789876796
488,3883.69,0.015353772214840519
489,3886.4300000000003,0.018105852639804243
490,3889.18,0.015568074708654699
491,3891.9199999999996,0.010915399133618425
492,3894.66,0.00882847255858215
493,3897.41,0.008862106627432602
494,3900.15,0.008426168052396328
495,3902.89,0.009260634477360053
496,3905.6400000000003,0.009100306546210506
497,3908.38,0.008830934971174232
498,3911.1200000000003,0.009259625396137956
499,3913.87,0.00894936446498841
500,3916.6099999999997,0.008858786889952135
501,3919.35,0.008652275314915862
502,3922.1,0.008684686383766314
503,3924.84,0.00838840980873004
504,3927.58,0.008433091233693766
505,3930.3199999999997,0.00922108465865749
506,3933.07,0.008249207727507944
507,3935.81,0.00960269315247167
508,3938.55,0.008554788577435394
509,3941.2999999999997,0.008288555646285847
510,3944.04,0.008504695071249572
511,3946.7799999999997,0.008947326496213298
512,3949.53,0.008899022565063752
513,3952.27,0.008805510990027477
514,3955.0099999999998,0.007979204414991201
515,3957.76,0.008851052483841656
516,3960.5,0.010920454908805381
517,3963.2400000000002,0.013549979333769106
518,3965.99,0.01642940140261956
519,3968.7299999999996,0.015684311827583286
520,3971.47,0.01370844225254701
521,3974.21,0.009864618677510735
522,3976.96,0.00893529774636119
523,3979.7,0.008595728171324915
524,3982.44,0.008268630596288639
525,3985.19,0.008293950665139094
526,3987.9300000000003,0.008961360090102819
527,3990.67,0.008367170515066543
528,3993.4199999999996,0.008539244583916998
529,3996.1600000000003,0.008612299008880723
530,3998.9,0.008287648433844448
531,4001.65,0.007528812502694901
532,4004.39,0.008140697927658626
533,4007.1299999999997,0.008497232352622352
534,4009.88,0.007984698421472805
535,4012.62,0.008056527846436531
536,4015.36,0.007700080271400256
537,4018.1,0.008337648696363982
538,4020.8500000000004,0.008959035765214434
539,4023.59,0.008748121190178159
540,4026.3300000000004,0.008709642615141884
541,4029.08,0.00861706868399234
542,4031.8199999999997,0.008484666108956065
543,4034.56,0.007696270533919789
544,4037.31,0.008279259602770242
545,4040.05,0.008060760027733968
546,4042.79,0.007481978452697694
547,4045.5400000000004,0.007590952521548147
548,4048.28,0.007835216946511871
549,4051.02,0.008047687371475598
550,4053.77,0.007963676440326051
551,4056.5099999999998,0.009191196865289776
552,4059.25,0.0079984942902535
553,4061.99,0.008264285715217227
554,4064.7400000000002,0.00852661478406768
555,4067.48,0.007710336209031405
556,4070.22,0.00807763263399513
557,4072.9700000000003,0.008195408702845585
558,4075.71,0.00823837712780931
559,4078.4500000000003,0.008010094552773035
560,4081.2,0.00810121162162349
561,4083.9399999999996,0.007636899046587214
562,4086.68,0.008182501471550939
563,4089.43,0.008381481540401393
564,4092.17,0.009487440965365117
565,4094.91,0.012556984390328844
566,4097.66,0.017413916459179297
567,4100.400000000001,0.01827456688414302
568,4103.14,0.015206847309106746
569,4105.88,0.010578621734070471
570,4108.63,0.008814266802920925
571,4111.37,0.00831913622788465
572,4114.110000000001,0.008107242652848375
