,lambda (Angstroms),Total Flux (erg/s/cm^2/Angstrom)
0,100.05,4.446137828747848
1,101.91000000000001,4.433787246063443
2,104.04,4.419636932677916
3,104.712855,4.415169004646256
4,105.97,4.37126965143411
5,107.95,4.302133941915015
6,109.94999999999999,4.232331310267446
7,114.08,4.088134759487213
8,118.09,3.9481311759778346
9,120.22644299999999,3.8740213559350085
10,121.11999999999999,3.848069169702514
11,125.08,3.732297929933686
12,127.11999999999999,3.6726373594467145
13,128.0,3.646926406609196
14,130.98,3.5597714396821503
15,131.89,3.5333523340433537
16,134.03,3.470761095552118
17,137.15,3.379783659219102
18,138.038426,3.3538134849847197
19,140.02,3.3124396830023684
20,142.96,3.2541428133997696
21,146.96,3.1768308073350093
22,151.08,3.0912735078783067
23,154.95,3.011081261738152
24,158.489319,2.937824275228397
25,158.93,2.9309536139865076
26,161.88000000000002,2.8849495165072945
27,166.04000000000002,2.8201970095535582
28,169.9,2.7599567274282157
29,173.05999999999997,2.7107109665691276
30,177.09,2.647818751707695
31,179.97,2.602898745355108
32,181.970086,2.5717203199195855
33,182.06,2.5706560526094577
34,185.87,2.525545652316135
35,191.07,2.463895334750446
36,194.18,2.4272176179755816
37,197.79000000000002,2.3844876429732467
38,201.92999999999998,2.3355037804497942
39,205.21,2.2966503776775897
40,208.929613,2.251788835392472
41,209.99,2.2421769899488173
42,215.88,2.191162649797597
43,219.89000000000001,2.1558105766386157
44,222.95,2.128436758342736
45,227.09,2.0920283624130147
46,230.25,2.0785576604473346
47,233.99,2.0748894991968143
48,239.88329199999998,2.0396024704642395
49,240.0,2.0391466603957533
50,246.15,1.9902312511321416
51,251.89,1.9544704118194376
52,257.15999999999997,1.9010853146455788
53,260.14,1.892787985978008
54,263.76,1.8716611839724349
55,269.28000000000003,1.8319855226821682
56,274.28999999999996,1.795676644989373
57,275.42287,1.7874368697582539
58,278.74,1.768705627971312
59,283.92,1.7400751850614082
60,289.87,1.7031664561784108
61,295.94,1.670585477922983
62,300.75,1.6419190030780721
63,307.75,1.6043435096863106
64,316.227766,1.5588298060318584
65,317.84,1.5523648001538812
66,328.25,1.5086076714022527
67,338.21999999999997,1.4659532736353234
68,347.70000000000005,1.4251854551468082
69,356.62,1.3877497815479105
70,363.078055,1.361273846799111
71,365.77,1.3529479289757929
72,375.15,1.3225296944165015
73,384.77,1.289058618248017
74,394.64,1.2598693145699562
75,404.77,1.2282655474819368
76,414.19,1.1979721593211128
77,416.86938299999997,1.1891535988590574
78,421.89,1.1761921735887346
79,429.74,1.1563138715152925
80,440.76,1.129615251674613
81,451.03,1.103918985280441
82,460.46999999999997,1.0802101095004033
83,470.10999999999996,1.0564664508012973
84,478.630092,1.0358469966832458
85,479.96,1.0333326283332918
86,490.01000000000005,1.0131991402731904
87,500.27000000000004,0.9945741071491465
88,506.06,0.9828079003861628
89,511.92,0.9740296386018648
90,520.24,0.9580061260685274
91,529.9100000000001,0.9390477481241312
92,539.76,0.9190174401249274
93,549.5408739999999,0.900274739925208
94,549.8,0.8998865576307138
95,560.02,0.8864037490266741
96,570.4300000000001,0.8720456763487823
97,579.7,0.8580182381140026
98,590.48,0.842680040134399
99,600.0699999999999,0.8276130608278687
100,609.82,0.8101402859854627
101,619.73,0.8003203756071816
102,629.8,0.7852918896930251
103,630.957344,0.7837104836004085
104,640.0300000000001,0.7738431749046394
105,650.4300000000001,0.7616227945266068
106,657.9699999999999,0.7523592570025334
107,665.58,0.7443771171009151
108,674.84,0.7339728940143209
109,684.23,0.7221197707980012
110,695.35,0.7105066673937971
111,705.02,0.6982851046672995
112,716.48,0.6866445640007366
113,724.43596,0.677695608034948
114,726.45,0.6759837219450131
115,734.86,0.6688135874888937
116,745.08,0.6598390778644536
117,755.45,0.6509872641652908
118,764.19,0.6416694327447813
119,774.8199999999999,0.6345213759827659
120,785.6,0.6248633451460277
121,794.7,0.6176112479461838
122,805.76,0.6085730415032965
123,815.09,0.6007240100555445
124,824.52,0.5928968358913107
125,831.763771,0.5857360690832326
126,834.0699999999999,0.5839172954718581
127,845.6700000000001,0.5779272299100998
128,855.47,0.5715817824527525
129,865.37,0.5654776828784933
130,875.3900000000001,0.5592655467639401
131,885.5300000000001,0.5529076041090929
132,895.7800000000001,0.546492462125643
133,904.07,0.5411311836336623
134,914.54,0.5362604529930065
135,925.13,0.5446395458120565
136,935.84,0.5550846720908127
137,944.5000000000001,0.5701868367662586
138,954.992586,0.5783341383677707
139,955.44,0.5786872658699127
140,964.28,0.5808500606126306
141,975.45,0.5183985862999788
142,984.47,0.5560802819311231
143,995.87,0.5494808015314606
144,1005.09,0.5658146392608563
145,1014.39,0.5577028518295528
146,1026.1299999999999,0.506316711996918
147,1035.63,0.5248526266638658
148,1045.21,0.5606402861701144
149,1054.8799999999999,0.5518189411205762
150,1064.64,0.526394681515251
151,1074.49,0.5328003373541391
152,1084.43,0.5067709786372405
153,1094.47,0.5232234259694675
154,1096.4782,0.5210388379678533
155,1104.6000000000001,0.5130559047666949
156,1114.82,0.5044446471505197
157,1125.13,0.48947551885083584
158,1135.54,0.5022968097916986
159,1146.05,0.4889527899731073
160,1153.99,0.48821436967247794
161,1164.67,0.4841035685628153
162,1175.45,0.4499268266936989
163,1186.32,0.4687243241410741
164,1194.55,0.4415621016380289
165,1205.6,0.4203012377183873
166,1213.96,0.3982823342280521
167,1225.19,0.4238158989413937
168,1233.68,0.4440321344637686
169,1245.1,0.4447948377341482
170,1253.73,0.4365455421932878
171,1258.92541,0.4294770668131197
172,1265.3300000000002,0.42163510978801605
173,1274.1,0.436223710462884
174,1285.89,0.4349464265240802
175,1294.8000000000002,0.4126948595016255
176,1303.78,0.40843803863050965
177,1315.8400000000001,0.4206729584182982
178,1324.96,0.41290348984985975
179,1334.15,0.39981190743276007
180,1346.49,0.40817875182590363
181,1355.8200000000002,0.4015665217114814
182,1365.22,0.3891032877483979
183,1374.69,0.38819418993665317
184,1384.2099999999998,0.3849786665187218
185,1393.81,0.3681108901308918
186,1403.47,0.3661111290156379
187,1416.46,0.3666068205283555
188,1426.27,0.3638741025945418
189,1436.1599999999999,0.3603383316908295
190,1442.79,0.36106183431048444
191,1445.43977,0.36064988867520514
192,1446.12,0.3606135513296277
193,1456.1399999999999,0.3554586274756355
194,1466.23,0.34720823295599657
195,1476.3999999999999,0.3442657791041901
196,1486.6299999999999,0.3423960532532579
197,1493.49,0.3411451180198859
198,1503.84,0.3344205581707023
199,1510.79,0.3253605349386418
200,1517.76,0.32724633437353945
201,1524.77,0.3238066191423532
202,1535.33,0.31259973729622975
203,1545.98,0.3128154174514176
204,1556.69,0.3072819556074798
205,1563.8799999999999,0.3072855743789165
206,1574.72,0.3081243798702063
207,1585.63,0.30755307469584947
208,1596.6299999999999,0.3058996815228041
209,1603.9999999999998,0.3022888342968638
210,1615.11,0.2992059457920879
211,1626.31,0.29342679928862353
212,1633.82,0.29479226073138987
213,1645.1399999999999,0.29242919022967406
214,1656.54,0.28543063039579064
215,1659.58691,0.28642849943952237
216,1664.19,0.28826131777840364
217,1671.8700000000001,0.2804227023195376
218,1675.73,0.2866610106435971
219,1683.46,0.28710647531846234
220,1695.1299999999999,0.2811809325313573
221,1706.88,0.27675407395822227
222,1714.76,0.2723743890342815
223,1726.65,0.2698715128355943
224,1734.6100000000001,0.27174844212562377
225,1746.64,0.2682107883013843
226,1754.6999999999998,0.2700113078588764
227,1766.8600000000001,0.2630899083823384
228,1775.02,0.2625595182072932
229,1783.21,0.26217009211248676
230,1795.57,0.2635556631708742
231,1803.86,0.2614540973435305
232,1816.36,0.2546439207763656
233,1824.75,0.25420395521648453
234,1833.17,0.2506718237368423
235,1845.88,0.24355241573134906
236,1854.3999999999999,0.24274782451916954
237,1862.9599999999998,0.24306007541397504
238,1875.8700000000001,0.24427989794340715
239,1884.5300000000002,0.23874888910567532
240,1893.23,0.23585051237492857
241,1905.46072,0.23600524318671098
242,1906.35,0.23605574445030406
243,1915.1499999999999,0.23313964182921937
244,1923.9899999999998,0.23028221683258426
245,1932.87,0.2288570794603988
246,1946.27,0.23172851365101982
247,1955.25,0.22744383033995838
248,1968.81,0.23080214502837787
249,1977.8899999999999,0.22996192577844043
250,1982.45,0.22785437496569655
251,1996.1999999999998,0.22505410837025172
252,2005.41,0.22456877139977552
253,2014.67,0.2223179214598614
254,2023.97,0.22131590914439686
255,2033.3100000000002,0.21993776445338198
256,2042.69,0.22133657738681667
257,2056.85,0.21659527644198037
258,2066.35,0.21544473224876395
259,2075.88,0.2186262462738847
260,2085.4700000000003,0.23703405673567984
261,2095.09,0.23071551541581228
262,2104.7599999999998,0.22856020112650674
263,2114.48,0.23193482386776312
264,2124.2400000000002,0.22669088423346917
265,2134.04,0.2213512522236249
266,2143.89,0.22978477724434254
267,2153.79,0.22911888929562224
268,2163.73,0.22125423897135157
269,2173.7200000000003,0.22021156567764288
270,2183.75,0.22839792000838383
271,2187.7616199999998,0.22805997738318845
272,2193.83,0.22778638989492977
273,2203.96,0.2249381269767105
274,2214.13,0.21206922795614877
275,2224.35,0.21666647380765905
276,2234.62,0.23163342453124128
277,2244.93,0.22663573915248109
278,2255.29,0.21168431864579285
279,2265.7,0.2080019130111766
280,2276.1600000000003,0.2116001922486323
281,2286.67,0.22716627635816
282,2297.2200000000003,0.21396480436534523
283,2302.52,0.22473852080497386
284,2313.15,0.21309014660747427
285,2323.82,0.19778026630763224
286,2334.55,0.19595961185427657
287,2345.33,0.1833413022729929
288,2356.15,0.20553833658936677
289,2367.0299999999997,0.18405740675222704
290,2372.48,0.19218060780807153
291,2383.43,0.17615190479183257
292,2394.44,0.1817913276220799
293,2405.4900000000002,0.1802225043499848
294,2416.59,0.1843654559499617
295,2427.75,0.208282713396425
296,2433.34,0.207857608094071
297,2444.57,0.219792472361435
298,2455.86,0.22333859247528542
299,2467.19,0.21025061648679338
300,2472.88,0.20156273092858334
301,2484.3,0.1783086337098208
302,2495.7599999999998,0.1844295703887159
303,2507.28,0.21001822291409733
304,2511.88643,0.17853565933457122
305,2513.06,0.17053941815914736
306,2518.86,0.16469976690102633
307,2524.6600000000003,0.16612810564290534
308,2536.31,0.18368997190892095
309,2542.16,0.1857702094330575
310,2553.9,0.22988458350713672
311,2565.6800000000003,0.20329648660702196
312,2577.53,0.22384227800206785
313,2583.47,0.2123369833342681
314,2595.3900000000003,0.20325346302447458
315,2607.37,0.1921861912533902
316,2613.38,0.18571806488075102
317,2625.45,0.20593851091773024
318,2637.57,0.26630667573696704
319,2643.65,0.3161268476594885
320,2655.8500000000004,0.3948650505303374
321,2661.9700000000003,0.2910601814786649
322,2674.2599999999998,0.3142147921575775
323,2686.6,0.3464625516187476
324,2692.79,0.2822601108622358
325,2705.22,0.3223513781314695
326,2717.71,0.2633217839394124
327,2723.9799999999996,0.23055786123451266
328,2736.5499999999997,0.26308588509406766
329,2742.8599999999997,0.19866086141497397
330,2755.52,0.22833175308259257
331,2761.8700000000003,0.26434464842930494
332,2774.62,0.2738916879049872
333,2787.42,0.20865107616292705
334,2793.85,0.15687205956125158
335,2806.75,0.16543192538370655
336,2813.2200000000003,0.25216584780783713
337,2826.2,0.31820755168190423
338,2832.7200000000003,0.30485207288829236
339,2845.7900000000004,0.2464230845704231
340,2852.3500000000004,0.1874868448026173
341,2865.5199999999995,0.3028294740492633
342,2872.1200000000003,0.3793005133072635
343,2884.0315,0.35451194255290264
344,2885.38,0.35172980424801364
345,2892.0299999999997,0.4121319035171703
346,2912.0800000000004,0.5244432915392138
347,2932.27,0.46806564586166055
348,2952.59,0.43806589746305324
349,2973.06,0.4538302843863067
350,2986.78,0.4585719818258297
351,3007.48,0.4590259562426028
352,3028.3300000000004,0.48576326598123654
353,3049.3199999999997,0.5030381420202736
354,3070.46,0.5425040533811714
355,3091.7400000000002,0.5298791310424724
356,3113.17,0.6043711440256341
357,3127.54,0.5642471278598867
358,3149.22,0.5639961663794829
359,3171.05,0.6146933402209398
360,3193.03,0.5408970493842572
361,3207.77,0.5916950870124329
362,3230.0,0.5089209217121848
363,3252.39,0.6899938607552549
364,3267.41,0.7946409309842372
365,3290.0600000000004,0.7801080645851989
366,3311.31121,0.7365655180208739
367,3312.86,0.7334116031932493
368,3320.5,0.6955093772677023
369,3328.15,0.7550580460726192
370,3335.8199999999997,0.7886716043384638
371,3343.51,0.7248364520652365
372,3351.22,0.7160451892529371
373,3358.95,0.7972136159015655
374,3366.69,0.6818884372806578
375,3374.45,0.5500508481206781
376,3382.23,0.6469225484216262
377,3390.03,0.7668869381835022
378,3397.8399999999997,0.6807763226758423
379,3405.67,0.8080040966291101
380,3413.53,0.7468540547737699
381,3421.3900000000003,0.7982715129184295
382,3429.28,0.764292755254481
383,3437.19,0.7755647870514604
384,3445.11,0.5184017135789037
385,3453.0499999999997,0.815598729567275
386,3461.0099999999998,0.6757804350165741
387,3468.9900000000002,0.7368212299268011
388,3476.99,0.6913247142979561
389,3484.9999999999995,0.7555964933995748
390,3493.04,0.6502659566925855
391,3501.09,0.7356786147160601
392,3509.16,0.8114633622004627
393,3517.25,0.674815799145793
394,3525.36,0.6917849255520513
395,3533.48,0.8290685466887735
396,3541.63,0.8946235520168875
397,3549.79,0.8929243520754655
398,3557.98,0.7871581363254354
399,3566.18,0.8384527153058692
400,3574.3999999999996,0.6159296837472309
401,3582.6400000000003,0.6060025416495204
402,3590.9,0.5370302890127377
403,3599.1800000000003,0.8845811258368831
404,3607.47,0.7354476573914923
405,3615.79,0.7684983731374935
406,3624.1299999999997,0.6784929783444225
407,3632.48,0.9578182782818153
408,3640.85,0.8968175676801362
409,3649.2400000000002,0.7919058465393849
410,3657.66,1.0264578095900254
411,3666.09,1.0557965673711298
412,3674.54,1.0203518146131623
413,3683.0099999999998,0.8586172513161224
414,3691.5,0.8284436774800106
415,3700.01,0.9930447931048267
416,3708.54,0.7412945981905705
417,3717.09,1.0993286927372423
418,3725.6600000000003,0.661299376744842
419,3734.25,0.8780904502133695
420,3742.86,0.839945413142825
421,3751.48,0.5534529708027445
422,3760.1299999999997,0.9549980126540557
423,3768.7999999999997,0.8141385439662948
424,3777.4900000000002,0.9931001647394618
425,3786.2000000000003,1.1186299749735569
426,3794.9300000000003,0.8663369746685794
427,3801.8939600000003,0.8102626702959591
428,3803.67,0.7959775936654452
429,3812.44,0.9984245194586223
430,3821.23,0.7781089117872458
431,3830.04,0.5744445706513155
432,3838.87,0.5606222960508314
433,3847.7200000000003,0.8549621879857935
434,3856.5899999999997,0.8717741464562019
435,3865.48,0.8627543714620566
436,3874.39,0.7487082630033575
437,3883.32,0.7713835210801044
438,3886.7000000000003,0.8751550655705195
439,3890.75,0.8987433889983835
440,3894.7999999999997,0.9597274124262476
441,3898.85,1.0149542358541115
442,3902.9,0.9592274592819756
443,3906.9500000000003,1.0551319827098398
444,3911.0099999999998,1.0260389894054267
445,3915.0600000000004,1.0056139128332908
446,3919.11,1.019732636261155
447,3923.16,0.7937661596890189
448,3927.21,0.733520383116883
449,3931.2599999999998,0.576415506544747
450,3935.3100000000004,0.593288329972611
451,3939.37,0.7128639366681981
452,3943.42,0.8421820600960622
453,3947.4700000000003,0.9558380835239263
454,3951.52,0.9883583069517903
455,3955.5699999999997,0.8943258303796544
456,3959.62,0.8211701538075185
457,3963.67,0.7406965772353824
458,3967.7200000000003,0.7519630006632464
459,3971.7799999999997,0.7759207073588337
460,3975.8300000000004,0.8953380307866976
461,3979.88,1.0526354542145615
462,3983.93,1.2383975776424256
463,3987.98,1.2468668010702897
464,3992.0299999999997,1.3212430244981537
465,3996.0800000000004,1.401705247926018
466,4000.14,1.3116482546216048
467,4004.19,1.334968478049469
468,4008.2400000000002,1.531599701477333
469,4012.29,1.470059924905197
470,4016.3399999999997,1.4743331483330613
471,4020.39,1.519337371760925
472,4024.44,1.3282915951887893
473,4028.5,1.4063266018843763
474,4032.5499999999997,1.3839648253122405
475,4036.6000000000004,1.4671650487401044
476,4040.65,1.3984762721679684
477,4044.7,1.4193754955958324
478,4048.75,1.4359697190236964
479,4052.7999999999997,1.3761049424515606
480,4056.8500000000004,1.3831151658794245
481,4060.91,1.3692481725750119
482,4064.96,1.3559803960028758
483,4069.01,1.3071456194307398
484,4073.06,1.4290928428586038
485,4077.11,1.3586760662864679
486,4081.16,1.449523289714332
487,4085.21,1.5094855131421958
488,4089.27,1.424486519837783
489,4093.3199999999997,1.471481743265647
490,4097.37,1.4012859666935114
491,4101.42,1.4857771901213752
492,4105.47,1.3792624135492393
493,4109.5199999999995,1.3946726369771034
494,4113.57,1.3918428604049673
495,4117.62,1.5069570838328314
496,4121.679999999999,1.3952630905284185
497,4125.7300000000005,1.3653153139562826
498,4129.78,1.4371685373841465
499,4133.83,1.3101537608120106
500,4137.88,1.3822229842398746
501,4141.929999999999,1.3396232076677388
502,4145.9800000000005,1.3685934310956027
503,4150.04,1.3853964377911898
504,4154.09,1.3624966612190539
505,4158.14,1.4177768846469179
506,4162.1900000000005,1.397030108074782
507,4166.24,1.361640331502646
508,4170.29,1.38038755493051
509,4174.34,1.414629778358374
510,4178.39,1.3894170017862382
511,4182.45,1.2665380084818252
512,4186.5,1.3559262319096894
513,4190.55,1.3369004553375534
514,4194.6,1.3745866787654173
515,4198.65,1.4085609021932814
516,4202.7,1.4745491256211454
517,4206.75,1.4696753490490095
518,4210.8099999999995,1.4563393557445967
519,4214.860000000001,1.5056475791724608
520,4218.91,1.3394618026003247
521,4222.96,1.3532580260281888
522,4227.01,1.368776249456053
523,4231.0599999999995,1.3993544728839167
524,4235.110000000001,1.4654506963117808
525,4239.16,1.484519919739645
526,4243.219999999999,1.572884926435232
527,4247.27,1.589264149863096
528,4251.32,1.48494837329096
529,4255.37,1.4485975967188243
530,4259.42,1.5214198201466882
531,4263.469999999999,1.4887810435745523
532,4267.52,1.4695942670024162
533,4271.58,1.5302492736980036
534,4275.63,1.5070204971258674
535,4279.68,1.4140107205537316
536,4283.7300000000005,1.3974069439815955
537,4287.78,1.3475501674094597
538,4291.83,1.2980153908373238
539,4295.88,1.2843106142651877
540,4299.93,1.1990488376930517
541,4303.99,1.204983844388639
542,4308.04,1.196827067816503
543,4312.09,1.3228092912443667
544,4316.14,1.469393514672231
545,4320.19,1.5347367381000951
546,4324.24,1.556065961527959
547,4328.29,1.7073381849558231
548,4332.349999999999,1.5295761916514101
549,4336.400000000001,1.7083974150792742
550,4340.45,1.6711236385071382
551,4344.5,1.6723298619350024
552,4348.55,1.6791860853628662
553,4352.599999999999,1.6369703087907304
554,4356.650000000001,1.7345435322185945
555,4360.7,1.8642857556464585
556,4364.759999999999,1.8021537623420458
557,4365.15832,1.79423921509162
558,4368.81,1.7217043659258278
559,4372.86,1.6141405197833758
560,4376.91,1.616447673640924
561,4380.96,1.5765648274984718
562,4385.009999999999,1.58931098135602
563,4389.06,1.5866141352135679
564,4393.12,1.6550431363645914
565,4397.17,1.6912492902221394
566,4401.22,1.6640174440796875
567,4405.27,1.7456285979372355
568,4409.32,1.7200117517947835
569,4413.37,1.6921879056523317
570,4417.42,1.7346900595098795
571,4421.47,1.8105512133674277
572,4425.53,1.7443482145184512
573,4429.58,1.828119368375999
574,4433.63,1.8867085222335471
575,4437.68,1.8535586760910951
576,4441.73,1.8097548299486432
577,4445.78,1.8821109838061914
578,4449.83,1.8702141376637393
579,4453.889999999999,1.7531181388147627
580,4457.9400000000005,1.7797462926723109
581,4461.99,1.868467446529859
582,4466.04,1.8079836003874068
583,4470.09,1.8676957542449548
584,4474.139999999999,1.956308908102503
585,4478.1900000000005,1.926872061960051
586,4482.25,1.9803950631110745
587,4486.3,1.9579532169686225
588,4490.35,1.9968943708261706
589,4494.4,2.0117935246837186
590,4498.45,2.0582236785412666
