,lambda (Angstroms),Total Flux (erg/s/cm^2/Angstrom)
0,100.09,0.7703495585185797
1,101.94999999999999,0.7682068690505246
2,104.08000000000001,0.7657528578127195
3,104.712855,0.7650237851904972
4,106.02000000000001,0.7571126927130916
5,107.99,0.7451899655154826
6,110.0,0.7330262360845871
7,114.12,0.7080914260440797
8,118.13000000000001,0.6838221856518601
9,120.22644299999999,0.6711427350227166
10,120.89000000000001,0.667778509897693
11,125.13,0.6462658825764422
12,126.87,0.6374376601763533
13,128.05,0.6314506959628449
14,131.03,0.6163306825388998
15,131.94,0.6117157408919567
16,134.07999999999998,0.600857691052882
17,136.89,0.5866030321482558
18,138.038426,0.5807762326161059
19,140.07999999999998,0.5733725407936231
20,143.01,0.5627705268019978
21,147.02,0.548264881737555
22,151.14000000000001,0.5333266810093994
23,155.02,0.519260461632981
24,158.489319,0.5066833362034118
25,158.99,0.5053113095378424
26,161.95000000000002,0.49719992446032396
27,166.1,0.48582805386616806
28,169.97000000000003,0.4752225870347503
29,173.13,0.46656332436956177
30,177.16,0.45551972138800784
31,180.04,0.44762771648555755
32,181.970086,0.4423388843364901
33,182.13,0.44200465280811846
34,185.94,0.4340413656715996
35,191.15,0.4231508502804544
36,193.81,0.41759274190666434
37,197.87,0.4091061486782479
38,202.01,0.40045291057242427
39,204.82,0.39458042230349566
40,208.929613,0.3859847588079315
41,210.07999999999998,0.38417588080550913
42,215.96,0.3749459426708117
43,219.98,0.3686311387521921
44,223.04000000000002,0.36382219679025773
45,227.17999999999998,0.3573196326770524
46,229.81,0.3532992468457167
47,234.09,0.34679364843882815
48,239.88329199999998,0.337808142446006
49,240.09,0.33756210971261774
50,246.25,0.33005807017697003
51,251.98999999999998,0.32312338086648
52,257.26,0.316615412724619
53,260.24,0.3130933220937374
54,263.86,0.3087292335864249
55,268.77000000000004,0.3027705030375562
56,273.76,0.2967119529791338
57,275.42287,0.2946930838630694
58,278.85,0.29149814871683827
59,284.03999999999996,0.28666323863809406
60,289.99,0.28109110126747194
61,296.06,0.27544515902971123
62,300.87,0.2709449859469059
63,307.88,0.26442336946655953
64,316.227766,0.2566554760300116
65,317.96,0.25545136714671446
66,327.62,0.24872321958506824
67,338.35999999999996,0.24124149987305166
68,347.84000000000003,0.23463467808646715
69,356.76,0.2284223639889636
70,363.078055,0.22402589015508217
71,365.90999999999997,0.22254928689460382
72,375.3,0.21764704874617624
73,384.91999999999996,0.21261107117068392
74,394.8,0.20746869104720528
75,404.93,0.2021861386160475
76,414.36,0.19726520750639132
77,416.86938299999997,0.1959547011571761
78,422.06,0.19388218094245602
79,429.91,0.19074953848672427
80,440.94,0.1863556371037025
81,451.21000000000004,0.18225984547563048
82,459.6,0.1789132261624344
83,470.3,0.17464929497564083
84,478.630092,0.17133184538825444
85,480.15000000000003,0.17086598464050265
86,490.2,0.1677794929347095
87,500.47,0.16463556068431195
88,506.26,0.16286701527858635
89,512.13,0.1611390588202773
90,520.45,0.15858819495160076
91,530.12,0.15562256319557893
92,539.98,0.1525890231146714
93,549.5408739999999,0.14968713206476428
94,550.02,0.14957642953265893
95,560.24,0.14721425601446153
96,569.35,0.14510115816624447
97,579.9300000000001,0.14261673870102645
98,589.35,0.14044265422065275
99,600.3100000000001,0.13787549012246844
100,610.06,0.1356097307239925
101,619.98,0.13334115939497895
102,630.0500000000001,0.13099975152137353
103,630.957344,0.13078842243756236
104,640.2900000000001,0.1290656455370206
105,650.69,0.12716433516547823
106,658.23,0.12577520924611005
107,664.32,0.12467038233046646
108,675.11,0.12268207651999125
109,684.5,0.12092822914414673
110,695.63,0.11894822066383265
111,705.3,0.117126153601062
112,716.76,0.11508922626472778
113,724.43596,0.11368136975864356
114,726.73,0.11336986433816743
115,735.15,0.11223036636272242
116,745.3799999999999,0.110866843925335
117,755.75,0.10946912379144369
118,764.5,0.10827683245995394
119,775.13,0.10687674751826982
120,784.1099999999999,0.10567666735680949
121,795.02,0.10421131922211768
122,804.2199999999999,0.1029779300232942
123,815.41,0.10146457589559472
124,824.85,0.10022925497419319
125,831.763771,0.09918942472791642
126,834.4,0.09888425185208335
127,844.0699999999999,0.09805812769568996
128,855.8100000000001,0.09687911243549781
129,865.7199999999999,0.09592142185112777
130,875.74,0.09494832190810173
131,885.88,0.0939737583010874
132,894.08,0.09317943692855113
133,904.43,0.09212943290955719
134,914.9,0.0914858872265749
135,925.4999999999999,0.09763506057427196
136,934.0600000000001,0.10652378920977067
137,944.88,0.12157487884015575
138,954.992586,0.13206850409159626
139,955.82,0.13292892731610811
140,964.66,0.14018649573246167
141,975.83,0.09497770835810296
142,984.86,0.13469838677435553
143,993.98,0.13366380676950756
144,1005.49,0.1490103620265471
145,1014.79,0.14278772517949823
146,1024.18,0.10562168991134886
147,1036.04,0.12423314464188655
148,1045.6200000000001,0.1582463893736362
149,1055.3,0.15578492252638534
150,1065.06,0.14086858041593403
151,1074.92,0.14968189672648222
152,1084.87,0.13546623461592994
153,1094.9,0.14927258724217723
154,1096.4782,0.14859641049753408
155,1105.03,0.14508789785149573
156,1115.26,0.14222250005834602
157,1125.5800000000002,0.13441850023182547
158,1135.99,0.14622724837193413
159,1143.8700000000001,0.13871700478346688
160,1154.45,0.1408568201938751
161,1165.13,0.1417087522338713
162,1175.92,0.12043777956641426
163,1184.07,0.13624157987783458
164,1195.02,0.11625260581771829
165,1206.0800000000002,0.1026850570501488
166,1214.44,0.08554261928370388
167,1225.68,0.10875383644939275
168,1234.17,0.1287326113014122
169,1245.59,0.13388671440035943
170,1254.23,0.13080845919676085
171,1258.92541,0.1269459133448391
172,1265.83,0.12142887195042207
173,1274.61,0.1348523875814251
174,1286.4,0.13651646244355783
175,1295.3200000000002,0.12300617082949711
176,1304.3,0.1212576961104091
177,1316.3600000000001,0.13240904199991893
178,1325.49,0.1287215145182626
179,1334.68,0.121480213931579
180,1343.93,0.12955216023986804
181,1356.3600000000001,0.12640375198170944
182,1365.76,0.11950337552743023
183,1375.23,0.12100174045061912
184,1384.76,0.12076430226878074
185,1394.3600000000001,0.11145891546441045
186,1404.03,0.11246332003750831
187,1413.76,0.11409925150557887
188,1423.5600000000002,0.11382680435111753
189,1433.43,0.11294768857412435
190,1443.36,0.11480677969210386
191,1445.43977,0.1149740061102818
192,1446.6899999999998,0.11509663885157939
193,1453.37,0.11312856849981404
194,1463.44,0.1084391694815091
195,1473.59,0.10746051087815307
196,1483.8000000000002,0.10732538008600873
197,1494.09,0.10732940970881333
198,1504.44,0.10397978714282957
199,1511.3899999999999,0.09849034194151685
200,1518.36,0.10088014934394132
201,1525.3700000000001,0.09918026195384025
202,1535.95,0.09263018933083467
203,1546.59,0.09486545451904077
204,1553.73,0.0920190340532317
205,1564.5,0.09249052616572978
206,1575.3500000000001,0.0947731886931768
207,1586.27,0.09580739033370411
208,1593.59,0.09639154330153012
209,1604.6299999999999,0.0941882205644808
210,1615.76,0.09348942954424902
211,1623.21,0.090788549436367
212,1634.47,0.09260081534042722
213,1645.8,0.09238087035756773
214,1653.39,0.08874313847584633
215,1659.58691,0.09035678028213626
216,1664.85,0.0917917081820996
217,1672.5400000000002,0.08686762516298333
218,1676.39,0.0914609605305259
219,1684.13,0.09248558628241668
220,1695.8100000000002,0.08920949118966272
221,1703.6299999999999,0.08711442697516478
222,1715.44,0.08475199068702913
223,1723.36,0.08397846401454528
224,1735.31,0.08586349028522938
225,1743.32,0.08439742740055821
226,1755.4,0.08621004247586062
227,1763.5,0.08239603337900213
228,1775.73,0.08291649476732568
229,1783.9199999999998,0.08301148945827988
230,1796.2900000000002,0.08469108340542315
231,1804.5800000000002,0.08399529563839145
232,1817.0900000000001,0.08053936214435445
233,1825.4799999999998,0.08072932191933685
234,1833.8999999999999,0.07899893295692345
235,1846.61,0.07530802454691465
236,1855.14,0.07516023688071677
237,1863.7,0.07580035047712311
238,1876.62,0.07767144090534389
239,1885.28,0.07429779204376433
240,1893.98,0.0724275281989904
241,1905.46072,0.0736871890081848
242,1907.11,0.07388076116633817
243,1915.91,0.07235044730336837
244,1924.76,0.0711366446116317
245,1933.64,0.0716951426226349
246,1947.04,0.07304327651311271
247,1956.03,0.0702966671008288
248,1965.06,0.07276333862553139
249,1974.13,0.07336368108722047
250,1983.24,0.07112777448589605
251,1996.9899999999998,0.06971397657500575
252,2006.21,0.07017269255039421
253,2015.47,0.06895832946276917
254,2024.77,0.06978350731213064
255,2034.1200000000001,0.06793035633272523
256,2043.51,0.06855348629030633
257,2052.94,0.06611945718487391
258,2067.17,0.06625832051782161
259,2071.93,0.06851357201921524
260,2076.71,0.06703729398910209
261,2086.3,0.06784062863161569
262,2095.93,0.06565499421111579
263,2105.6,0.0657168907276024
264,2115.32,0.0656900084153221
265,2125.08,0.06566406704002833
266,2134.8900000000003,0.06337246683596769
267,2144.75,0.06367593780314017
268,2154.65,0.06433523970729915
269,2164.59,0.06283388254844462
270,2174.58,0.062370966560823235
271,2184.62,0.061741931744434965
272,2187.7616199999998,0.06204501583149783
273,2194.7,0.06276146409966112
274,2204.83,0.06160129245793461
275,2215.01,0.05990338123258655
276,2225.24,0.05888902042361695
277,2235.51,0.06050315194775009
278,2245.83,0.05906780388826169
279,2256.19,0.057602888161876045
280,2266.61,0.057760160935144536
281,2277.0699999999997,0.05823164604151579
282,2287.58,0.05863413156426549
283,2292.85,0.056780281450553874
284,2303.43,0.0568699735562334
285,2314.07,0.055620314161567055
286,2324.75,0.05043328710000347
287,2335.48,0.053434940454818336
288,2346.26,0.05221605422601165
289,2357.09,0.053936618413583416
290,2362.52,0.05174814763228283
291,2373.43,0.05221248648606012
292,2384.38,0.05012001767294015
293,2395.39,0.051271947359474324
294,2406.44,0.050224459379111255
295,2417.55,0.050406619898402324
296,2423.13,0.05172964036623709
297,2434.31,0.05052249746845799
298,2445.5499999999997,0.051518833070333024
299,2456.83,0.05097232100531081
300,2462.5,0.05056696422262677
301,2473.86,0.04944320682381008
302,2485.28,0.04942924792464753
303,2496.76,0.0475906675251391
304,2502.51,0.050201675408660586
305,2511.88643,0.04785527550013409
306,2514.0600000000004,0.04731921485634516
307,2519.8599999999997,0.047633975656337736
308,2525.67,0.04679236071633029
309,2537.32,0.04692755361631536
310,2543.17,0.04657446571630786
311,2554.9100000000003,0.04800701695629282
312,2566.71,0.047151053756277705
313,2572.62,0.048231221416270134
314,2584.5,0.04774161229625491
315,2596.4300000000003,0.04719437447623962
316,2602.41,0.04621917195623196
317,2614.42,0.04569113821621658
318,2626.4900000000002,0.046489900036201105
319,2632.55,0.04737536159619334
320,2644.7,0.04924905749617778
321,2656.8999999999996,0.04997386469616215
322,2663.03,0.04729528607615429
323,2675.3199999999997,0.048034891616138546
324,2687.6699999999996,0.048124952716122715
325,2693.87,0.04644528391611477
326,2706.2999999999997,0.04703776909609885
327,2712.54,0.045468667336090854
328,2725.0600000000004,0.0449299808560748
329,2737.64,0.045863519936058694
330,2743.95,0.04272608799605061
331,2756.6099999999997,0.043231791156034385
332,2762.9700000000003,0.044047720516026234
333,2775.72,0.04477624201600991
334,2782.1200000000003,0.0430564684160017
335,2794.96,0.03883340825598525
336,2807.8599999999997,0.03979811365596872
337,2814.34,0.043760874135960415
338,2827.33,0.04480675787594378
339,2833.84,0.043885811135935426
340,2846.92,0.04275577321591867
341,2853.4900000000002,0.041387842035910255
342,2866.66,0.04377165245589338
343,2873.27,0.044143918315884906
344,2884.0315,0.043795694322714254
345,2886.5299999999997,0.043722607956126404
346,2893.1800000000003,0.04386872719140661
347,2913.2400000000002,0.04581035344098873
348,2926.68,0.04442602642176559
349,2946.97,0.04367526508098897
350,2967.4,0.04374283825042878
351,2987.97,0.04349612593008501
352,3008.6800000000003,0.04343648811995767
353,3029.54,0.043313470142205074
354,3050.53,0.04318985135251059
355,3071.68,0.04312835771734916
356,3092.97,0.04287671859240416
357,3107.2499999999995,0.043046058634479564
358,3128.79,0.042225772563492456
359,3150.4700000000003,0.04197330100272178
360,3172.31,0.04209315459648417
361,3186.9500000000003,0.04054195623625895
362,3209.05,0.04119322820613755
363,3231.29,0.03968743468623258
364,3253.69,0.041485966320860664
365,3268.71,0.042484880202651454
366,3291.3599999999997,0.04196300489123745
367,3306.56,0.04142527457187793
368,3311.31121,0.04125990120851009
369,3321.8199999999997,0.04091701668220483
370,3329.48,0.04210250864996469
371,3337.1499999999996,0.04130096772212111
372,3344.85,0.040581228107467185
373,3352.56,0.04018278559720982
374,3360.2799999999997,0.040961480191349
375,3368.03,0.04074362609867785
376,3375.79,0.03775372911040324
377,3383.58,0.03851836343531831
378,3391.38,0.04084448486462992
379,3399.19,0.04158448339833808
380,3407.0299999999997,0.03985363324523591
381,3414.88,0.040379830196530284
382,3422.76,0.04169275846101432
383,3430.65,0.04095196382989491
384,3438.55,0.04111515630317206
385,3446.48,0.037588930089638865
386,3454.43,0.040418808084898776
387,3462.3900000000003,0.03815460318455524
388,3470.37,0.03942976249300481
389,3478.37,0.03723871601024749
390,3486.39,0.03894579373628328
391,3494.43,0.03826293567111217
392,3502.48,0.039924634710337616
393,3510.56,0.03933786506275272
394,3518.6499999999996,0.03828673251956438
395,3526.7599999999998,0.03790479418516914
396,3534.89,0.039553040059567016
397,3543.04,0.040986290142757995
398,3551.21,0.04056631443474208
399,3559.39,0.03989814583112272
400,3567.6000000000004,0.03930556854069302
401,3575.82,0.03691233835465987
402,3584.0699999999997,0.03593947948181638
403,3592.3300000000004,0.03607004771336945
404,3600.61,0.03980617015371562
405,3606.07,0.03826223915423375
406,3608.8199999999997,0.03679129286328592
407,3611.57,0.03936993657233809
408,3614.31,0.03682770317699371
409,3617.0600000000004,0.038308596886045876
410,3619.8,0.037303873490701495
411,3622.5499999999997,0.04196867719975367
412,3625.3,0.04211689090880583
413,3628.04,0.04071586751346146
414,3630.79,0.037489661222513626
415,3633.5299999999997,0.037986167827169244
416,3636.28,0.034718421536221414
417,3639.0299999999997,0.04138724524527359
418,3641.7699999999995,0.036890641849929205
419,3644.52,0.037018335558981375
420,3647.2700000000004,0.03773189926803354
421,3650.01,0.040027595872689156
422,3652.7599999999998,0.04015097958174133
423,3655.5,0.03844292618639695
424,3658.25,0.03731337989544912
425,3661.0,0.03812435360450129
426,3663.74,0.03892550020915691
427,3666.4900000000002,0.036020173918209074
428,3669.23,0.0396070005228647
429,3671.98,0.04020644423191687
430,3674.73,0.03744341794096903
431,3677.47,0.03679871454562465
432,3680.2200000000003,0.036647558254676825
433,3682.96,0.03805606485933244
434,3685.71,0.03955510856838461
435,3688.46,0.035469432277436784
436,3691.2,0.039030468882092405
437,3693.95,0.03864867259114457
438,3696.69,0.040193269195800185
439,3699.44,0.03876720290485236
440,3702.19,0.037500626613904534
441,3704.9300000000003,0.03619746321856015
442,3707.68,0.03790326692761232
443,3710.4199999999996,0.04092665353226794
444,3713.17,0.042715527241320106
445,3715.9199999999996,0.04170153095037228
446,3718.66,0.048256457555027894
447,3721.41,0.07190574126408007
448,3724.15,0.10988066786873568
449,3726.9,0.14272682157778785
450,3729.65,0.12512607528684003
451,3732.39,0.08526052189149565
452,3735.1400000000003,0.05436034560054781
453,3737.88,0.04040658220520343
454,3740.6299999999997,0.0409153059142556
455,3743.38,0.03944339962330777
456,3746.12,0.03727455622796339
457,3748.8700000000003,0.03718689993701556
458,3751.62,0.03801554364606773
459,3754.36,0.040896160250723346
460,3757.11,0.04154908395977552
461,3759.8500000000004,0.041620150564431135
462,3762.6,0.04149715427348331
463,3765.35,0.04145389798253548
464,3768.09,0.039718624587191095
465,3770.8399999999997,0.041890918296243265
466,3773.5800000000004,0.043655654900898885
467,3776.33,0.04495938860995105
468,3779.0800000000004,0.046394432319003226
469,3781.82,0.04652186892365884
470,3784.5699999999997,0.04601495263271101
471,3787.31,0.04530581923736664
472,3790.06,0.0422992529464188
473,3792.81,0.04062775665547097
474,3795.5499999999997,0.04028245326012659
475,3798.3,0.04027214696917876
476,3801.04,0.03978216357383438
477,3801.8939600000003,0.04048623766640991
478,3803.7900000000004,0.04205239605486727
479,3806.54,0.04574015862161601
480,3809.2799999999997,0.048603988742667484
481,3812.03,0.04656712130941622
482,3814.77,0.046152981430467685
483,3817.52,0.044897293997216425
484,3820.27,0.04512134656396516
485,3823.01,0.04410365668501663
486,3825.76,0.04290525925176537
487,3828.5000000000005,0.04088196937281683
488,3831.25,0.03840200193956557
489,3834.0,0.03886672450631431
490,3836.7400000000002,0.038935304627365774
491,3839.49,0.03930977719411451
492,3842.23,0.04047468731516598
493,3844.98,0.04309955988191472
494,3847.7299999999996,0.046821222448663456
495,3850.47,0.04662674256971493
496,3853.22,0.04711578513646366
497,3855.9700000000003,0.048623807703212396
498,3858.71,0.04728716782426387
499,3861.46,0.0494631903910126
500,3864.2,0.05218044051206407
501,3866.9500000000003,0.05115346307881281
502,3869.7,0.04940546564556155
503,3872.4399999999996,0.04947599576661302
504,3875.19,0.046900988333361746
505,3877.93,0.04470438845441322
506,3880.6800000000003,0.044333481021161955
507,3883.43,0.04267431358791069
508,3886.17,0.044280423708962166
509,3888.92,0.0432668362757109
510,3891.6600000000003,0.041757796396762366
511,3894.41,0.044272368963511104
512,3897.16,0.04473803153025984
513,3899.9,0.04536960165131131
514,3902.6499999999996,0.046399174218060044
515,3905.3900000000003,0.04779711433911152
516,3908.14,0.04841461690586025
517,3910.8900000000003,0.048750389472608985
518,3913.63,0.04830282959366046
519,3916.3799999999997,0.048307712160409196
520,3919.12,0.04670892228146066
521,3921.87,0.046226764848209395
522,3924.62,0.04434937741495814
523,3927.3599999999997,0.04087594753600961
524,3930.11,0.03968044010275834
525,3932.85,0.039194650223809815
526,3935.6000000000004,0.041336792790558546
527,3938.35,0.04298281535730728
528,3941.0899999999997,0.045437905478358756
529,3943.84,0.04536352804510749
530,3946.58,0.04667981816615896
531,3949.33,0.0464239907329077
532,3952.08,0.04748029329965644
533,3954.82,0.0458662334207079
534,3957.57,0.04327547598745664
535,3960.32,0.03985342855420537
536,3963.06,0.03720795867525684
537,3965.81,0.03669191124200558
538,3968.55,0.037747461363057046
539,3971.2999999999997,0.03793619392980579
540,3974.05,0.039675336496554525
541,3976.79,0.04194610661760599
542,3979.54,0.044845059184354726
543,3982.28,0.0477977093054062
544,3985.0299999999997,0.047742901872154936
545,3987.78,0.048833104438903666
546,3990.52,0.04989728455995514
547,3993.27,0.04901689712670388
548,3996.0099999999998,0.049877667247755345
549,3998.76,0.050625039814504086
550,4001.5099999999998,0.05057309238125282
551,4004.2499999999995,0.049723972502304294
552,4007.0,0.050838535069053024
553,4009.74,0.05263136519010449
554,4012.4900000000002,0.05269496775685323
555,4015.24,0.05200223032360197
556,4017.98,0.052556940444653436
557,4020.73,0.05149605301140217
558,4023.4700000000003,0.05044017313245364
559,4026.22,0.051635905699202386
560,4028.9700000000003,0.04992850826595112
561,4031.71,0.050134638387002585
562,4034.4600000000005,0.05170042095375132
563,4037.2000000000003,0.05181775107480279
564,4039.95,0.04981477364155153
565,4042.7000000000003,0.05081760620830027
566,4045.44,0.050564866329351726
567,4048.19,0.050655218896100467
568,4050.93,0.05015322901715194
569,4053.68,0.04877481158390067
570,4056.43,0.05026754415064941
571,4059.1699999999996,0.04825239427170088
572,4061.92,0.050070296838449616
573,4064.67,0.05019263940519836
574,4067.4100000000003,0.05168273952624982
575,4070.16,0.04976237209299856
