,lambda (Angstroms),Total Flux (erg/s/cm^2/Angstrom)
0,101.98,18.627050204398383
1,104.11999999999999,18.56726001392714
2,104.712855,18.550696042551138
3,106.05,18.35445482722686
4,108.02000000000001,18.065334976832897
5,110.03,17.77034477188642
6,113.9,17.202378482870323
7,117.9,16.615333282804677
8,120.22644299999999,16.273903820934283
9,120.92999999999999,16.187336110966786
10,124.89,15.700083274819894
11,126.92,15.450304638053522
12,128.09,15.306343636918509
13,131.07,14.939673652362009
14,131.98,14.82770518838622
15,134.13,14.563161517862818
16,136.94,14.21741122988777
17,138.038426,14.082257190095739
18,140.13,13.898304915657816
19,143.06,13.64063964102424
20,147.07,13.288025141464507
21,150.84,12.956468888765027
22,155.07,12.584458628489223
23,158.489319,12.283747384426508
24,159.04000000000002,12.247134463457725
25,162.0,12.050334558810215
26,166.16,11.773754314575875
27,170.03,11.516455045245852
28,173.19,11.306361321150538
29,176.80999999999997,11.065688824455274
30,180.10000000000002,10.84695268513388
31,181.970086,10.722621162171917
32,182.19,10.711467232610168
33,185.99999999999997,10.518229535717836
34,191.20999999999998,10.253984473340395
35,193.87,10.119080423328688
36,197.93,9.913165152531871
37,202.08,9.702689793797441
38,204.89000000000001,9.560178789723045
39,208.929613,9.355283845645147
40,210.14000000000001,9.309129660158586
41,216.03,9.084593354043715
42,220.05,8.931332522022528
43,223.11,8.814660409560132
44,227.26,8.656449692376816
45,229.89,8.55657249651992
46,234.16,8.394607615979256
47,239.88329199999998,8.176908701816227
48,240.17,8.168511301438448
49,245.76000000000002,8.004178846329378
50,252.07,7.81898926504526
51,256.76,7.680760194655005
52,259.73,7.593911095682924
53,263.95,7.470099419156936
54,268.86,7.325865789213192
55,273.85,7.179282827249999
56,275.42287,7.1330743542392865
57,278.95,7.053557919995329
58,284.13,6.936794575793887
59,290.08,6.802517466900341
60,296.15,6.665735540496338
61,300.96999999999997,6.55701423282627
62,307.98,6.399026833590343
63,316.227766,6.213145375694867
64,318.07,6.182143044939598
65,327.72999999999996,6.019496767733614
66,337.69,5.8517538251485615
67,347.95,5.678939845184441
68,356.88,5.528549321734188
69,363.078055,5.424185777284847
70,366.03,5.386967775539319
71,375.42,5.268513364428152
72,385.04999999999995,5.14690382672309
73,394.93,5.02240447710772
74,405.06,4.894651761582042
75,413.54,4.787649872264398
76,416.86938299999997,4.745628729063653
77,422.2,4.694243290847532
78,430.05,4.61858632079539
79,441.08000000000004,4.512338293504289
80,451.36,4.4132425390525665
81,459.75,4.332365413356072
82,470.46,4.229145962409774
83,478.630092,4.150425405744019
84,480.30999999999995,4.137976330886373
85,490.36,4.063421286209161
86,499.48,3.9958625000005883
87,506.43,3.944296009218836
88,512.29,3.9010151189970994
89,519.4200000000001,3.848139872737544
90,530.3,3.7674357145238093
91,540.16,3.69424125901761
92,549.5408739999999,3.6246708025867607
93,550.2,3.620940813724006
94,560.4300000000001,3.563173480191783
95,569.53,3.511752843877686
96,580.12,3.4518029139308397
97,589.55,3.3984840849866695
98,600.51,3.3363987000303497
99,610.27,3.280857677456107
100,620.18,3.2252148529591063
101,630.26,3.168146313349643
102,630.957344,3.164205118252689
103,640.5,3.1214521010243024
104,649.41,3.0814596254341433
105,658.4399999999999,3.0409091423377195
106,664.54,3.0136116432692606
107,675.3299999999999,2.965240584080954
108,684.73,2.9229714450902136
109,694.25,2.880368632593209
110,705.5400000000001,2.829614791628799
111,715.35,2.7857444592416547
112,724.43596,2.744993589270133
113,725.3,2.7421161060352652
114,735.39,2.7085282287289187
115,745.62,2.6744419311219887
116,754.2600000000001,2.645658323143116
117,764.75,2.6105204192636737
118,775.39,2.575300110419321
119,784.3700000000001,2.545338646853316
120,795.28,2.509056218072123
121,804.4900000000001,2.4784101772265874
122,815.6800000000001,2.4411542688442283
123,825.12,2.409737453719163
124,831.763771,2.3874932403448046
125,834.68,2.3801787867671664
126,844.3399999999999,2.3562903461902023
127,854.12,2.3319351626371256
128,864.0100000000001,2.3073351443559473
129,874.02,2.282431203098658
130,884.1400000000001,2.257248431113266
131,894.37,2.231792433399773
132,904.73,2.2059916604621588
133,915.21,2.1803005285484325
134,925.8,2.157110008906605
135,934.3700000000001,2.139788391362652
136,945.19,2.1186325390166103
137,953.94,2.1015976920084904
138,954.992586,2.0992018859685615
139,964.98,2.0770057591378377
140,973.9100000000001,2.03936306372218
141,985.1899999999999,2.0248362135655604
142,994.3000000000001,2.0032258134931484
143,1005.82,1.9825483694608559
144,1015.12,1.9590537805285362
145,1024.52,1.9224258695646865
146,1034.0,1.9064690469756123
147,1045.97,1.891763418801433
148,1055.65,1.867511032149298
149,1065.42,1.8374437186687862
150,1075.27,1.8179029935630502
151,1085.22,1.7873950464257835
152,1095.26,1.7706216224601397
153,1096.4782,1.7674967549284082
154,1105.4,1.7485445246133777
155,1115.6299999999999,1.7270194630791262
156,1125.95,1.7035147748744848
157,1133.75,1.6945125734407445
158,1144.24,1.6707531681920347
159,1154.83,1.6512905299762262
160,1165.52,1.6307677187933176
161,1176.3,1.5994975209400202
162,1184.46,1.5919008328247222
163,1195.4199999999998,1.5609801816306466
164,1203.7,1.5387314979548294
165,1214.84,1.510767553419975
166,1226.08,1.499329195918021
167,1234.58,1.4924579137145861
168,1246.0,1.4726466028718532
169,1254.6399999999999,1.4539811325144796
170,1258.92541,1.443830424517223
171,1266.2499999999998,1.4306693325651156
172,1275.03,1.425904381730891
173,1283.86,1.4149670309146956
174,1295.74,1.390436221198228
175,1304.73,1.3773085624397226
176,1313.77,1.371515753699246
177,1325.9299999999998,1.3526070400837376
178,1335.12,1.3356381113973455
179,1344.3700000000001,1.3280696147325877
180,1353.6899999999998,1.3137048920930698
181,1366.22,1.2921700126109705
182,1375.69,1.2801421300255371
183,1385.22,1.2668539094617384
184,1394.82,1.2484745329231788
185,1404.49,1.2356697804098589
186,1414.23,1.2230922019217787
187,1424.03,1.2097841154553328
188,1433.8999999999999,1.1956185830141264
189,1440.5200000000002,1.1878565894010775
190,1445.43977,1.1812283293179155
191,1447.17,1.1796390999328978
192,1453.85,1.1719816733613737
193,1463.93,1.1594946712893723
194,1474.0700000000002,1.1493003570026568
195,1484.29,1.139683799762989
196,1494.5800000000002,1.1299312499394876
197,1504.9399999999998,1.1179186875321534
198,1511.8899999999999,1.1078818409944147
199,1515.3700000000001,1.1062003025409854
200,1525.87,1.0949298049659846
201,1536.45,1.0808294844380308
202,1543.54,1.0757643927326253
203,1554.24,1.0637771577752433
204,1565.02,1.0536857398649087
205,1575.8600000000001,1.0445491897398596
206,1586.79,1.0348855862927395
207,1594.11,1.028234016097596
208,1605.1599999999999,1.016614318221047
209,1616.29,1.0055837873915456
210,1623.75,0.9967086120287351
211,1635.0,0.9871740667698055
212,1646.34,0.9762698081888042
213,1653.94,0.966664577658327
214,1659.58691,0.9621895626072952
215,1665.3999999999999,0.9593089361101291
216,1673.0900000000001,0.950895204815508
217,1676.95,0.9515633825661922
218,1684.69,0.9472335259315541
219,1696.3600000000001,0.9372830895715767
220,1704.1899999999998,0.930804183324908
221,1716.01,0.9212871309448792
222,1723.9299999999998,0.9156070150861798
223,1735.8799999999999,0.9090009988221069
224,1743.8899999999999,0.9027402433513767
225,1755.98,0.896100612135256
226,1764.0800000000002,0.8881053370524951
227,1776.3100000000002,0.8802372708843267
228,1784.51,0.8750533751215319
229,1796.8799999999999,0.8683195140013159
230,1805.17,0.8622257886264902
231,1813.5100000000002,0.8542908879116475
232,1826.08,0.8460718454313633
233,1834.51,0.8392190851044901
234,1842.9699999999998,0.8310551615736067
235,1855.75,0.8225240166652507
236,1864.3100000000002,0.817451592454333
237,1872.9199999999998,0.8133058829033987
238,1885.9,0.8022889466349744
239,1894.61,0.7955509564040059
240,1903.3500000000001,0.7907097529690268
241,1905.46072,0.7891222132954053
242,1916.54,0.7828438268522863
243,1925.3899999999999,0.7775993962036828
244,1934.28,0.7731898094278541
245,1943.21,0.7705866465248001
246,1956.68,0.7622530081816715
247,1965.71,0.7601365499605542
248,1974.78,0.7558411756122118
249,1983.9,0.7503197786048372
250,1993.0500000000002,0.7450527520020439
251,2006.8700000000001,0.738512395045694
252,2016.1299999999999,0.733192016593031
253,2025.44,0.7288212954813362
254,2034.79,0.7237004482424163
255,2044.1799999999998,0.7202225848762711
256,2053.6099999999997,0.7140075653829007
257,2063.09,0.7092455632304981
258,2072.62,0.7064619484190643
259,2077.39,0.7077691527474443
260,2086.98,0.7062151287451723
261,2096.62,0.6991100920838688
262,2106.29,0.6938885758271462
263,2116.02,0.6905613603795857
264,2125.7799999999997,0.6843535453366063
265,2135.6,0.6772901911027888
266,2145.4500000000003,0.6759899872735521
267,2155.36,0.6715952842534776
268,2165.3,0.6638729016379841
269,2175.3,0.6588611398316525
270,2185.34,0.6570053418980958
271,2187.7616199999998,0.6559142039442383
272,2195.43,0.6537206083760878
273,2205.56,0.6492346957465224
274,2215.74,0.6410586366873933
275,2225.97,0.6392231611987008
276,2236.24,0.6418486505663574
277,2246.56,0.6364642535044506
278,2256.93,0.6276790400129805
279,2267.35,0.6233696700919467
280,2272.58,0.6234855275596043
281,2283.07,0.6258228086371815
282,2293.61,0.6174850532851952
283,2304.19,0.6178279127895584
284,2314.83,0.6099991245784451
285,2325.51,0.5995643312236811
286,2336.25,0.596428190153441
287,2347.0299999999997,0.5884034739395501
288,2352.44,0.595257308260779
289,2363.3,0.5836726317595864
290,2374.21,0.5831360488288303
291,2385.17,0.5735776294685107
292,2396.18,0.5724978436786277
293,2407.24,0.568124031459181
294,2412.79,0.5682789277776322
295,2423.92,0.5735971365567967
296,2435.11,0.5694903576204849
297,2446.35,0.5705026722546098
298,2457.6400000000003,0.5680944904591708
299,2463.31,0.5619019113466698
300,2474.68,0.5548733092639295
301,2486.1,0.5435265507516257
302,2497.58,0.5415238545238457
303,2503.34,0.5497271638381303
304,2511.88643,0.5358592268838686
305,2514.8900000000003,0.5312489425655483
306,2520.69,0.5280113835840017
307,2526.5,0.5268761005524868
308,2532.32,0.5317210234710036
309,2544.0099999999998,0.5295866690581967
310,2555.75,0.5422091543955487
311,2567.55,0.5301841754330915
312,2573.47,0.5363018878519267
313,2585.3500000000004,0.529372646489724
314,2597.28,0.5232814048776806
315,2603.2699999999995,0.5179407789467385
316,2615.2799999999997,0.5127027249349495
317,2627.36,0.5171823525733832
318,2633.41,0.5364100023426319
319,2645.5699999999997,0.5510923375813203
320,2657.78,0.5743867725701675
321,2663.91,0.5373162999396708
322,2676.2000000000003,0.5429754025287724
323,2682.37,0.5519626036984031
324,2694.75,0.5274783098377912
325,2707.19,0.5381951916773704
326,2713.43,0.5166821944972236
327,2725.96,0.503087889887089
328,2732.2400000000002,0.5129362765070695
329,2744.85,0.48627728949718957
330,2757.52,0.4933603581875004
331,2763.88,0.5043316824077354
332,2776.6400000000003,0.5049289846483326
333,2783.04,0.48104467266869494
334,2795.88,0.4590135925095467
335,2802.33,0.46086144028006804
336,2815.2599999999998,0.4885809036712062
337,2821.75,0.5105343252418547
338,2834.78,0.5031140381333109
339,2847.8599999999997,0.48082556077492644
340,2854.43,0.4582900399458295
341,2867.6000000000004,0.4960499361377311
342,2874.21,0.5192675391087616
343,2884.0315,0.5096138821729015
344,2887.48,0.5064840609023019
345,2894.14,0.5248632746369161
346,2907.49,0.5603815096004444
347,2927.65,0.537954365770087
348,2947.94,0.5250143810816966
349,2968.38,0.5276528338648065
350,2988.9500000000003,0.5259396457898835
351,3009.67,0.5233108951864607
352,3030.53,0.5283037928897716
353,3051.54,0.5303938280645828
354,3072.69,0.5392356115461275
355,3086.87,0.533654747185291
356,3108.27,0.553823559786003
357,3129.8199999999997,0.5372673098582154
358,3151.51,0.5332096082371612
359,3173.36,0.5458248332523741
360,3188.01,0.5187793596355718
361,3210.1000000000004,0.5322142246051853
362,3232.35,0.5004399162110658
363,3247.27,0.557383150042964
364,3269.7799999999997,0.5882098599327784
365,3292.4500000000003,0.5794198964588597
366,3307.64,0.5620386377394586
367,3311.31121,0.5585409758613585
368,3322.91,0.548103128132331
369,3330.5699999999997,0.5677256214247122
370,3338.25,0.5340403494254287
371,3345.95,0.5650732121344804
372,3353.66,0.5404933921976995
373,3361.3900000000003,0.5394401069692539
374,3369.14,0.5413116564491436
375,3376.9100000000003,0.5320672406373684
376,3384.69,0.5213336421797609
377,3392.4900000000002,0.5614117784304885
378,3400.3100000000004,0.5801775493895514
379,3408.1499999999996,0.5528189550569494
380,3416.0099999999998,0.5310413954326827
381,3423.88,0.5865334531625834
382,3431.7799999999997,0.574076062954987
383,3439.69,0.5677757901015583
384,3447.6200000000003,0.49853525195646464
385,3455.56,0.5468609311655387
386,3463.53,0.5088525624371155
387,3471.5099999999998,0.55496001106286
388,3479.52,0.4988589117511072
389,3487.54,0.529137729793522
390,3495.58,0.5159409825442721
391,3503.64,0.5730790700033572
392,3511.71,0.5613167748166101
393,3519.81,0.5561838316923657
394,3527.92,0.4953163059222889
395,3536.05,0.5511143148605473
396,3544.21,0.5760615758613086
397,3552.38,0.5812318542162374
398,3560.57,0.5616237672795014
399,3568.77,0.504585097696933
400,3577.0,0.5149552801768674
401,3585.25,0.46376129736513705
402,3593.5099999999998,0.5186902319075742
403,3601.8,0.5873986185125142
404,3610.1,0.5246604224716219
405,3618.42,0.5639314611390647
406,3626.4,0.6698754097648091
407,3629.1400000000003,0.5487974648067313
408,3631.88,0.47302131984865364
409,3634.62,0.5496883748905759
410,3637.36,0.6230027299324982
411,3640.1099999999997,0.634387402328588
412,3642.8500000000004,0.6638975573705103
413,3645.59,0.6019509124124326
414,3648.3300000000004,0.4699963674543548
415,3651.07,0.4936543224962771
416,3653.81,0.7112338775381994
417,3656.55,0.6506457325801216
418,3659.29,0.8126998876220439
419,3662.03,0.7636069426639662
420,3664.77,0.6906437977058885
421,3667.5099999999998,0.5519572527478108
422,3670.25,0.602672907789733
423,3672.99,0.6413184628316553
424,3675.73,0.6373966178735776
425,3678.47,0.7462418729154998
426,3681.2200000000003,0.6755568453115897
427,3683.96,0.638891100353512
428,3686.7,0.6048290553954343
429,3689.44,0.4601862104373565
430,3692.18,0.4097956654792788
431,3694.92,0.5837019205212011
432,3697.66,0.5049911755631233
433,3700.3999999999996,0.4869963306050456
434,3703.14,0.607319185646968
435,3705.8799999999997,0.6206576406888902
436,3708.6200000000003,0.5111359957308124
437,3711.36,0.4463239507727347
438,3714.1000000000004,0.5573810058146569
439,3716.84,0.5991268608565792
440,3719.58,0.6107410158985015
441,3722.32,0.6387970709404238
442,3725.0699999999997,0.6460537433365137
443,3727.81,0.7158233983784359
444,3730.55,0.7227088534203582
445,3733.2900000000004,0.5023455084622804
446,3736.03,0.3848905635042027
447,3738.77,0.478303918546125
448,3741.51,0.46019587358804726
449,3744.25,0.5520678286299696
450,3746.9900000000002,0.5287955836718918
451,3749.73,0.4225222387138141
452,3752.47,0.4807009937557364
453,3755.21,0.4132938487976586
454,3757.95,0.5077611038395808
455,3760.69,0.5201503588815032
456,3763.43,0.39544081392342545
457,3766.1699999999996,0.41452686896534774
458,3768.92,0.46045924136143757
459,3771.66,0.6492394964033599
460,3774.4,0.581823851445282
461,3777.14,0.48554810648720437
462,3779.88,0.5744765615291266
463,3782.62,0.569021916571049
464,3785.3599999999997,0.6212788716129714
465,3788.1,0.6188113266548935
466,3790.8399999999997,0.6983173816968158
467,3793.58,0.6097049367387379
468,3796.32,0.5269707917806603
469,3799.0600000000004,0.6746560468225825
470,3801.8,0.6299172018645048
471,3801.8939600000003,0.6227699065957844
472,3804.54,0.4215908910498364
473,3807.28,0.464570675598849
474,3810.02,0.5935997601478618
475,3812.77,0.6596022340565424
476,3815.5099999999998,0.5763170186055551
477,3818.2500000000005,0.6172590031545675
478,3820.9900000000002,0.6871392877035802
479,3823.73,0.6990296722525929
480,3826.4700000000003,0.6268913568016055
481,3829.21,0.43686564135061823
482,3831.9500000000003,0.4943102258996309
483,3834.69,0.4950884104486436
484,3837.43,0.3474651349976562
485,3840.17,0.4120411795466688
486,3842.91,0.5313078640956815
487,3845.65,0.6178391486446941
488,3848.39,0.4497497331937068
489,3851.1299999999997,0.4946193177427195
490,3853.88,0.5854065916514
491,3856.62,0.6085569762004128
492,3859.36,0.4982841607494254
493,3862.1,0.42835784529843807
494,3864.84,0.5845831298474506
495,3867.58,0.7171127143964633
496,3870.3199999999997,0.523281298945476
497,3873.06,0.45696898349448867
498,3875.7999999999997,0.42681436804350137
499,3878.54,0.5058474525925141
500,3881.2799999999997,0.47126023714152676
501,3884.0200000000004,0.5730314216905392
502,3886.76,0.554955606239552
503,3889.5,0.5643204907885646
504,3892.2400000000002,0.48632977533757726
505,3894.98,0.54720565988659
506,3897.73,0.4123463337952705
507,3900.47,0.5588093183442832
508,3903.2099999999996,0.6275662028932958
509,3905.9500000000003,0.6357640874423085
510,3908.69,0.5584877719913212
511,3911.4300000000003,0.5021031565403338
512,3914.17,0.6122344410893464
513,3916.9100000000003,0.631997225638359
514,3919.65,0.6533711101873718
515,3922.39,0.5697112947363845
516,3925.13,0.5803736792853971
517,3927.87,0.6179803638344097
518,3930.61,0.5973790483834225
519,3933.35,0.6728156329324351
520,3936.0899999999997,0.6057978174814478
521,3938.83,0.6251600020304604
522,3941.58,0.402622975939141
523,3944.32,0.5054649604881536
524,3947.06,0.5092563450371663
525,3949.8,0.4524363295861789
526,3952.54,0.6267493141351916
527,3955.2799999999997,0.4706432986842043
528,3958.02,0.528026983233217
529,3960.7599999999998,0.5756048677822296
530,3963.5,0.6224337523312422
531,3966.24,0.6250233368802549
532,3968.9799999999996,0.6721832214292676
533,3971.7200000000003,0.5915888059782801
534,3974.46,0.4069097905272928
535,3977.2000000000003,0.4043873750763055
536,3979.94,0.39040445962531817
537,3982.69,0.41038333353399875
538,3985.43,0.5635344180830114
539,3988.1699999999996,0.561029502632024
540,3990.91,0.6439638871810368
541,3993.65,0.6810392717300493
542,3996.3900000000003,0.645441856279062
543,3999.13,0.7625923408280747
544,4001.8700000000003,0.8285277253770873
545,4004.61,0.6513993099261
546,4007.35,0.6894848944751126
547,4010.09,0.5984663790241253
548,4012.83,0.685433063573138
549,4015.57,0.8184679481221506
550,4018.31,0.7901074326711632
551,4021.0499999999997,0.726181217220176
552,4023.79,0.9053890017691886
553,4026.54,0.7666352756778692
554,4029.28,0.7000270602268819
555,4032.02,0.7809324447758945
556,4034.76,0.8354770293249072
557,4037.5,0.7281390138739199
558,4040.24,0.8594668984229326
559,4042.98,0.7700769829719452
560,4045.72,0.7698798675209577
561,4048.46,0.7372173520699704
562,4051.2,0.815048736618983
563,4053.9399999999996,0.6834397211679958
564,4056.68,0.7228317057170084
565,4059.42,0.771733290266021
566,4062.1600000000003,0.7468387748150337
567,4064.9,0.7421045593640464
568,4067.6400000000003,0.7615800439130589
569,4070.39,0.7919029178217396
570,4073.1299999999997,0.8100460023707523
571,4075.87,0.702254986919765
572,4078.6099999999997,0.6927309714687776
573,4081.3500000000004,0.7014253560177902
574,4084.09,0.7186540405668029
575,4086.8300000000004,0.7681652251158155
576,4089.57,0.7566818096648282
577,4092.31,0.775495394213841
578,4095.05,0.8033050787628535
579,4097.79,0.8386910633118662
580,4100.53,0.7945855478608789
581,4103.2699999999995,0.7539197324098916
582,4106.01,0.7477660169589042
583,4108.75,0.7502686015079169
584,4111.5,0.7080407754165974
585,4114.24,0.7193126599656101
586,4116.9800000000005,0.7809548445146226
587,4119.72,0.8327127290636354
588,4122.46,0.796088013612648
589,4125.2,0.8390415981616608
590,4127.94,0.8432771827106735
591,4130.68,0.829233567259686
592,4133.42,0.7879931518086987
593,4136.16,0.7731308363577114
594,4138.9,0.735791820906724
595,4141.639999999999,0.7009608054557367
596,4144.38,0.6834249900047493
