,lambda (Angstroms),Total Flux (erg/s/cm^2/Angstrom)
0,102.07000000000001,1.7311022437561447
1,103.97,1.7261681638833355
2,104.712855,1.7242390573200876
3,105.9,1.7080451168543755
4,108.12,1.677761922171066
5,109.87,1.6538900676547712
6,114.0,1.5975524414940596
7,118.0,1.5429881698771712
8,120.22644299999999,1.5126176956966533
9,121.02999999999999,1.5034279473653964
10,125.0,1.458024886275213
11,127.03,1.4348086950086407
12,127.91,1.4247445755827965
13,130.89,1.390663678699188
14,132.1,1.3768257310401522
15,133.94,1.355782529357387
16,137.06,1.3201009793103944
17,138.038426,1.3089112188389689
18,139.93,1.2934483962372065
19,142.86,1.2695024760217262
20,146.85999999999999,1.2368174904285794
21,150.97,1.203221819287121
22,154.84,1.1715885823492511
23,158.489319,1.1417592213941827
24,159.18,1.1374911766031695
25,162.14,1.119200142747717
26,165.92,1.09584281022724
27,170.17999999999998,1.069518542124798
28,172.94,1.0524641096534975
29,176.97,1.0275615538228302
30,179.84,1.009827301390246
31,181.93,0.9969128029758553
32,181.970086,0.9966651013704934
33,186.16,0.9769140563656998
34,190.94,0.9543823138632384
35,194.04000000000002,0.9397699673122696
36,198.10999999999999,0.9205847169245465
37,201.79,0.9032387679198481
38,205.07000000000002,0.8877776237997907
39,208.929613,0.8695821387332757
40,209.84,0.8663555890284849
41,216.22,0.8437516136355517
42,220.23999999999998,0.8295076003820735
43,222.79,0.8204715624030013
44,226.93,0.8058027324334489
45,230.09,0.794660873633501
46,233.83,0.7815209990841953
47,239.83,0.7603228501804963
48,239.88329199999998,0.7601338312166669
49,245.98,0.743467136898152
50,252.29000000000002,0.7262561786663903
51,256.97999999999996,0.7133912079529258
52,259.95,0.7053269573527144
53,264.18,0.69379296661605
54,269.09,0.6803834313136811
55,274.09,0.6667271381658508
56,275.42287,0.6630867188819521
57,279.19,0.6551906589437917
58,283.72,0.6456958337866266
59,290.33,0.631823531739196
60,295.72999999999996,0.6205118578856219
61,301.23,0.6089772396680926
62,308.25,0.594266782438446
63,316.227766,0.577550182288886
64,318.34000000000003,0.5742449462528341
65,328.02,0.5590879869419935
66,337.98,0.5434889856886903
67,348.25,0.5274036819990897
68,357.19,0.5134036024361852
69,363.078055,0.5041835201768573
70,366.35,0.5003464633030177
71,374.88,0.49033957528399097
72,385.39,0.47799889579055943
73,395.27,0.466419414479893
74,405.41,0.4545264961715774
75,413.90000000000003,0.4445641834752659
76,416.86938299999997,0.4410793415694598
77,421.6,0.43683854539353667
78,430.41999999999996,0.428933869710077
79,441.46999999999997,0.4190339539276246
80,450.71,0.41075181531161925
81,460.15,0.40229074237059204
82,469.78,0.3936604576457942
83,478.630092,0.3857313541653435
84,479.62,0.3850491491985225
85,489.66,0.3781243843989122
86,499.92,0.3710560844066811
87,505.7,0.3670739505278219
88,511.56,0.36308577958800947
89,519.87,0.35736099594400933
90,529.54,0.3506971453638071
91,539.38,0.3439061382665795
92,549.41,0.3370247026620884
93,549.5408739999999,0.33693484169065807
94,559.62,0.33166049613134124
95,570.03,0.3262083132162497
96,580.63,0.32062487133075795
97,590.0600000000001,0.3157046478103628
98,599.65,0.31066526746226225
99,609.39,0.30555874990068765
100,619.29,0.30041519091140756
101,629.36,0.2951427952801903
102,630.957344,0.2943043113808151
103,639.58,0.2907169942563311
104,649.98,0.28642557572202926
105,657.5,0.2833128302172264
106,665.12,0.28016723636209373
107,674.37,0.2763216205565849
108,685.3299999999999,0.271745851680436
109,694.86,0.2679012798540036
110,704.53,0.2638400133171095
111,715.9699999999999,0.2591946987193775
112,724.43596,0.25569424477141256
113,725.9300000000001,0.25523685790491074
114,734.34,0.2526680139842581
115,744.56,0.24959383662788828
116,754.9100000000001,0.2464503083628757
117,765.41,0.24323465381866016
118,774.28,0.24060009667511803
119,785.0500000000001,0.23733539932833683
120,794.14,0.23459083130863026
121,805.1899999999999,0.23124080757400334
122,814.51,0.22841290109285198
123,825.84,0.2250375079703793
124,831.763771,0.22305855792673285
125,835.4,0.2221276872673045
126,845.08,0.22022642411427196
127,854.86,0.21801934114767504
128,864.76,0.2158634886048009
129,874.78,0.21367247748564944
130,884.91,0.21148850167157718
131,895.15,0.20923554716258408
132,905.52,0.2068645491959573
133,916.0,0.2053743145344097
134,924.48,0.2197108331441498
135,935.1800000000001,0.24053703009276053
136,946.01,0.27749450558373756
137,954.7700000000001,0.3099211335154974
138,954.992586,0.31018087578844267
139,965.82,0.3228697567368748
140,974.7599999999999,0.21056371453432965
141,986.05,0.2988848256901758
142,995.17,0.3026843261278479
143,1004.38,0.35420147788562856
144,1016.01,0.34382117625077396
145,1025.4099999999999,0.24710306968433954
146,1034.9,0.28940961443801355
147,1044.47,0.39222257147622863
148,1054.1399999999999,0.38554011887012
149,1063.8899999999999,0.33798987854855234
150,1076.21,0.36714117036786365
151,1086.17,0.32238054979321606
152,1096.22,0.371621780538677
153,1096.4782,0.37125755094755936
154,1103.82,0.36120171189018235
155,1114.03,0.35069446932795695
156,1124.3400000000001,0.32901351508539634
157,1134.74,0.3733815003305341
158,1145.24,0.3507709738953366
159,1155.8400000000001,0.3605747357798039
160,1163.8500000000001,0.36548315018495325
161,1174.62,0.29669644221285074
162,1185.49,0.3536369225604129
163,1193.71,0.2870767624368583
164,1204.75,0.24491297292785072
165,1215.9,0.20765254057047433
166,1224.33,0.2774866859182158
167,1235.6499999999999,0.34677046370426956
168,1244.22,0.3661037126995417
169,1255.7299999999998,0.3530153182929586
170,1258.92541,0.341137466678967
171,1264.44,0.3209319520324605
172,1276.14,0.3737395417872722
173,1284.98,0.38352895626868555
174,1293.89,0.32880263308196517
175,1305.8600000000001,0.32444919183111864
176,1314.9099999999999,0.37203649330813116
177,1324.03,0.35965525711701
178,1336.28,0.3312849651936291
179,1345.54,0.36856205366624073
180,1354.87,0.3588790044707188
181,1364.26,0.33199743727393943
182,1373.72,0.3408639324090265
183,1386.4299999999998,0.3412715358093391
184,1396.04,0.3089067359412827
185,1405.71,0.3140482180719689
186,1415.46,0.31938674286764535
187,1425.27,0.32295514966206434
188,1435.15,0.32018111878834976
189,1441.77,0.33034099931628597
190,1445.43977,0.3315661304642371
191,1448.43,0.33268356896354234
192,1455.1100000000001,0.3253971453988474
193,1465.2,0.3074497120503785
194,1475.36,0.3060468307004833
195,1485.58,0.3083932224922225
196,1495.8799999999999,0.31030534513947433
197,1506.25,0.2981430197852997
198,1513.2,0.2760592253579599
199,1516.69,0.28743914642969864
200,1523.69,0.28127014628705427
201,1534.25,0.2568159192147222
202,1544.8899999999999,0.26874402299790273
203,1555.6000000000001,0.2585399787796568
204,1566.3799999999999,0.2617051865599844
205,1573.61,0.27171080012693893
206,1584.52,0.2786187330474746
207,1595.5,0.2810466179665838
208,1606.56,0.2757413337412057
209,1613.9800000000002,0.2750565455900026
210,1625.1599999999999,0.2645340076478935
211,1636.43,0.274263479418236
212,1643.9799999999998,0.27571441640724104
213,1655.3799999999999,0.2609471133177916
214,1659.58691,0.2660666509741373
215,1666.85,0.2751058153936778
216,1670.69,0.25510907616669576
217,1678.4099999999999,0.2752296170957841
218,1686.1499999999999,0.28185066771639844
219,1693.9399999999998,0.2694874925658282
220,1705.68,0.26122668149166967
221,1713.5500000000002,0.251565645107204
222,1725.43,0.24964410187372843
223,1733.3899999999999,0.2594400591011303
224,1745.41,0.2542215837083377
225,1753.46,0.2639541345476072
226,1765.62,0.24859802699549752
227,1773.77,0.2516022262923977
228,1786.06,0.2536068317352079
229,1794.3100000000002,0.2634394794897388
230,1806.75,0.26093530761899497
231,1815.08,0.24657409413963038
232,1823.46,0.24918645488908114
233,1836.1,0.24173367993359873
234,1844.5800000000002,0.22795878914068013
235,1853.09,0.22811486288505076
236,1865.94,0.23122903969059275
237,1874.5500000000002,0.24234346189259404
238,1883.1999999999998,0.22866880347764762
239,1896.26,0.22113493204421403
240,1905.01,0.22943692208689828
241,1905.46072,0.2290960931313087
242,1913.8,0.22293377928551616
243,1927.07,0.21883350033726254
244,1935.9599999999998,0.22294199899212502
245,1944.8999999999999,0.22864433374740856
246,1953.88,0.2175658773830289
247,1967.42,0.23016953337704898
248,1976.5,0.23389984921351148
249,1985.62,0.22452777393031076
250,1994.79,0.21945613474753112
251,2004.0,0.22329390444508834
252,2013.25,0.21787968302298238
253,2027.2,0.22328835504045502
254,2036.56,0.21469073303927536
255,2045.96,0.21915971991843256
256,2055.4,0.2100506156779266
257,2064.89,0.21095654753784165
258,2074.42,0.22141948827809355
259,2079.2,0.21371339947834583
260,2084.0,0.21843346511876655
261,2093.62,0.20993865083977634
262,2103.2799999999997,0.21050334544112298
263,2112.99,0.21142177614289068
264,2122.74,0.21270311572499523
265,2137.46,0.202184283688952
266,2147.32,0.20436582269198283
267,2157.23,0.2086387977954347
268,2167.19,0.20342690899930765
269,2177.19,0.20195642908351744
270,2187.2400000000002,0.19885708526814827
271,2187.7616199999998,0.1991410424027746
272,2197.34,0.20450175141523969
273,2207.48,0.20016301481047113
274,2212.57,0.1935568067909177
275,2222.78,0.18950423117605705
276,2233.04,0.19640905626827349
277,2243.35,0.190697782067567
278,2253.7,0.1851871284325222
279,2264.11,0.18726505564596985
280,2274.56,0.18969930342507918
281,2285.06,0.1918666519112656
282,2295.6,0.18417072096311365
283,2306.2,0.18417067086345423
284,2316.85,0.17886372147087187
285,2327.54,0.15531829264395117
286,2332.9,0.17057064844261394
287,2343.67,0.16679406074701658
288,2354.49,0.17380757375849631
289,2365.36,0.1651249874770531
290,2376.28,0.16718060190268696
291,2387.25,0.1593946170353979
292,2392.75,0.1651195948138765
293,2403.79,0.16067177093649535
294,2414.89,0.1623986279076067
295,2426.04,0.1673595855857951
296,2437.23,0.16279166382964522
297,2442.85,0.1679647033051088
298,2454.13,0.1657462028216976
299,2465.46,0.16435090304536354
300,2476.83,0.1600952238346911
301,2482.54,0.16174708458289344
302,2494.0,0.15310302664495973
303,2505.52,0.16480624955551854
304,2511.29,0.15357629115221338
305,2511.88643,0.15384004937950277
306,2517.08,0.15617913974053538
307,2522.88,0.15211311310654718
308,2534.5299999999997,0.15283856822965708
309,2546.23,0.15089883174385327
310,2552.1,0.1569702368573859
311,2563.88,0.15395579379732016
312,2575.71,0.15853635912834077
313,2587.6,0.15700159452866494
314,2593.56,0.15534845474615291
315,2605.54,0.15160144525043243
316,2617.56,0.14989128246758102
317,2623.6,0.15346113611080708
318,2635.71,0.156004628431911
319,2647.87,0.16319592914410125
320,2653.98,0.16528831453484816
321,2666.23,0.15485637035099373
322,2672.37,0.15864384077639243
323,2684.71,0.15839005169649337
324,2697.1,0.15294407100768062
325,2703.32,0.1551202348588174
326,2715.7999999999997,0.14979900927396
327,2722.06,0.14892871983796585
328,2734.62,0.15267268767884656
329,2747.2400000000002,0.14036377558903082
330,2753.58,0.14206342957877474
331,2766.29,0.14485192259291438
332,2772.6600000000003,0.14836341161731006
333,2785.46,0.14279215973540507
334,2791.88,0.1264658671508871
335,2804.77,0.13107274037293742
336,2817.71,0.14546727198607406
337,2824.2099999999996,0.14929206282729418
338,2837.25,0.14505309122260346
339,2843.79,0.14227852877669261
340,2856.91,0.13827482059773996
341,2863.5,0.1462214965429154
342,2876.72,0.1461945351461354
343,2883.35,0.14531542780417991
344,2884.0315,0.14528857197859313
345,2896.66,0.14487933282233184
346,2910.03,0.15180609910328535
347,2930.2,0.1471524129317694
348,2950.51,0.14462467038623203
349,2970.9600000000005,0.14558407146667324
350,2991.55,0.14480561617309298
351,3012.2900000000004,0.14476723619306126
352,3033.17,0.14422539983900806
353,3047.17,0.14353426243686512
354,3068.29,0.14349078658448947
355,3089.56,0.14294798604566228
356,3110.98,0.14265056082038358
357,3132.54,0.14013087922108347
358,3147.0,0.1399335994471558
359,3168.82,0.139629441724673
360,3190.7799999999997,0.13431112762816882
361,3212.9,0.13659742053278295
362,3227.7299999999996,0.13171665319894155
363,3250.1000000000004,0.1367966982928031
364,3272.63,0.1391687903877831
365,3287.7400000000002,0.1379740703058988
366,3310.5299999999997,0.13643688627769612
367,3311.31121,0.13646323772860067
368,3325.81,0.1370234850012652
369,3333.4700000000003,0.13843266355549874
370,3341.1600000000003,0.13328208445393944
371,3348.86,0.14029078613378254
372,3356.58,0.13577424937643046
373,3364.32,0.1264477041818831
374,3372.0699999999997,0.12659769976873822
375,3379.85,0.13531782769980044
376,3387.64,0.1357326564122651
377,3395.45,0.13326334668753453
378,3403.27,0.13706351774420636
379,3411.1200000000003,0.13076953114508535
380,3418.98,0.13233712532736677
381,3426.86,0.13393328107245295
382,3434.77,0.13776647916174634
383,3442.6800000000003,0.1302489772510397
384,3450.62,0.13228271768454025
385,3458.57,0.1308037388994432
386,3466.5499999999997,0.12933530245855332
387,3474.54,0.13301814679906585
388,3482.5499999999997,0.12919085270238315
389,3490.58,0.13310962016850525
390,3498.62,0.12676143841602974
391,3506.69,0.1320121590077614
392,3514.77,0.12729575038089547
393,3522.8700000000003,0.1321019633168343
394,3530.99,0.12669291781557795
395,3539.14,0.13219009465852877
396,3547.29,0.13453333150147959
397,3555.47,0.13276311068863758
398,3563.67,0.13125165143860038
399,3571.88,0.12540955296996556
400,3580.12,0.12399568684553791
401,3588.3700000000003,0.11627846150251266
402,3596.64,0.12473368772229221
403,3604.9300000000003,0.12899535550487654
404,3613.24,0.12281113485026565
405,3617.0299999999997,0.12955490100177286
406,3619.77,0.13482273510602868
407,3622.5099999999998,0.13164056921028455
408,3625.2400000000002,0.11714251253313801
409,3627.98,0.12553082663739387
410,3630.7200000000003,0.15328769074164975
411,3633.45,0.1267347340645032
412,3636.19,0.12910137816875905
413,3638.9300000000003,0.11012095227301491
414,3641.66,0.11487608559586839
415,3644.3999999999996,0.11986133970012425
416,3647.14,0.1244832038043801
417,3649.87,0.14326598712723357
418,3652.61,0.14799162123148943
419,3655.35,0.13030895533574527
420,3658.0800000000004,0.12499336865859872
421,3660.82,0.1366347427628546
422,3663.56,0.13182037686711046
423,3666.29,0.13231303018996393
424,3669.0299999999997,0.13379716429421978
425,3671.77,0.13177439839847563
426,3674.5,0.1216425817213291
427,3677.24,0.12727958582558496
428,3679.98,0.1329339199298408
429,3682.71,0.12933137325269428
430,3685.4500000000003,0.11333874735695013
431,3688.19,0.123630471461206
432,3690.9199999999996,0.11453110478405945
433,3693.6600000000003,0.11784366888831531
434,3696.4,0.12513030299257116
435,3699.13,0.11629050631542463
436,3701.87,0.1201625404196805
437,3704.6099999999997,0.12953138452393637
438,3707.34,0.12812063784678981
439,3710.08,0.13335967195104567
440,3712.82,0.12986610605530152
441,3715.55,0.126182849378155
442,3718.2900000000004,0.13502109348241084
443,3721.03,0.1599286275866667
444,3723.7599999999998,0.24064748090952018
445,3726.5,0.3037500150137761
446,3729.24,0.3137587491180319
447,3731.9799999999996,0.25328378322228773
448,3734.71,0.1815627365451412
449,3737.45,0.14861237064939709
450,3740.19,0.14176760475365294
451,3742.92,0.1205441480765064
452,3745.6600000000003,0.12288193218076225
453,3748.4,0.12103220628501811
454,3751.1299999999997,0.13133037960787158
455,3753.8700000000003,0.12357425371212744
456,3756.61,0.14194094781638328
457,3759.3399999999997,0.12562603113923676
458,3762.08,0.12112307524349261
459,3764.8199999999997,0.1256122793477485
460,3767.55,0.14005182267060193
461,3770.29,0.1309402567748578
462,3773.03,0.12785039087911365
463,3775.76,0.14626404420196712
464,3778.5,0.15041287830622296
465,3781.2400000000002,0.13219381241047884
466,3783.97,0.1256900657333323
467,3786.7099999999996,0.14242449983758815
468,3789.45,0.150034133941844
469,3792.18,0.14230178726469747
470,3794.92,0.13865252136895334
471,3797.66,0.1310463554732092
472,3800.3900000000003,0.14230200879606264
473,3801.8939600000003,0.14191670637687892
474,3803.13,0.14160431674899454
475,3805.87,0.1577887249361056
476,3808.6,0.13654591776486952
477,3811.3399999999997,0.15409162595198056
478,3814.0800000000004,0.1433572341390916
479,3816.81,0.14664532696785554
480,3819.5499999999997,0.16040713515496657
481,3822.29,0.1266184433420776
482,3825.02,0.13521873617084154
483,3827.76,0.11539417435795259
484,3830.5,0.12416687254506364
485,3833.2300000000005,0.11306393537382756
486,3835.9700000000003,0.1145864035609386
487,3838.71,0.11009292174804966
488,3841.44,0.12596075457681358
489,3844.18,0.14263546276392464
490,3846.9199999999996,0.15263667095103567
491,3849.65,0.14590596377979959
492,3852.39,0.13585787196691065
493,3855.13,0.15065798015402168
494,3857.86,0.1467823729827856
495,3860.6000000000004,0.15438418116989666
496,3863.34,0.1418270893570077
497,3866.0699999999997,0.15976568218577164
498,3868.81,0.14618769037288268
499,3871.55,0.15516219855999372
500,3874.2799999999997,0.15711799138875765
501,3877.02,0.13902939957586868
502,3879.7599999999998,0.14346470776297973
503,3882.4900000000002,0.12987000059174364
504,3885.23,0.1192337087788547
505,3887.9700000000003,0.13988251696596574
506,3890.7000000000003,0.14198820979472968
507,3893.44,0.1398537179818407
508,3896.1800000000003,0.14021102616895176
509,3898.91,0.1368544189977157
510,3901.6499999999996,0.15434822718482671
511,3904.39,0.1510255353719378
512,3907.12,0.1368253282007017
513,3909.86,0.14042423638781276
514,3912.6,0.1527729445749238
515,3915.34,0.14474375276203483
516,3918.07,0.14862014559079875
517,3920.81,0.1565160537779098
518,3923.55,0.14375136196502086
519,3926.2799999999997,0.13341565479378478
520,3929.0199999999995,0.13120046298089583
521,3931.76,0.11948560116800686
522,3934.49,0.1138852439967708
523,3937.23,0.12561687218388184
524,3939.97,0.13490868037099288
525,3942.7000000000003,0.1392580731997568
526,3945.44,0.14171488138686786
527,3948.18,0.1394419895739789
528,3950.9100000000003,0.13736588240274283
529,3953.65,0.14052639058985386
530,3956.3900000000003,0.14432709877696492
531,3959.12,0.14302969160572884
532,3961.8599999999997,0.1315396997928399
533,3964.6,0.12366046797995094
534,3967.33,0.12032693080871486
535,3970.07,0.1260484089958259
536,3972.81,0.12948581718293695
537,3975.54,0.12791721001170087
538,3978.28,0.13230631819881192
539,3981.02,0.14903872638592297
540,3983.75,0.1551819192146869
541,3986.49,0.15163432740179794
542,3989.2300000000005,0.157430735588909
543,3991.96,0.16444492841767291
544,3994.7,0.17073153660478396
545,3997.44,0.167426244791895
546,4000.17,0.15699823762065893
547,4002.91,0.16549984580776997
548,4005.65,0.16419015399488102
549,4008.38,0.15687684682364494
550,4011.1200000000003,0.16146775501075597
551,4013.86,0.16316316319786703
552,4016.5899999999997,0.16799715602663096
553,4019.33,0.171959364213742
554,4022.0699999999997,0.16566617240085302
555,4024.8,0.16429386522961695
556,4027.54,0.167189073416728
557,4030.28,0.15993268160383906
558,4033.01,0.15802967443260296
559,4035.75,0.16271868261971403
560,4038.4900000000002,0.1679208908068251
561,4041.22,0.159067583635589
562,4043.9599999999996,0.15815019182270004
563,4046.7,0.1694030000098111
564,4049.43,0.16380859283857502
565,4052.17,0.16499070102568605
566,4054.91,0.16496150921279712
567,4057.6400000000003,0.15568710204156103
568,4060.38,0.15800551022867207
569,4063.12,0.16281551841578312
570,4065.85,0.16499621124454705
571,4068.59,0.1616043194316581
572,4071.3300000000004,0.15856432761876912
573,4074.06,0.15455022044753305
574,4076.7999999999997,0.1507950286346441
575,4079.54,0.15233473682175513
576,4082.27,0.15343102965051908
577,4085.01,0.1624747378376301
578,4087.75,0.16550834602474115
579,4090.48,0.15904293885350507
580,4093.2200000000003,0.15401874704061613
581,4095.96,0.15167665522772716
582,4098.69,0.16153444805649111
583,4101.429999999999,0.16228965624360217
584,4104.17,0.1604666644307132
585,4106.9,0.15162485725947714
586,4109.64,0.14875786544658817
587,4112.38,0.15457737363369922
588,4115.12,0.15329658182081027
589,4117.85,0.15658467464957418
