,lambda (Angstroms),Total Flux (erg/s/cm^2/Angstrom)
0,102.07000000000001,2.4721346459609745
1,103.97,2.4650884168458678
2,104.712855,2.462333508199569
3,105.9,2.4392074159649013
4,108.12,2.395960866742286
5,109.88,2.361675315368548
6,114.0,2.2814159548462496
7,118.01,2.2032994418643486
8,120.22644299999999,2.1601221960771597
9,121.04,2.146834948723023
10,125.0,2.0821590762060658
11,127.03,2.04900452620829
12,127.91,2.034632111379029
13,130.89,1.9859618872369387
14,132.1,1.9661998199496489
15,133.94,1.936148408956176
16,137.06,1.8851916747097905
17,138.038426,1.869211741077255
18,139.93,1.8471294131108076
19,142.86,1.8129244975591297
20,146.85999999999999,1.766228371114438
21,150.98,1.718131333451574
22,154.85,1.672952826541885
23,158.489319,1.6304673126449702
24,158.82,1.6275487972601215
25,162.15,1.5981589778735605
26,165.92,1.5648858576284923
27,170.17999999999998,1.5272881170012549
28,172.95000000000002,1.50284079667253
29,176.97,1.467361299879251
30,179.85000000000002,1.4419431829443492
31,181.93,1.4235856543596428
32,181.970086,1.4232318661692538
33,186.17000000000002,1.3949531225921765
34,190.95000000000002,1.3627686471166947
35,194.04999999999998,1.3418958864421817
36,198.10999999999999,1.314559347480258
37,201.8,1.2897141512783983
38,205.07000000000002,1.267696838971531
39,208.929613,1.241709620350624
40,209.85,1.237050602405649
41,216.23,1.2047551798332468
42,220.25,1.18440608079431
43,222.8,1.1714981575322607
44,226.94,1.150541732512639
45,230.1,1.134552495700609
46,233.83999999999997,1.11562956465027
47,239.83,1.085314658334593
48,239.88329199999998,1.0850449053167899
49,245.98999999999998,1.061225203641851
50,251.72,1.0388769950199608
51,256.99,1.0183160978576642
52,259.96,1.0067365855333337
53,264.19,0.9902392122183785
54,269.1,0.971088399680546
55,274.1,0.9515864404640976
56,275.42287,0.9464267224995891
57,279.2,0.9351208089455152
58,283.72999999999996,0.9215618255244303
59,289.67,0.9037801278155241
60,295.74,0.8856123509306488
61,301.24,0.8691476372042541
62,308.26,0.8481362083319108
63,316.227766,0.8242878449900802
64,318.35,0.8195438417284808
65,328.03,0.7979044357691856
66,337.99999999999994,0.7756160134512337
67,348.27,0.752656679431568
68,357.20000000000005,0.7326933232115568
69,363.078055,0.7195527850967756
70,366.36,0.7140586977789756
71,374.90000000000003,0.6997620622378261
72,385.4,0.6821811818528065
73,395.29,0.6656264956992974
74,405.43,0.6486511030509069
75,413.90999999999997,0.6344542945325291
76,416.86938299999997,0.6294997845174313
77,421.60999999999996,0.6234393639710291
78,430.44,0.612150379977059
79,441.48,0.598037748325142
80,450.72,0.5862256030806028
81,460.16,0.5741571690796883
82,469.8,0.5618340644223982
83,478.630092,0.5505466571450708
84,479.64,0.5495539173960075
85,489.67999999999995,0.5396839522501042
86,499.93,0.5296098461093165
87,505.71999999999997,0.5239920838217887
88,511.58000000000004,0.5185458037692993
89,519.89,0.5103843993431583
90,529.5500000000001,0.5009022108784744
91,539.4,0.49119844992318107
92,549.43,0.4814703486294151
93,549.5408739999999,0.4813626270255643
94,559.64,0.4739062013448357
95,570.05,0.4661822466820727
96,580.65,0.45821042556994124
97,590.0799999999999,0.4512755801933942
98,599.67,0.4440996984068526
99,609.41,0.4369403834234412
100,619.31,0.4296881564300355
101,629.38,0.4222249076135106
102,630.957344,0.42105109373663163
103,639.6,0.4159634323467245
104,650.0,0.40992598765255456
105,657.5200000000001,0.4055326742275392
106,665.14,0.401122151911234
107,674.39,0.3957139039669001
108,685.35,0.38919513808150547
109,694.88,0.38391103204155935
110,704.5500000000001,0.3780897849538071
111,716.0,0.3717119244010911
112,724.43596,0.3667977320990472
113,725.9599999999999,0.3661435377163112
114,734.36,0.362576088230528
115,744.5799999999999,0.3583297468561585
116,754.94,0.3539407784903593
117,765.44,0.34949209913313034
118,774.3,0.34585785167550664
119,785.0699999999999,0.3414014383348062
120,794.17,0.33758173589187446
121,805.2099999999999,0.33290458656770233
122,814.54,0.3289798831388503
123,825.8699999999999,0.3243560598324309
124,831.763771,0.3214869613733673
125,835.4300000000001,0.32011098216039235
126,845.11,0.31773214161374846
127,854.89,0.3147530750697219
128,864.79,0.3118581223288361
129,874.8000000000001,0.30893579649082925
130,884.9300000000001,0.30601316445596327
131,895.18,0.30297616522423804
132,905.55,0.29975896679565367
133,916.0300000000001,0.2996531362699482
134,924.5100000000001,0.3503317316918966
135,935.21,0.41783631497194923
136,946.04,0.5398477069554045
137,954.8,0.6152765195846812
138,954.992586,0.6165082192911742
139,965.85,0.6860251062854021
140,974.79,0.3869030457741948
141,986.08,0.6920574137639565
142,995.1999999999999,0.6765487345847383
143,1004.4100000000001,0.7515313960715145
144,1016.04,0.7149670843550334
145,1025.44,0.4623810983589094
146,1034.93,0.6370056530287799
147,1044.51,0.823231148364645
148,1054.17,0.809607913181394
149,1063.92,0.7414697186641377
150,1073.77,0.7929362359979863
151,1086.2,0.7285361190903458
152,1096.25,0.8025671601264046
153,1096.4782,0.8017580410153632
154,1103.85,0.7760515716953507
155,1114.0700000000002,0.7720767155075378
156,1124.37,0.7224219105433038
157,1134.78,0.7858163260114905
158,1145.28,0.7477134491062033
159,1155.8799999999999,0.7622955362303897
160,1163.89,0.7690723149912135
161,1174.66,0.6416629609655047
162,1185.53,0.7481778709692694
163,1193.74,0.67613347778904
164,1204.79,0.585835303045857
165,1215.9399999999998,0.41029389233214725
166,1224.3700000000001,0.6177283400167595
167,1235.69,0.7165376881531548
168,1244.26,0.7389307254790299
169,1255.77,0.7271251452714247
170,1258.92541,0.7183625706026961
171,1264.48,0.7033590771284497
172,1276.18,0.7458498228187733
173,1285.02,0.7480860573403514
174,1293.93,0.6883754998275977
175,1305.9,0.6919901619569289
176,1314.96,0.7385356357991797
177,1324.07,0.717745086759765
178,1336.32,0.6910108807517705
179,1345.5800000000002,0.71745846306736
180,1354.91,0.7131909533486182
181,1364.3,0.6857379361718781
182,1373.76,0.6863508269608065
183,1386.47,0.6875703304414913
184,1396.0800000000002,0.6233959525854239
185,1405.76,0.635599382695025
186,1415.5,0.6619728053466278
187,1425.32,0.6532020513875663
188,1435.2,0.6570923899705062
189,1441.82,0.6663751004380227
190,1445.43977,0.6637715684529641
191,1448.48,0.6617578981095826
192,1455.16,0.653889173146424
193,1465.2499999999998,0.6343618775059646
194,1475.4,0.6330315891263151
195,1485.63,0.6294609770944122
196,1495.93,0.6258807568667875
197,1506.3,0.6071461284434412
198,1513.2499999999998,0.5773219861539274
199,1516.74,0.5900567918243731
200,1523.74,0.5891359722522009
201,1534.3000000000002,0.5502717501547527
202,1544.9399999999998,0.5555308044050512
203,1555.65,0.5399749504596278
204,1566.43,0.5527019883184828
205,1573.66,0.5693747132460822
206,1584.57,0.5709452501700254
207,1595.55,0.5745705788982469
208,1606.61,0.562050483974215
209,1614.03,0.5581049152277126
210,1625.22,0.550758119368769
211,1636.4799999999998,0.5611119153141035
212,1644.04,0.5581122301761576
213,1655.43,0.5467862251865805
214,1659.58691,0.5516106870997404
215,1666.91,0.5603984069777228
216,1670.75,0.540369618084215
217,1678.46,0.5633809763214689
218,1686.21,0.5636902492577488
219,1693.99,0.5489420582182981
220,1705.73,0.5381168223824175
221,1713.6100000000001,0.5259922180905319
222,1725.48,0.5220920050264857
223,1733.45,0.5336415088074083
224,1745.46,0.5249277971899531
225,1753.52,0.5337132090436841
226,1765.68,0.5137559775475762
227,1773.8300000000002,0.5157784974741156
228,1786.12,0.5174318887498421
229,1794.3700000000001,0.5261090954239465
230,1806.8000000000002,0.5249689881462637
231,1815.14,0.5046341028931766
232,1823.5199999999998,0.5084302323391153
233,1836.16,0.49997377723131886
234,1844.6399999999999,0.47554229342482257
235,1853.15,0.47476184564259566
236,1865.9999999999998,0.4812964427046856
237,1874.61,0.4919469816700236
238,1883.26,0.4677759353343876
239,1896.32,0.45258288456636375
240,1905.0700000000002,0.46913542497829264
241,1905.46072,0.4686174367222009
242,1913.86,0.45768903890922924
243,1927.1299999999999,0.4486690980176043
244,1936.03,0.45536710322216634
245,1944.96,0.4681283829386539
246,1953.94,0.4460523868416839
247,1967.48,0.4640710165573884
248,1976.56,0.47199356883350335
249,1985.69,0.4553018452961608
250,1994.85,0.44732009627074376
251,2004.06,0.45159747143186924
252,2013.3100000000002,0.4493342459422286
253,2027.27,0.45415671882488995
254,2036.6200000000001,0.44127614170833435
255,2046.02,0.44467298877832123
256,2055.4700000000003,0.43126896003485055
257,2064.96,0.4345741306406139
258,2074.49,0.45096960059561125
259,2079.27,0.43758897282907266
260,2084.06,0.4429224698998426
261,2093.68,0.4294854633906164
262,2103.35,0.4335686810679326
263,2113.06,0.4345010980944829
264,2122.81,0.43626131447026717
265,2132.61,0.42527895503259383
266,2147.3900000000003,0.42351306457455196
267,2157.3,0.42833987834727216
268,2167.26,0.4213892163065348
269,2177.26,0.4183838536150315
270,2187.31,0.41693521511007064
271,2187.7616199999998,0.41718309572051765
272,2197.41,0.42268950435803787
273,2202.48,0.4162299167125871
274,2212.64,0.40740152786095385
275,2222.85,0.40245185510749176
276,2233.11,0.41100829845220077
277,2243.42,0.40449335789508084
278,2253.7799999999997,0.39589403343613205
279,2264.1800000000003,0.39615338185572013
280,2274.63,0.3986089463734792
281,2285.13,0.4018530269894095
282,2295.68,0.38898762370351087
283,2306.27,0.3929020932961491
284,2316.92,0.38598952220659266
285,2327.61,0.3499841239955731
286,2332.98,0.37346833293914883
287,2343.75,0.364244280485203
288,2354.57,0.3767437441294283
289,2365.44,0.3627027238718247
290,2376.35,0.3669584764927579
291,2387.32,0.35201858843149647
292,2392.83,0.35960830244995134
293,2403.87,0.35392571692612945
294,2414.97,0.35477229072011285
295,2426.11,0.36426893739263316
296,2437.31,0.3571497433829588
297,2442.9300000000003,0.36292663281739
298,2454.21,0.36112648456478935
299,2465.5299999999997,0.3573382091907256
300,2476.91,0.3503226931344672
301,2482.62,0.3494508715456064
302,2494.08,0.33634670124642174
303,2505.6,0.3557141902650423
304,2511.37,0.3356416279939869
305,2511.88643,0.3356757555586139
306,2517.16,0.3360856577375434
307,2522.96,0.33161316046425837
308,2534.61,0.3331090642170565
309,2546.31,0.3309269662692229
310,2552.18,0.34196558661505333
311,2563.96,0.3365805659462089
312,2575.79,0.34318984357673266
313,2587.68,0.3409398791664983
314,2593.65,0.33759719611106526
315,2605.6200000000003,0.33103500897982
316,2617.65,0.32642287980781676
317,2623.68,0.3336083547116256
318,2635.79,0.3401833028186114
319,2647.9599999999996,0.3548884088848392
320,2654.06,0.36083800140776356
321,2666.31,0.34379638475298047
322,2672.46,0.34951217557527303
323,2684.7900000000004,0.3518166361994791
324,2697.19,0.33776211444280074
325,2703.4,0.3433779632243352
326,2715.88,0.33092271874664597
327,2722.1400000000003,0.32764306582754865
328,2734.71,0.3347634582887223
329,2747.33,0.3113596490492641
330,2753.66,0.3170445137492824
331,2766.3700000000003,0.32451414144868695
332,2772.75,0.3305128044480734
333,2785.55,0.31670266908634087
334,2791.97,0.28108927072522194
335,2804.86,0.29014037230235223
336,2817.81,0.3254734318387244
337,2824.3,0.332801451096721
338,2837.3399999999997,0.326763147571956
339,2843.8799999999997,0.31920066512932077
340,2857.0099999999998,0.30639269854341855
341,2863.5899999999997,0.326615354740278
342,2876.8100000000004,0.33063482509323855
343,2883.44,0.32791807958946617
344,2884.0315,0.3279853758150945
345,2896.75,0.32955954420332695
346,2910.12,0.3442601803586372
347,2930.29,0.33532457042988684
348,2950.6,0.3291700954346999
349,2971.06,0.3313276150111881
350,2991.65,0.3302959098831281
351,3012.39,0.3299057993267433
352,3033.27,0.3301491237039219
353,3047.2700000000004,0.3311683170602676
354,3068.39,0.33077237275212645
355,3089.6600000000003,0.3290760230156604
356,3111.08,0.3306125678508695
357,3132.64,0.32506334761964206
358,3147.1,0.32351818432912494
359,3168.92,0.326290514688801
360,3190.8799999999997,0.31518597998204056
361,3212.9999999999995,0.3216286994850669
362,3227.83,0.3107918428046818
363,3250.21,0.32668161289861175
364,3272.7400000000002,0.3354468775642168
365,3287.84,0.33316673111284695
366,3310.63,0.32944284636935556
367,3311.31121,0.3289652943999659
368,3318.26,0.32414266780987305
369,3325.9100000000003,0.32469732466901646
370,3333.58,0.33312784102321646
371,3341.27,0.31437001687247307
372,3348.97,0.33495272246925795
373,3356.69,0.3236830875610994
374,3364.43,0.29313801214799745
375,3372.1800000000003,0.2959380664824238
376,3379.96,0.32147831005943506
377,3387.75,0.3233127833839745
378,3395.5600000000004,0.3187330162035706
379,3403.39,0.3303134085182233
380,3411.23,0.30980793058040423
381,3419.09,0.3197267121376418
382,3426.98,0.3267364829374642
383,3434.88,0.33731238348481496
384,3442.79,0.319445513779694
385,3450.73,0.3245002333171578
386,3458.6899999999996,0.31861081234967836
387,3466.66,0.3178771211297271
388,3474.65,0.32946688940483243
389,3482.6600000000003,0.32024391717499434
390,3490.69,0.33395650444021285
391,3498.73,0.3137054214529597
392,3506.7999999999997,0.3284188277082914
393,3514.88,0.3160311637111514
394,3522.99,0.3308903889565963
395,3531.11,0.32094484394956935
396,3539.25,0.3333745584375991
397,3547.41,0.3428726324206854
398,3555.58,0.34070633615129997
399,3563.7799999999997,0.3330920291244995
400,3572.0,0.3147032815927556
401,3580.23,0.3127206638085399
402,3588.48,0.28919070551938086
403,3596.7599999999998,0.3175921364728067
404,3605.05,0.3312649971737608
405,3613.36,0.31293721736977154
406,3621.69,0.3103282970608388
407,3630.04,0.35040643624696266
408,3638.4,0.3308686051806148
409,3646.79,0.33009056335685183
410,3648.0099999999998,0.32098289255530343
411,3650.7400000000002,0.2064072136305272
412,3653.47,0.26903013470575093
413,3656.2,0.32974765578097465
414,3658.9300000000003,0.3990026768561984
415,3661.66,0.4447827979314221
416,3664.3900000000003,0.4203209190066458
417,3667.12,0.34686914008186953
418,3669.85,0.3509021611570933
419,3672.59,0.30753151197984535
420,3675.32,0.37131443305506906
421,3678.0499999999997,0.28785995413029275
422,3680.78,0.2738286752055165
423,3683.5099999999998,0.3330925962807402
424,3686.2400000000002,0.33137291735596397
425,3688.97,0.3519679384311877
426,3691.7,0.31476705950641143
427,3694.4300000000003,0.29625328058163514
428,3697.16,0.32780410165685886
429,3699.8900000000003,0.2225354227320826
430,3702.62,0.19716964380730637
431,3705.35,0.3044463648825301
432,3708.0800000000004,0.3483698859577538
433,3710.81,0.3017886070329775
434,3713.54,0.30758042810820124
435,3716.27,0.348987949183425
436,3719.0,0.23289757025864874
437,3721.7299999999996,0.3088702913338725
438,3724.46,0.4890519124090962
439,3727.2,0.7977804632318481
440,3729.9300000000003,0.9309747843070719
441,3732.66,0.9022872053822957
442,3735.39,0.5845958264575195
443,3738.12,0.3961633475327431
444,3740.85,0.3608678686079669
445,3743.5800000000004,0.30766688968319056
446,3746.31,0.3408909107584143
447,3749.04,0.2761967318336381
448,3751.77,0.2688097529088618
449,3754.5,0.4247586739840855
450,3757.2299999999996,0.3132730950593092
451,3759.96,0.32674741613453295
452,3762.69,0.3242093372097567
453,3765.42,0.4016233582849804
454,3768.15,0.3363059793602041
455,3770.8799999999997,0.2938164004354279
456,3773.61,0.32098252151065165
457,3776.34,0.3327102425858754
458,3779.0800000000004,0.34218889340862735
459,3781.81,0.4459966144838511
460,3784.54,0.4940971355590748
461,3787.27,0.38699655663429855
462,3790.0,0.3981746777095223
463,3792.7300000000005,0.382372498784746
464,3795.46,0.36145271985996974
465,3798.19,0.31799834093519347
466,3800.92,0.3055792620104172
467,3801.8939600000003,0.3171142738149714
468,3803.65,0.33792045411060984
469,3806.3799999999997,0.4159340554585865
470,3809.11,0.3808351568065632
471,3811.84,0.41857965815453985
472,3814.5699999999997,0.39866265950251656
473,3817.3,0.4471065608504933
474,3820.0299999999997,0.3271823621984699
475,3822.76,0.3463618635464466
476,3825.49,0.2975833648944233
477,3828.22,0.4078783662423999
478,3830.9500000000003,0.3030137675903766
479,3833.69,0.36559954806417005
480,3836.4199999999996,0.29543494941214676
481,3839.15,0.33945725076012345
482,3841.8799999999997,0.2979217521081001
483,3844.61,0.34994415345607677
484,3847.34,0.39796045480405345
485,3850.0699999999997,0.3347209561520301
486,3852.8,0.3531675575000068
487,3855.5299999999997,0.4384239588479835
488,3858.26,0.4673011601959602
489,3860.9900000000002,0.4050509615439369
490,3863.72,0.37364066289191356
491,3866.4500000000003,0.4617796642398902
492,3869.18,0.4198898655878669
493,3871.91,0.48588506693584355
494,3874.64,0.4582488682838203
495,3877.37,0.4106795696317969
496,3880.1000000000004,0.4287842709797736
497,3882.83,0.41658637232775025
498,3885.56,0.39971057367572693
499,3888.3,0.2793817541495204
500,3891.0299999999997,0.3030924554974971
501,3893.76,0.4257229568454738
502,3896.4900000000002,0.42956185819345044
503,3899.22,0.3337847595414271
504,3901.9500000000003,0.4092699608894038
505,3904.68,0.41088596223738044
506,3907.41,0.40556446358535714
507,3910.14,0.35654186493333384
508,3912.87,0.4065001662813105
509,3915.6000000000004,0.4289285676292872
510,3918.33,0.36640956897726384
511,3921.06,0.4349574703252405
512,3923.79,0.4080662716732172
513,3926.52,0.4188548730211939
514,3929.2500000000005,0.4135333743691706
515,3931.98,0.33291337571714724
516,3934.71,0.3124099770651239
517,3937.44,0.3032654784131006
518,3940.18,0.33819925888689406
519,3942.91,0.36386426023487073
520,3945.6400000000003,0.3985551615828474
521,3948.37,0.3759877629308241
522,3951.1000000000004,0.3781532642788008
523,3953.83,0.41512826562677746
524,3956.56,0.42338866697475414
525,3959.29,0.3920150683227308
526,3962.02,0.40897156967070747
527,3964.75,0.36015657101868415
528,3967.48,0.28427567236666085
529,3970.21,0.2847679737146375
530,3972.9399999999996,0.2973885750626142
531,3975.67,0.30281517641059086
532,3978.4,0.30857167775856753
533,3981.13,0.3517269791065442
534,3983.86,0.43384448045452095
535,3986.5899999999997,0.4308924818024976
536,3989.32,0.4423528831504743
537,3992.0499999999997,0.449098684498451
538,3994.7899999999995,0.4271641649722444
539,3997.52,0.45065516632022107
540,4000.25,0.39525696766819773
541,4002.98,0.4426503690161744
542,4005.71,0.4398570703641511
543,4008.4399999999996,0.4428043717121278
544,4011.17,0.45846627306010446
545,4013.9,0.45277837440808116
546,4016.63,0.4898511757560578
547,4019.36,0.5213665771040346
548,4022.0899999999997,0.48808767845201123
549,4024.82,0.4425825797999879
550,4027.5499999999997,0.4611269811479645
551,4030.28,0.4732713824959412
552,4033.01,0.4625390838439179
553,4035.74,0.47539178519189457
554,4038.4700000000003,0.46635728653987124
555,4041.2,0.47638868788784794
556,4043.93,0.44021488923582464
557,4046.6600000000003,0.4554737905838013
558,4049.4,0.43730117105759475
559,4052.13,0.5171466724055713
560,4054.86,0.5075136737535481
561,4057.5899999999997,0.4573064751015247
562,4060.32,0.4673132764495015
563,4063.05,0.5184563777974781
564,4065.7799999999997,0.4392167791454548
565,4068.51,0.4483686804934315
566,4071.24,0.46850078184140814
567,4073.9700000000003,0.49900258318938484
568,4076.7,0.4665052845373615
569,4079.43,0.4772327858853382
570,4082.1600000000003,0.4588057872333149
571,4084.89,0.42519698858129157
572,4087.6200000000003,0.44100548992926825
573,4090.35,0.5120939912772449
574,4093.08,0.4894897926252216
575,4095.81,0.44841829397319827
576,4098.54,0.45594579532117496
577,4101.27,0.4693481966691516
578,4104.01,0.47662917714294506
579,4106.74,0.4160400784909217
580,4109.47,0.4169720798388984
581,4112.2,0.4274552811868751
582,4114.93,0.45219208253485177
583,4117.66,0.43841858388282845
584,4120.39,0.39643108523080517
585,4123.12,0.4427375865787818
586,4125.849999999999,0.4291472879267585
587,4128.58,0.42896788927473517
588,4131.31,0.4325746906227118
589,4134.04,0.44641669197068856
590,4136.77,0.4466402933186652
591,4139.5,0.44792649466664186
592,4142.2300000000005,0.46546929601461856
593,4144.96,0.4538088973625952
