,lambda (Angstroms),Total Flux (erg/s/cm^2/Angstrom)
0,100.05,22.23041408985924
1,101.91000000000001,22.16859074519721
2,104.04,22.097786139869577
3,104.712855,22.07542144019251
4,105.97,21.85587785357055
5,107.95,21.510102947975074
6,109.94999999999999,21.160866784937227
7,114.08,20.439639991836064
8,118.09,19.73937217788917
9,120.22644299999999,19.366765451794326
10,121.11999999999999,19.23614392851257
11,125.08,18.656506841668428
12,127.11999999999999,18.357885077233572
13,128.0,18.22909282504598
14,130.98,17.792867094410752
15,131.89,17.65985255421677
16,134.03,17.34658633776059
17,137.15,16.89013884009551
18,138.038426,16.760100363069782
19,140.02,16.552812911011838
20,142.96,16.24835509499885
21,146.96,15.836130236675048
22,151.08,15.405612699391533
23,154.95,15.001392268690758
24,158.489319,14.631794426844849
25,158.93,14.597028629932536
26,161.88000000000002,14.364289342536471
27,166.04000000000002,14.036208567767789
28,169.9,13.731630037141079
29,173.05999999999997,13.482356072845638
30,177.09,13.164364598538473
31,179.97,12.937140406775539
32,181.970086,12.779356408777293
33,182.06,12.773950023047288
34,185.87,12.544847461580675
35,191.07,12.232079233752229
36,194.18,12.045213689877905
37,197.79000000000002,11.828149934866232
38,201.92999999999998,11.57923758224897
39,205.21,11.381986728387947
40,208.929613,11.157497985420871
41,209.99,11.109387149744085
42,215.88,10.844527248987983
43,219.89000000000001,10.663585923193079
44,222.95,10.52511407171368
45,227.09,10.338396572065076
46,230.25,10.210197182236673
47,233.99,10.07074253598407
48,239.88329199999998,9.821490425494574
49,240.0,9.817769341978765
50,246.15,9.596788335660708
51,251.89,9.400432939097188
52,257.15999999999997,9.199603013227893
53,260.14,9.10793080989004
54,263.76,8.985523119862174
55,269.28000000000003,8.79140809341084
56,274.28999999999996,8.614928704946864
57,275.42287,8.574993327612482
58,278.74,8.48503673985656
59,283.92,8.345181445307041
60,289.87,8.180514440892054
61,295.94,8.017598549614915
62,300.75,7.8856518553903605
63,307.75,7.6977725084315525
64,316.227766,7.47022439057143
65,317.84,7.437903240769406
66,328.25,7.227196117011262
67,338.21999999999997,7.0246482081766155
68,347.70000000000005,6.83184523573404
69,356.62,6.651355387739551
70,363.078055,6.521308631664931
71,365.77,6.4806514848789645
72,375.15,6.3375760720825065
73,384.77,6.188565331240084
74,394.64,6.040833772849781
75,404.77,5.887565057409684
76,414.19,5.7441340766055635
77,416.86938299999997,5.703135161325104
78,421.89,5.644125347943674
79,429.74,5.552247957576462
80,440.76,5.424475458373065
81,451.03,5.304584206402205
82,460.46999999999997,5.194292987502017
83,470.10999999999996,5.082132614006486
84,478.630092,4.983368082668176
85,479.96,4.971472541666459
86,490.01000000000005,4.880446341365952
87,500.27000000000004,4.789447255745732
88,506.06,4.736838381930814
89,511.92,4.686723673009324
90,520.24,4.612010870342637
91,529.9100000000001,4.524840300620656
92,539.76,4.435328080624637
93,549.5408739999999,4.347591083316295
94,549.8,4.345808508153569
95,560.02,4.27733046513337
96,570.4300000000001,4.20695474174391
97,579.7,4.143044150570013
98,590.48,4.069697280671995
99,600.0699999999999,4.003025184139343
100,609.82,3.9330863099273135
101,619.73,3.869939318035908
102,629.8,3.800722768465125
103,630.957344,3.792913534135704
104,640.0300000000001,3.7443436345231964
105,650.4300000000001,3.6877584126330336
106,657.9699999999999,3.6463303650126666
107,665.58,3.605885105504576
108,674.84,3.555979110071604
109,684.23,3.5040696539900056
110,695.35,3.4450202969689854
111,705.02,3.3915479633364973
112,716.48,3.331020780003683
113,724.43596,3.288132890915121
114,726.45,3.2800435297250656
115,734.86,3.246243057444468
116,745.08,3.204906829322268
117,755.45,3.163218320826454
118,764.19,3.1262252037239064
119,774.8199999999999,3.0854171599138294
120,785.6,3.0416241657301386
121,794.7,3.005556839730919
122,805.76,2.961497047516483
123,815.09,2.9241044902777227
124,824.52,2.8864171394565536
125,831.763771,2.8563189090511916
126,834.0699999999999,2.84904155735929
127,845.6700000000001,2.815595629550499
128,855.47,2.7860547122637622
129,865.37,2.7565184543924666
130,875.3900000000001,2.7265901338197005
131,885.5300000000001,2.6962319805454644
132,895.7800000000001,2.665556270628214
133,904.07,2.640573518168311
134,914.54,2.6109215049650327
135,925.13,2.5942352890602827
136,935.84,2.5793310804540632
137,944.5000000000001,2.5739360238312927
138,954.992586,2.5572485844128794
139,955.44,2.5565656093495637
140,964.28,2.538257103063153
141,975.45,2.449938611499894
142,984.47,2.4667321696556153
143,995.87,2.4337330476573027
144,1005.09,2.4287155963042815
145,1014.39,2.399067259147764
146,1026.1299999999999,2.32049411998459
147,1035.63,2.317030333319329
148,1045.21,2.330633030850572
149,1054.8799999999999,2.2994183056028805
150,1064.64,2.251392247576255
151,1074.49,2.2349876867706957
152,1084.43,2.185939693186202
153,1094.47,2.1791419298473373
154,1096.4782,2.172306836559898
155,1104.6000000000001,2.1489247238334745
156,1114.82,2.1209360357525986
157,1125.13,2.086418834254179
158,1135.54,2.0795024489584923
159,1146.05,2.0462311498655366
160,1153.99,2.0304382483623895
161,1164.67,2.0060778428140766
162,1175.45,1.9514618934684944
163,1186.32,1.9496495407053707
164,1194.55,1.9068829881901443
165,1205.6,1.8646709885919364
166,1213.96,1.8268012711402604
167,1225.19,1.8310424147069684
168,1233.68,1.835161352318843
169,1245.1,1.8142713886707407
170,1253.73,1.789659350966439
171,1258.92541,1.772740220399322
172,1265.3300000000002,1.7562415089400802
173,1274.1,1.7589761523144198
174,1285.89,1.741762932620401
175,1294.8000000000002,1.7074681775081273
176,1303.78,1.691073553152548
177,1315.8400000000001,1.687007592091491
178,1324.96,1.6669110892492989
179,1334.15,1.6413978571638
180,1346.49,1.6330853591295182
181,1355.8200000000002,1.6138622485574068
182,1365.22,1.5886935187419895
183,1374.69,1.5749843096832656
184,1384.2099999999998,1.558901092593609
185,1393.81,1.5290574906544592
186,1403.47,1.5140008050781895
187,1416.46,1.4969385826417776
188,1426.27,1.4809461929727088
189,1436.1599999999999,1.4640426184541473
190,1442.79,1.455804691552422
191,1445.43977,1.4518111882847342
192,1446.12,1.4511330766481385
193,1456.1399999999999,1.4365246173781774
194,1466.23,1.4187546447799826
195,1476.3999999999999,1.4062171355209503
196,1486.6299999999999,1.3946957462662894
197,1493.49,1.3869726300994296
198,1503.84,1.3704831908535118
199,1510.79,1.3548660746932093
200,1517.76,1.3501759118676973
201,1524.77,1.3401224957117661
202,1535.33,1.3189526064811488
203,1545.98,1.309120367257088
204,1556.69,1.293482378037399
205,1563.8799999999999,1.2867024718945825
206,1574.72,1.2773140993510315
207,1585.63,1.2664495734792474
208,1596.6299999999999,1.2544180476140205
209,1603.9999999999998,1.243853851484319
210,1615.11,1.2302890489604397
211,1626.31,1.2139430764431176
212,1633.82,1.2082231036569493
213,1645.1399999999999,1.1951799911483703
214,1656.54,1.1774259119789534
215,1659.58691,1.1755491231789452
216,1664.19,1.1743402688920181
217,1671.8700000000001,1.161426791597688
218,1675.73,1.1651144532179853
219,1683.46,1.1604520165923113
220,1695.1299999999999,1.1468150626567863
221,1706.88,1.1346239297911112
222,1714.76,1.1250372251714076
223,1726.65,1.1146775641779714
224,1734.6100000000001,1.1112946106281187
225,1746.64,1.0998076615069214
226,1754.6999999999998,1.096282219294382
227,1766.8600000000001,1.081325621911692
228,1775.02,1.075403191036466
229,1783.21,1.0696019005624338
230,1795.57,1.062820115854371
231,1803.86,1.0552406067176523
232,1816.36,1.040170563881828
233,1824.75,1.0341865760824227
234,1833.17,1.0250905986842114
235,1845.88,1.0095725586567452
236,1854.3999999999999,1.0031380425958476
237,1862.9599999999998,0.9977939370698752
238,1875.8700000000001,0.9904829697170358
239,1884.5300000000002,0.9792295255283766
240,1893.23,0.9705822818746429
241,1905.46072,0.9626550837608718
242,1906.35,0.9622749622515203
243,1915.1499999999999,0.9550975691460968
244,1923.9899999999998,0.9479594841629214
245,1932.87,0.9422343173019939
246,1946.27,0.9386169682550991
247,1955.25,0.9299838316997918
248,1968.81,0.9267758851418892
249,1977.8899999999999,0.9215387888922022
250,1982.45,0.9172231148284825
251,1996.1999999999998,0.9077645818512585
252,2005.41,0.9028194169988776
253,2014.67,0.8960845272993069
254,2023.97,0.8905791057219843
255,2033.3100000000002,0.8846781822669098
256,2042.69,0.8815348469340833
257,2056.85,0.8699367422099018
258,2066.35,0.8641859412438198
259,2075.88,0.8627526713694235
260,2085.4700000000003,0.8765166436783993
261,2095.09,0.8655397370790613
262,2104.7599999999998,0.8587018456325337
263,2114.48,0.8573696793388156
264,2124.2400000000002,0.8473995811673457
265,2134.04,0.8373144211181243
266,2143.89,0.8409782062217127
267,2153.79,0.8355183664781112
268,2163.73,0.8228403948567579
269,2173.7200000000003,0.8169601883882144
270,2183.75,0.8202896400419192
271,2187.7616199999998,0.8180091203561803
272,2193.83,0.8157474694746488
273,2203.96,0.8095805148835524
274,2214.13,0.7933798197807438
275,2224.35,0.7946288890382952
276,2234.62,0.8062312826562064
277,2244.93,0.7978559357624054
278,2255.29,0.7795104732289643
279,2265.7,0.7724176450558831
280,2276.1600000000003,0.7725891212431614
281,2286.67,0.7847120217907999
282,2297.2200000000003,0.7680542618267261
283,2302.52,0.7770916440248693
284,2313.15,0.7619607730373712
285,2323.82,0.7431552915381612
286,2334.55,0.7378193792713827
287,2345.33,0.7216694313649644
288,2356.15,0.7403217229468337
289,2367.0299999999997,0.715276393761135
290,2372.48,0.7216141190403575
291,2383.43,0.7019980839591627
292,2394.44,0.7040305181103994
293,2405.4900000000002,0.6988416017499239
294,2416.59,0.6993480797498085
295,2427.75,0.7196092069821249
296,2433.34,0.7173527604703549
297,2444.57,0.725608561807175
298,2455.86,0.725455962376427
299,2467.19,0.7086561624339668
300,2472.88,0.6981041746429166
301,2484.3,0.671108768549104
302,2495.7599999999998,0.6734752919435796
303,2507.28,0.6952898745704865
304,2511.88643,0.6622981973796386
305,2513.06,0.6540154907957367
306,2518.86,0.6467600745051317
307,2524.6600000000003,0.6467726482145267
308,2536.31,0.6614907795446047
309,2542.16,0.6621430471652875
310,2553.9,0.7033917175356836
311,2565.6800000000003,0.6739281530351098
312,2577.53,0.6915813900103394
313,2583.47,0.6786261566713405
314,2595.3900000000003,0.6666329951223728
315,2607.37,0.652641436266951
316,2613.38,0.644706284403755
317,2625.45,0.6619804745886513
318,2637.57,0.7193901786848351
319,2643.65,0.7677262382974424
320,2655.8500000000004,0.843486452651687
321,2661.9700000000003,0.7381877073933245
322,2674.2599999999998,0.7583423607878874
323,2686.6,0.7875779580937381
324,2692.79,0.7218645543111788
325,2705.22,0.7589216906573476
326,2717.71,0.696843319697062
327,2723.9799999999996,0.6625489061725633
328,2736.5499999999997,0.6920086254703383
329,2742.8599999999997,0.6260433470748697
330,2755.52,0.6526239654129629
331,2761.8700000000003,0.6870868421465246
332,2774.62,0.6935216395249361
333,2787.42,0.6251565808146353
334,2793.85,0.5718080178062579
335,2806.75,0.5772190269185328
336,2813.2200000000003,0.6623736390391854
337,2826.2,0.7252469584095212
338,2832.7200000000003,0.7102999644414617
339,2845.7900000000004,0.6486806228521156
340,2852.3500000000004,0.5881431040130866
341,2865.5199999999995,0.7002709702463165
342,2872.1200000000003,0.7751309665363175
343,2884.0315,0.7474348293708475
344,2885.38,0.7444202212400683
345,2892.0299999999997,0.8036759175858513
346,2912.0800000000004,0.9125308576960687
347,2932.27,0.8526726293083028
348,2952.59,0.8191698873152662
349,2973.06,0.8314054219315333
350,2986.78,0.8337819091291485
351,3007.48,0.830667381213014
352,3028.3300000000004,0.8538103299061827
353,3049.3199999999997,0.8674667101013682
354,3070.46,0.9032882669058568
355,3091.7400000000002,0.8869948552123619
356,3113.17,0.9577925201281705
357,3127.54,0.9151912392994337
358,3149.22,0.9112028318974146
359,3171.05,0.9581367011046986
360,3193.03,0.8805512469212862
361,3207.77,0.9288082350621645
362,3230.0,0.8422018085609243
363,3252.39,1.0194149037762745
364,3267.41,1.1214726549211855
365,3290.0600000000004,1.1030351229259947
366,3311.31121,1.0558290501557708
367,3312.86,1.0524860159662466
368,3320.5,1.0136508863385112
369,3328.15,1.0722654303630956
370,3335.8199999999997,1.1049424216923194
371,3343.51,1.0401682603261826
372,3351.22,1.0304355462646853
373,3358.95,1.1106600795078274
374,3366.69,0.9943897864032892
375,3374.45,0.8616046406033906
376,3382.23,0.9575263421081311
377,3390.03,1.0765382909175112
378,3397.8399999999997,0.9894740133792113
379,3405.67,1.1157456831455503
380,3413.53,1.053635873868849
381,3421.3900000000003,1.1040935645921472
382,3429.28,1.069151376272405
383,3437.19,1.079457535257302
384,3445.11,0.8213273678945187
385,3453.0499999999997,1.1175548478363748
386,3461.0099999999998,0.9767645750828704
387,3468.9900000000002,1.0368309496340056
388,3476.99,0.9903575714897801
389,3484.9999999999995,1.0536512669978744
390,3493.04,0.9473389834629276
391,3501.09,1.0317686735803004
392,3509.16,1.106568011002313
393,3517.25,0.9689325957289651
394,3525.36,0.9849114277602564
395,3533.48,1.1212035334438677
396,3541.63,1.1857633600844377
397,3549.79,1.1830677603773276
398,3557.98,1.076301481627177
399,3566.18,1.1265947765293458
400,3574.3999999999996,0.9030680187361542
401,3582.6400000000003,0.8921347082476018
402,3590.9,0.8221538450636889
403,3599.1800000000003,1.1686936291844154
404,3607.47,1.0185478869574618
405,3615.79,1.0505826656874673
406,3624.1299999999997,0.9595588917221123
407,3632.48,1.237864591409077
408,3640.85,1.175841838400681
409,3649.2400000000002,1.0699056326969245
410,3657.66,1.3034294479501272
411,3666.09,1.3317388368556493
412,3674.54,1.2952622730658112
413,3683.0099999999998,1.1324934565806124
414,3691.5,1.101283187400053
415,3700.01,1.2648451655241333
416,3708.54,1.0120533909528526
417,3717.09,1.3690434636862117
418,3725.6600000000003,0.9299676837242101
419,3734.25,1.145709851066848
420,3742.86,1.1065134657141253
421,3751.48,0.8189684540137223
422,3760.1299999999997,1.2194572632702785
423,3768.7999999999997,1.077539119831474
424,3777.4900000000002,1.255439623697309
425,3786.2000000000003,1.3799058748677837
426,3794.9300000000003,1.1265468733428974
427,3801.8939600000003,1.069622215034951
428,3803.67,1.055183168327226
429,3812.44,1.2568697972931118
430,3821.23,1.035792158936229
431,3830.04,0.8313640532565773
432,3838.87,0.8167762802541568
433,3847.7200000000003,1.1103489399289674
434,3856.5899999999997,1.1263919322810096
435,3865.48,1.1166014573102827
436,3874.39,1.0017829150167872
437,3883.32,1.0236840054005225
438,3886.7000000000003,1.1271625278525974
439,3890.75,1.1503997449919177
440,3894.7999999999997,1.2110326621312377
441,3898.85,1.2659083792705579
442,3902.9,1.209830496409878
443,3906.9500000000003,1.3053839135491982
444,3911.0099999999998,1.275938947027134
445,3915.0600000000004,1.255162764166454
446,3919.11,1.2689303813057744
447,3923.16,1.0426127984450946
448,3927.21,0.9820159155844147
449,3931.2599999999998,0.824559932723735
450,3935.3100000000004,0.8410816498630551
451,3939.37,0.9603052833409909
452,3943.42,1.089272300480311
453,3947.4700000000003,1.2025772176196312
454,3951.52,1.2347463347589516
455,3955.5699999999997,1.1403627518982717
456,3959.62,1.0668559690375918
457,3963.67,0.9860312861769119
458,3967.7200000000003,0.9969466033162321
459,3971.7799999999997,1.020552336794168
460,3975.8300000000004,1.139618553933488
461,3979.88,1.2965648710728082
462,3983.93,1.4819758882121286
463,3987.98,1.4900940053514486
464,3992.0299999999997,1.564119122490769
465,3996.0800000000004,1.644230239630089
466,4000.14,1.5538212731080248
467,4004.19,1.576790390247345
468,4008.2400000000002,1.7730705073866653
469,4012.29,1.7111796245259854
470,4016.3399999999997,1.7151017416653056
471,4020.39,1.7597548588046257
472,4024.44,1.5683579759439459
473,4028.5,1.6460410094218816
474,4032.5499999999997,1.6233281265612018
475,4036.6000000000004,1.706177243700522
476,4040.65,1.637137360839842
477,4044.7,1.6576854779791623
478,4048.75,1.6739285951184826
479,4052.7999999999997,1.6137127122578026
480,4056.8500000000004,1.6203718293971228
481,4060.91,1.6061528628750588
482,4064.96,1.592533980014379
483,4069.01,1.5433480971536988
484,4073.06,1.6649442142930193
485,4077.11,1.5941763314323394
486,4081.16,1.6846724485716595
487,4085.21,1.7442835657109796
488,4089.27,1.6589325991889154
489,4093.3199999999997,1.7055767163282356
490,4097.37,1.635029833467556
491,4101.42,1.719169950606876
492,4105.47,1.6123040677461962
493,4109.5199999999995,1.6273631848855166
494,4113.57,1.6241823020248365
495,4117.62,1.738945419164157
496,4121.679999999999,1.6268994526420926
497,4125.7300000000005,1.5966005697814127
498,4129.78,1.668102686920733
499,4133.83,1.540736804060053
500,4137.88,1.6124549211993733
501,4141.929999999999,1.5695040383386936
502,4145.9800000000005,1.5981231554780135
503,4150.04,1.6145741889559493
504,4154.09,1.5913233060952696
505,4158.14,1.6462524232345896
506,4162.1900000000005,1.6251545403739098
507,4166.24,1.58941365751323
508,4170.29,1.6078097746525501
509,4174.34,1.6417008917918703
510,4178.39,1.6161370089311906
511,4182.45,1.4929060424091265
512,4186.5,1.5819431595484468
513,4190.55,1.5625662766877668
514,4194.6,1.599901393827087
515,4198.65,1.6335245109664072
516,4202.7,1.6991616281057274
517,4206.75,1.6939367452450476
518,4210.8099999999995,1.6802487787229834
519,4214.860000000001,1.7292058958623036
520,4218.91,1.5626690130016236
521,4222.96,1.5761141301409438
522,4227.01,1.591281247280264
523,4231.0599999999995,1.6215083644195842
524,4235.110000000001,1.6872534815589042
525,4239.16,1.7059715986982247
526,4243.219999999999,1.7939846321761603
527,4247.27,1.8100127493154803
528,4251.32,1.7053458664548007
529,4255.37,1.668643983594121
530,4259.42,1.7411151007334411
531,4263.469999999999,1.7081252178727613
532,4267.52,1.6885873350120815
533,4271.58,1.7488903684900172
534,4275.63,1.7253104856293373
535,4279.68,1.6319496027686575
536,4283.7300000000005,1.6149947199079777
537,4287.78,1.564786837047298
538,4291.83,1.514900954186618
539,4295.88,1.5008450713259385
540,4299.93,1.4152321884652586
541,4303.99,1.4208152219431944
542,4308.04,1.4123073390825145
543,4312.09,1.5379384562218346
544,4316.14,1.6841715733611546
545,4320.19,1.749163690500475
546,4324.24,1.7701418076397952
547,4328.29,1.9210629247791153
548,4332.349999999999,1.7429489582570512
549,4336.400000000001,1.9214190753963711
550,4340.45,1.8837941925356914
551,4344.5,1.8846493096750117
552,4348.55,1.8911544268143317
553,4352.599999999999,1.848587543953652
554,4356.650000000001,1.945809661092972
555,4360.7,2.0752007782322925
556,4364.759999999999,2.012716811710228
557,4365.15832,2.004767732939592
558,4368.81,1.932009829629139
559,4372.86,1.8241985989168792
560,4376.91,1.8262583682046194
561,4380.96,1.7861281374923594
562,4385.009999999999,1.7986269067801
563,4389.06,1.7956826760678397
564,4393.12,1.8638636818229573
565,4397.17,1.8998224511106974
566,4401.22,1.8723432203984376
567,4405.27,1.9537069896861776
568,4409.32,1.9278427589739178
569,4413.37,1.8997715282616583
570,4417.42,1.9420262975493983
571,4421.47,2.0176400668371386
572,4425.53,1.9511890725922558
573,4429.58,2.034712841879996
574,4433.63,2.093054611167736
575,4437.68,2.059657380455476
576,4441.73,2.0156061497432165
577,4445.78,2.0877149190309567
578,4449.83,2.075570688318697
579,4453.889999999999,1.958226694073814
580,4457.9400000000005,1.9846074633615542
581,4461.99,2.0730812326492947
582,4466.04,2.0123500019370346
583,4470.09,2.0718147712247745
584,4474.139999999999,2.160180540512515
585,4478.1900000000005,2.130496309800255
586,4482.25,2.1837713155553726
587,4486.3,2.1610820848431125
588,4490.35,2.199775854130853
589,4494.4,2.214427623418593
590,4498.45,2.260610392706333
591,4502.5,2.300013161994073
592,4506.549999999999,2.2976089312818133
593,4510.6,2.268837700569554
594,4514.66,2.218311706324671
595,4518.71,2.1715704756124112
596,4522.76,2.145275244900151
