,lambda (Angstroms),Total Flux (erg/s/cm^2/Angstrom)
0,100.05,38.65138592019831
1,101.91000000000001,38.543864490163145
2,104.05,38.420157038402266
3,104.712855,38.38183923329153
4,105.98,37.997067010007555
5,107.95,37.398870844715155
6,109.96000000000001,36.78852856439144
7,114.09,35.53444218740789
8,118.1,34.316794155518295
9,120.22644299999999,33.67109362337979
10,121.11999999999999,33.4436109369379
11,125.08999999999999,32.4329241366842
12,127.13000000000001,31.913578778367437
13,128.01,31.68954744732884
14,130.99,30.930895894493567
15,131.9,30.69922713171501
16,134.04,30.15442366759841
17,136.85,29.439050894622873
18,138.038426,29.136500146190055
19,140.03,28.77409267238413
20,142.97,28.239099760752715
21,146.97,27.511218248329023
22,151.09,26.76150029053262
23,154.95999999999998,26.0572749272627
24,158.489319,25.415043414376285
25,158.94,25.35304190303699
26,161.89,24.947201722397182
27,166.05,24.374898281223775
28,169.92,23.842490993401405
29,173.07,23.409136224243664
30,177.11,22.853341536181055
31,179.98,22.458507190948477
32,181.970086,22.18472520392181
33,182.07000000000002,22.17423872795246
34,185.88,21.77436009789828
35,191.09,21.227544438427923
36,194.19,20.902183873292067
37,197.79999999999998,20.523296247440427
38,201.94,20.088782460452766
39,205.23,19.74348044132499
40,208.929613,19.355187481175843
41,210.01,19.269937720443114
42,215.89000000000001,18.805966390625695
43,219.89999999999998,18.489550568760936
44,222.96,18.248096101203558
45,227.10999999999999,17.920633342915792
46,229.74,17.7131087515254
47,234.01000000000002,17.376177190603315
48,239.88329199999998,16.912735166882737
49,240.01000000000002,16.9050305359349
50,246.17,16.530464394572878
51,251.9,16.182044915701635
52,257.18,15.860988223100742
53,260.15,15.680393833561268
54,263.77000000000004,15.460275419369374
55,269.3,15.12401717888819
56,274.3,14.819986220068634
57,275.42287,14.751708771531023
58,278.76,14.595978129075824
59,283.94,14.354248041285798
60,289.89,14.076585102611178
61,295.96,13.793322239220608
62,300.77,13.568858586367911
63,307.77,13.242196305856403
64,316.227766,12.847505858954607
65,317.86,12.790614412628901
66,328.27000000000004,12.427774307707232
67,338.25,12.079921834793138
68,347.71999999999997,11.749845390577159
69,356.64,11.438939173344686
70,363.078055,11.21454104313012
71,365.79,11.143752043149664
72,375.17,10.898909017531917
73,384.8,10.647540325260563
74,394.67,10.38990699567827
75,404.79,10.125748000149422
76,414.22,9.879599845285837
77,416.86938299999997,9.810443881948734
78,421.92,9.709766797276082
79,429.77000000000004,9.553287874385129
80,440.79,9.333619377629377
81,451.06,9.128901096381155
82,460.5,8.940727719882695
83,470.14,8.748567625331319
84,478.630092,8.57932936342237
85,479.99,8.558480909117428
86,490.03999999999996,8.404406536572294
87,500.29999999999995,8.247112713568718
88,506.09000000000003,8.158347493717008
89,511.96,8.068355972288233
90,520.27,7.940957211725329
91,529.95,7.7925552982993604
92,539.8,7.641547117481187
93,549.5408739999999,7.492212176058644
94,549.8299999999999,7.488830834740998
95,560.06,7.369190518403735
96,570.47,7.247445123984958
97,579.74,7.139031898646527
98,590.52,7.012959638369481
99,600.11,6.900804259430006
100,609.86,6.786778096653008
101,619.77,6.67088090194749
102,629.84,6.553112444693447
103,630.957344,6.540045090920502
104,640.0799999999999,6.455467973125191
105,650.4799999999999,6.3590494737704475
106,658.01,6.289238869937297
107,665.63,6.2185937357103445
108,674.89,6.132743733973768
109,684.28,6.045688436864033
110,695.4000000000001,5.942598338976867
111,705.07,5.852946874412635
112,716.53,5.74670502607644
113,724.43596,5.673410053402924
114,726.49,5.659274969696503
115,734.91,5.601332396570112
116,745.13,5.531006328043663
117,755.5000000000001,5.459646747471373
118,764.24,5.399505093763862
119,774.88,5.3262901132790645
120,785.65,5.252181194337873
121,794.75,5.189563620930349
122,805.81,5.113458504427205
123,815.14,5.049259162616063
124,824.58,4.98431038715797
125,831.763771,4.9348606898073575
126,834.13,4.922684857195866
127,845.7299999999999,4.863049543376153
128,855.52,4.812701330078267
129,865.43,4.761744284955178
130,875.4499999999999,4.710223919700651
131,885.59,4.658092480020918
132,895.8399999999999,4.605391316709751
133,904.1299999999999,4.562758378476914
134,914.6,4.509078635902872
135,925.19,4.457613711903626
136,935.91,4.407138382385409
137,944.5699999999999,4.371108234183193
138,954.992586,4.32564891050042
139,955.5,4.323492146950273
140,964.34,4.282980976461554
141,975.51,4.20200742263135
142,984.54,4.1777745778787345
143,995.94,4.124062432044865
144,1005.15,4.095113652463292
145,1014.4499999999999,4.048913027967242
146,1023.84,3.975172418556714
147,1035.7,3.9288822387155133
148,1045.28,3.918508490041087
149,1054.95,3.8712513764521828
150,1064.71,3.8070730479488004
151,1074.56,3.7726805445309406
152,1084.51,3.7075117867636607
153,1094.54,3.681984723516845
154,1096.4782,3.6722392305175333
155,1104.6699999999998,3.638522585895035
156,1114.89,3.595493924637114
157,1125.21,3.5469540303727563
158,1135.62,3.530575030402605
159,1146.1200000000001,3.4800092847266586
160,1154.07,3.4579013607148714
161,1164.75,3.420987163627338
162,1175.52,3.341978210834011
163,1183.67,3.3453231508093486
164,1194.63,3.26136628930379
165,1205.6799999999998,3.193439792092439
166,1214.04,3.143353998754256
167,1225.27,3.1429870301313163
168,1233.76,3.1616253818847664
169,1245.18,3.135353944549595
170,1253.81,3.0967056440940324
171,1258.92541,3.065588883436371
172,1265.4099999999999,3.0338155895841643
173,1274.18,3.062877738737442
174,1285.9699999999998,3.0457200362878587
175,1294.8899999999999,2.976577845460862
176,1303.8600000000001,2.9477512746404395
177,1315.9299999999998,2.9669693442276777
178,1325.0500000000002,2.9368726334269804
179,1334.2300000000002,2.885686066634174
180,1343.48,2.9082703678505744
181,1355.9099999999999,2.867546701485153
182,1365.3100000000002,2.816093962721276
183,1374.78,2.8079820919666068
184,1384.31,2.7869800652198267
185,1393.8999999999999,2.736093082480937
186,1403.5600000000002,2.7198298677512516
187,1416.55,2.6858293454594717
188,1426.3700000000001,2.671656814750827
189,1436.26,2.6419703520513886
190,1442.89,2.642876364923251
191,1445.43977,2.643448963728239
192,1446.21,2.6443052201640938
193,1456.24,2.6179876118576653
194,1466.3300000000002,2.577506574787689
195,1476.5,2.5593756993663157
196,1483.31,2.558357834703626
197,1493.59,2.5488961065490816
198,1503.94,2.5174487448370635
199,1510.89,2.472491213059429
200,1517.8600000000001,2.4807196716939446
201,1524.8700000000001,2.4556979111527615
202,1535.44,2.4018867439744023
203,1546.08,2.4167633432385704
204,1553.2199999999998,2.3883743203763674
205,1563.98,2.3698262621134387
206,1574.8200000000002,2.368660165499113
207,1585.74,2.3665133305333907
208,1596.73,2.3554176620101956
209,1604.1,2.337244028887725
210,1615.22,2.3192642980435094
211,1626.42,2.2791596288478964
212,1633.92,2.2881299334044054
213,1645.25,2.2748303018877722
214,1656.65,2.224529436813666
215,1659.58691,2.232269109385454
216,1664.3,2.247585082687212
217,1671.9800000000002,2.192596651946578
218,1675.8400000000001,2.2338965141003744
219,1683.5700000000002,2.2461974771700235
220,1695.24,2.2082337124899207
221,1703.07,2.1852544631801347
222,1714.8700000000001,2.153200502406765
223,1726.76,2.136533190491905
224,1734.7299999999998,2.150327583850909
225,1746.75,2.1282371758427816
226,1754.82,2.145973456822351
227,1766.98,2.0950102914830144
228,1775.14,2.098912021321092
229,1783.33,2.096339967445338
230,1795.69,2.107448677347131
231,1803.98,2.0945055110919424
232,1816.49,2.0495630024245823
233,1824.8700000000001,2.0468793850279017
234,1833.29,2.021769222679447
235,1845.9999999999998,1.9757966892532166
236,1854.52,1.9682895145253263
237,1863.08,1.9682585948456623
238,1876.0,1.9803151754226171
239,1884.6599999999999,1.9419688433635176
240,1893.3500000000001,1.9192065275905872
241,1905.46072,1.9176668101089125
242,1906.48,1.917928328096015
243,1915.28,1.900383969408283
244,1924.12,1.889011014090152
245,1933.0,1.890612862141622
246,1946.4,1.8903129909580296
247,1955.3799999999999,1.8611343974335028
248,1968.94,1.8800491397283152
249,1978.03,1.8816464804701918
250,1982.58,1.8573200887623302
251,1996.3300000000002,1.8313336720627487
252,2005.5400000000002,1.8337512229134285
253,2014.8,1.8100459529761106
254,2024.1000000000001,1.8197074864083933
255,2033.44,1.7915915232102775
256,2042.83,1.7986131392241635
257,2056.99,1.766020632062994
258,2066.48,1.7572587065008827
259,2076.02,1.772467360150773
260,2085.6,1.7567715171702647
261,2095.23,1.7271579534017574
262,2104.9,1.7188315930028515
263,2114.62,1.7112047118159475
264,2124.3799999999997,1.7075849339986446
265,2134.18,1.6680694595509427
266,2144.04,1.6685118401576424
267,2153.93,1.6716544482915432
268,2163.87,1.6490851356374456
269,2173.86,1.6345272021953494
270,2183.9,1.6175889479652545
271,2187.7616199999998,1.6200263079376853
272,2193.98,1.6260679670078129
273,2204.1,1.6075109217935395
274,2214.28,1.5825683559554655
275,2224.5,1.5636628097015253
276,2234.77,1.5818445629277516
277,2245.08,1.5612365357381113
278,2255.44,1.5468281080286375
279,2265.85,1.5521889797993307
280,2276.31,1.55879335105019
281,2286.82,1.563542321781216
282,2297.38,1.5420321919924087
283,2302.67,1.5388022569940385
284,2313.3,1.5200329864774644
285,2323.98,1.4435713154410574
286,2334.7000000000003,1.4913727639887833
287,2345.48,1.4782413919127093
288,2356.31,1.499822519316802
289,2367.1800000000003,1.4691253663050277
290,2372.64,1.4783166895392241
291,2383.5899999999997,1.4510658756957169
292,2394.59,1.4702177613323757
293,2405.65,1.451268926345235
294,2416.75,1.4550976109422273
295,2422.32,1.4724618130327902
296,2433.5,1.4534915367980492
297,2444.74,1.4706416399395081
298,2456.02,1.4587536626651003
299,2467.36,1.4544416647668927
300,2473.04,1.4408978457138224
301,2484.46,1.452870486983881
302,2495.9300000000003,1.4270435277341063
303,2507.45,1.4599938679644988
304,2511.88643,1.430592986191657
305,2513.23,1.4219328088407273
306,2519.02,1.4334475666324513
307,2524.83,1.412768614261107
308,2536.48,1.4130188942738156
309,2542.33,1.4062453215763349
310,2554.0600000000004,1.4279418609367704
311,2565.85,1.4203057698080015
312,2577.7,1.4409618481900275
313,2583.64,1.438562229758739
314,2595.5699999999997,1.4317627674884918
315,2607.55,1.4162162798105733
316,2613.56,1.4128093258085461
317,2625.6200000000003,1.4275232974783547
318,2637.7400000000002,1.4307524386589585
319,2643.82,1.4635993490861918
320,2656.02,1.4622121496145226
321,2662.1499999999996,1.4282790346340855
322,2674.43,1.4461075945101425
323,2686.7799999999997,1.4390518188154606
324,2692.9700000000003,1.424603373345818
325,2705.4,1.4317483569988632
326,2717.89,1.412574710162703
327,2724.15,1.415559829122322
328,2736.73,1.4366442365523544
329,2743.04,1.3802866301043024
330,2755.7,1.3825732968820619
331,2762.0499999999997,1.3962683701078729
332,2774.8,1.4161659911518245
333,2787.6099999999997,1.3996762817065722
334,2794.04,1.30536211428011
335,2806.9300000000003,1.3350389641825835
336,2813.3999999999996,1.4155440764299851
337,2826.39,1.4253396755171173
338,2832.9100000000003,1.4033089623568478
339,2845.98,1.3922994207917068
340,2852.54,1.387408387305301
341,2865.71,1.4131068949248182
342,2872.31,1.4043358411122757
343,2884.0315,1.4066292788945796
344,2885.57,1.4071700658447708
345,2892.22,1.399380635621061
346,2912.27,1.4344303783300267
347,2932.46,1.420747467771125
348,2952.79,1.4178356039443556
349,2973.25,1.4246359335117091
350,2986.98,1.4302465665986968
351,3007.68,1.4375807762782773
352,3028.5299999999997,1.4378298860279997
353,3049.52,1.4366799425098544
354,3070.66,1.4355651990618514
355,3091.95,1.44210825568399
356,3113.38,1.436497159038261
357,3127.7500000000005,1.4353455057578537
358,3149.43,1.4406819425623616
359,3171.26,1.4398432794370106
360,3193.24,1.4183689163818023
361,3207.9800000000005,1.436371636607745
362,3230.22,1.4242454603407824
363,3252.61,1.4382209841439615
364,3267.62,1.44906464449616
365,3290.27,1.4503016550875851
366,3311.31121,1.451533561201681
367,3313.08,1.4518304189450917
368,3320.72,1.4619730964026925
369,3328.37,1.4632986200349758
370,3336.04,1.4718691360166245
371,3343.7299999999996,1.446521144347639
372,3351.44,1.4638585450280184
373,3359.17,1.4473762380577635
374,3366.9100000000003,1.4487121772621914
375,3374.68,1.4238122549906675
376,3382.4500000000003,1.4354909327191434
377,3390.25,1.4709374489716678
378,3398.07,1.4723717575735573
379,3405.9,1.4537327123501296
380,3413.75,1.4587388594760675
381,3421.6200000000003,1.4843476989513706
382,3429.51,1.4797442307760393
383,3437.4100000000003,1.4876894087753907
384,3445.34,1.4470916252987904
385,3453.28,1.4923210879968727
386,3461.24,1.4458224430443205
387,3469.2200000000003,1.4571638904411337
388,3477.22,1.4408919301873127
389,3485.2300000000005,1.4559261161081738
390,3493.27,1.4599690405530832
391,3501.32,1.4640761111726754
392,3509.39,1.4475380741416335
393,3517.48,1.4367343294599566
394,3525.59,1.4594208771276453
395,3533.7200000000003,1.4770246171446992
396,3534.23,2.004736372053518
397,3536.87,0.8928756621697571
398,3539.52,1.1889151984606787
399,3542.16,0.5204466885769178
400,3544.81,2.2480386248678395
401,3547.45,1.9600190149840784
402,3550.1,2.057271751275
403,3552.75,2.108572487565922
404,3555.39,1.1927351776821606
405,3558.04,1.4957597139730825
406,3560.68,2.0938020040893215
407,3563.33,1.150633940380243
408,3565.9800000000005,0.6511123066711645
409,3568.6200000000003,1.7126818667874035
410,3571.2699999999995,1.0051152030783255
411,3573.9100000000003,2.423599993194564
412,3576.56,1.922113729485486
413,3579.2000000000003,1.5090620196017248
414,3581.85,1.8818778558926466
415,3584.5,1.6521605921835685
416,3587.14,1.8963159822998075
417,3589.79,2.148147718590729
418,3592.43,1.393820108706968
419,3595.08,1.0347124449978895
420,3597.73,0.6956753412888114
421,3600.37,0.6749783214050503
422,3603.02,2.0209547076959717
423,3605.66,1.116848297812211
424,3608.31,1.5084542341031326
425,3610.95,1.2123073242193716
426,3613.6000000000004,0.9656516605102932
427,3616.2499999999995,1.2014251968012148
428,3618.8900000000003,1.0336326869174537
429,3621.54,1.2253038232083755
430,3624.1800000000003,1.6347332133246144
431,3626.83,1.7203819496155361
432,3629.48,1.2253288859064577
433,3632.12,1.3260092760226967
434,3634.77,1.5729488123136184
435,3637.41,1.7167292024298575
436,3640.06,1.4865090387207793
437,3642.71,1.9123036750117008
438,3645.35,1.5006956651279397
439,3648.0,1.5956290014188617
440,3650.64,1.4718462915351005
441,3653.29,1.4283246278260222
442,3655.93,1.200276117942261
443,3658.5800000000004,1.1333551542331826
444,3661.2299999999996,1.4286316905241045
445,3663.8700000000003,2.233634180640343
446,3666.52,2.154508916931265
447,3669.1600000000003,0.705727907047504
448,3671.81,1.4072559433384257
449,3674.46,1.3876051796293476
450,3677.1,1.7105861697455864
451,3679.75,1.350819806036508
452,3682.39,2.217930296152747
453,3685.04,1.6966210324436686
454,3687.68,1.7218014225599076
455,3690.33,1.0289453588508293
456,3692.98,1.083792495141751
457,3695.62,1.36640298525799
458,3698.27,1.4066323215489116
459,3700.91,0.9512960116651507
460,3703.5600000000004,1.4673363479560722
461,3706.2099999999996,1.3779246842469943
462,3708.8500000000004,1.9729852743632326
463,3711.5,1.5329185106541545
464,3714.1400000000003,2.1621714007703936
465,3716.79,1.5100917370613152
466,3719.4300000000003,1.317080727177554
467,3722.08,1.865899263468476
468,3724.73,2.1313439997593977
469,3727.37,2.0939793898756367
470,3730.02,2.807160126166558
471,3732.66,1.6629705162827972
472,3735.31,1.904075252573719
473,3737.96,1.6253299888646406
474,3740.6,1.6514823789808797
475,3743.25,1.347487415271801
476,3745.89,1.1894193053880402
477,3748.5400000000004,2.0938172416789618
478,3751.1800000000003,0.9624219317952007
479,3753.8300000000004,1.9241603680861221
480,3756.48,1.8418051043770443
481,3759.1200000000003,1.469060794493283
482,3761.77,1.4974644307842049
483,3764.4100000000003,1.4318363209004437
484,3767.06,1.4149455571913654
485,3769.71,1.030588093482287
486,3772.35,1.2487698835985261
487,3775.0,1.5290215198894477
488,3777.64,1.4867936100056869
489,3780.29,1.8485683462966085
490,3782.93,2.1761937364128476
491,3785.58,1.880195472703769
492,3788.23,2.0338162089946907
493,3790.87,1.7978965991109295
494,3793.5200000000004,1.7061623354018514
495,3796.1600000000003,1.0189912255180902
496,3798.8100000000004,0.9941026618090119
497,3801.46,1.2414504980999337
498,3801.8939600000003,1.2653889629161756
499,3804.1000000000004,1.387250184555353
500,3806.75,1.7265820882715381
501,3809.3900000000003,1.200653676124643
502,3812.04,1.8199703798408282
503,3814.69,1.8131950835570132
504,3817.33,1.9991796714101184
505,3819.98,2.1178723751263036
506,3822.62,2.1355099629794085
507,3825.27,1.4930141666955936
508,3827.91,1.6030582545486989
509,3830.56,1.8254519582648838
510,3833.21,1.6417036619810688
511,3835.85,1.617181249834174
512,3838.5000000000005,1.979567953550359
513,3841.1400000000003,1.9280715414034642
514,3843.7900000000004,1.804735245119649
515,3846.44,2.027661948835834
516,3849.08,1.9356385366889395
517,3851.73,2.0823432404051245
518,3854.37,1.7576688282582296
519,3857.02,2.060896531974415
520,3859.66,1.9968211198275196
521,3862.31,2.0670208235437046
522,3864.96,1.9463825272598898
523,3867.6,2.013015115112995
524,3870.25,1.9961388188291802
525,3872.89,1.4416358066822852
526,3875.54,1.6917281103984703
527,3878.19,1.7586658141146554
528,3880.83,1.4893538019677603
529,3883.4800000000005,1.6912971056839454
530,3886.1200000000003,2.0478256935370505
531,3888.7699999999995,2.4897893972532357
532,3891.4100000000003,2.2839049851063407
533,3894.06,1.8688206888225258
534,3896.71,1.8865743925387108
535,3899.35,2.004052980391816
536,3902.0,2.158316684108001
537,3904.64,2.2470952719611064
538,3907.29,2.4700529756772913
539,3909.94,1.893584679393476
540,3912.58,2.1843362672465814
541,3915.23,2.4295649709627662
542,3917.87,2.2680965588158717
543,3920.52,1.8163432625320566
544,3923.16,1.7396278503851619
545,3925.81,2.1712725541013467
546,3928.4599999999996,2.0806832578175323
547,3931.1000000000004,1.7718498456706369
548,3933.7499999999995,1.987970549386822
549,3936.3900000000003,2.0189701372399274
550,3939.04,1.8862858409561123
551,3941.69,2.187787544672297
552,3944.33,2.0430991325254024
553,3946.98,1.6921928362415875
554,3949.62,2.1288654240946925
555,3952.27,2.3566221278108777
556,3954.91,1.6579557156639826
557,3957.56,2.1539984193801676
558,3960.21,2.427018123096353
559,3962.85,1.624651710949458
560,3965.5,1.197461814665643
561,3968.14,1.4608912025187482
562,3970.79,1.6646227062349332
563,3973.4399999999996,1.8292694099511184
564,3976.0800000000004,1.964062997804223
565,3978.7299999999996,2.0228127015204085
566,3981.3700000000003,2.5125602893735133
567,3984.02,2.402364993089699
568,3986.67,2.2142546968058836
569,3989.31,2.6272142846589883
570,3991.96,2.576429988375174
571,3994.6,2.315840576228279
572,3997.25,2.247866279944464
573,3999.89,2.1427328677975694
574,4002.54,2.531152571513754
575,4005.19,2.6159992752299392
576,4007.83,1.9790968630830443
577,4010.48,2.2497015667992297
578,4013.12,2.4639811546523345
579,4015.77,2.2282548583685196
580,4018.4199999999996,2.3722925620847044
581,4021.0600000000004,2.5923751499378094
582,4023.7099999999996,2.235915853653995
583,4026.3500000000004,2.1037744415071
584,4029.0,2.102551145223285
585,4031.6400000000003,2.1659847330763897
586,4034.29,2.332701436792575
587,4036.94,2.42030814050876
588,4039.58,2.4222947283618654
589,4042.23,2.2328034320780503
590,4044.87,2.3987460199311554
591,4047.52,2.3237147236473406
592,4050.17,2.2811794273635257
593,4052.81,2.158323015216631
594,4055.46,2.258823718932816
595,4058.1,2.067805306785921
596,4060.75,1.977938010502106
597,4063.39,2.180391598355211
598,4066.0400000000004,1.9443203020713962
599,4068.6899999999996,2.3484550057875815
600,4071.3300000000004,2.233785593640686
601,4073.98,2.1204552973568713
602,4076.6200000000003,2.2238508852099765
603,4079.27,2.396903588926161
