,lambda (Angstroms),Total Flux (erg/s/cm^2/Angstrom)
0,100.00999999999999,44.1202110895437
1,102.10000000000001,43.98230771176661
2,104.0,43.856941004696566
3,104.712855,43.80990506576585
4,105.93,43.38804710600151
5,107.89999999999999,42.70525238496529
6,109.91000000000001,42.00859381172574
7,114.03,40.58061703473724
8,118.04,39.19076585131014
9,120.22644299999999,38.432952786221634
10,121.07,38.1878281000219
11,125.03999999999999,37.03420717788146
12,127.07,36.44432040913189
13,127.95,36.18860594780406
14,130.93,35.32266379467077
15,132.14,34.971056410352624
16,133.98,34.4363807184935
17,137.1,33.529756719272406
18,138.038426,33.2570645612322
19,139.97,32.85586672836926
20,142.9,32.24729069150568
21,146.9,31.416470163671573
22,151.02,30.560725019768384
23,154.89,29.75690615910171
24,158.489319,29.009309131468314
25,158.86999999999998,28.94953121724584
26,161.82,28.486295996992954
27,165.97,27.834626111161576
28,169.84,27.226924314486485
29,173.0,26.730713028567607
30,177.03,26.097886610731326
31,179.89999999999998,25.647213703324546
32,181.970086,25.322150401623684
33,181.98,25.320962723762864
34,185.79999999999998,24.86333417645655
35,191.0,24.24038432241291
36,194.1,23.869010372136955
37,198.17000000000002,23.381432316008752
38,201.85000000000002,22.940575501207814
39,205.13,22.54763790535541
40,208.929613,22.0924516878616
41,209.91,22.00415226236506
42,215.79000000000002,21.474564853395723
43,219.79999999999998,21.11340065291828
44,222.86,20.83779904388695
45,227.00000000000003,20.464926284309048
46,230.16,20.180318188052738
47,233.9,19.84347198165088
48,239.88329199999998,19.304581712955446
49,239.9,19.303422085379303
50,246.06,18.875883867887037
51,251.79,18.478190156089635
52,257.06,18.11242273877545
53,260.04,17.905594408866744
54,264.26,17.612703103218763
55,269.18,17.27122788588698
56,274.18,16.924200234440534
57,275.42287,16.8379381832926
58,279.28000000000003,16.632485688832027
59,283.81,16.3911924075514
60,289.76,16.07426180988768
61,295.83000000000004,15.750939500145906
62,301.32,15.458511099151883
63,308.34,15.084586522039466
64,316.227766,14.664439968704128
65,317.71,14.605470538897734
66,328.12,14.191317356194894
67,338.09,13.794669264280188
68,348.37,13.385688099421568
69,357.29999999999995,13.030415728845641
70,363.078055,12.800540920039252
71,365.61999999999995,12.724806073907477
72,375.0,12.445337605562303
73,384.62,12.158718339717485
74,395.4,11.837538658121376
75,404.60999999999996,11.563135641425953
76,414.03000000000003,11.282475595311839
77,416.86938299999997,11.197878841265153
78,421.73,11.087287302076591
79,429.57,10.908907174712622
80,440.59000000000003,10.65817423724309
81,450.85,10.424732978040423
82,460.29,10.20994869207095
83,469.93,9.99061423348704
84,478.630092,9.792665275548144
85,479.77,9.772718332197737
86,489.82,9.596855427211953
87,500.08,9.417318781982406
88,505.87,9.316003929591522
89,511.72,9.21365940172099
90,520.04,9.068071893560015
91,529.7099999999999,8.898861767601991
92,539.5500000000001,8.726673087699968
93,549.5408739999999,8.551862955923921
94,549.59,8.551207266335808
95,559.8000000000001,8.41493107867041
96,570.21,8.275982484959929
97,579.48,8.152237806812412
98,590.25,8.008494357926788
99,599.84,7.88048485107914
100,609.59,7.7503590382314265
101,619.49,7.6182382439399055
102,629.56,7.483835920392063
103,630.957344,7.465184535559522
104,639.79,7.371725872409403
105,650.1800000000001,7.261813181957481
106,657.7099999999999,7.182150782172214
107,665.3299999999999,7.101540813045684
108,674.58,7.0036740634497
109,685.5400000000001,6.8876973476698105
110,695.08,6.78684530769644
111,704.75,6.684503615074586
112,716.2,6.563447316181179
113,724.43596,6.4763237140119445
114,726.16,6.462787766503752
115,734.5699999999999,6.396764343463171
116,744.7900000000001,6.31657724606475
117,755.15,6.235262433408816
118,765.66,6.152769050405548
119,774.52,6.083270702422963
120,785.3000000000001,5.998691234794491
121,794.39,5.927358206845994
122,805.44,5.840633006092319
123,814.77,5.767415342188084
124,824.1999999999999,5.693489885385628
125,831.763771,5.633953214328355
126,835.6700000000001,5.610954657275188
127,845.35,5.554445941374084
128,855.1400000000001,5.497052109360467
129,865.04,5.43907886323434
130,875.05,5.380469579995698
131,885.19,5.3211318397149965
132,895.4399999999999,5.261103096321783
133,905.81,5.200284805351283
134,914.19,5.152433385870782
135,924.77,5.112211758140031
136,935.48,5.081069545367219
137,944.14,5.08602102287305
138,954.992586,5.06966737422437
139,955.0699999999999,5.069560538308149
140,963.9100000000001,5.050846546397005
141,975.0699999999999,4.830172982717328
142,984.0899999999999,4.930791471875867
143,995.49,4.870877206289098
144,1004.7,4.890617869354524
145,1013.99,4.822252455117588
146,1025.74,4.607660738832981
147,1035.23,4.637822881340135
148,1044.8,4.744593046544927
149,1054.47,4.690528940121764
150,1064.23,4.575647109233443
151,1074.08,4.572731453879964
152,1084.01,4.457049321224121
153,1094.04,4.480012516940323
154,1096.4782,4.46393376108958
155,1104.17,4.421218906065467
156,1114.3799999999999,4.368859521052126
157,1124.7,4.292493551577327
158,1135.1,4.318135102494198
159,1145.61,4.238064168949613
160,1156.21,4.212761420845652
161,1164.22,4.192867925061435
162,1174.99,4.0331601827897705
163,1185.86,4.082875991007692
164,1194.08,3.9320562612516032
165,1205.1299999999999,3.807178040350778
166,1216.28,3.661883469939537
167,1224.72,3.7728458712605355
168,1236.05,3.85989207173055
169,1244.6200000000001,3.868587418688008
170,1256.13,3.8043659900392752
171,1258.92541,3.773367639651386
172,1264.8400000000001,3.71576801603671
173,1273.6100000000001,3.794197525729684
174,1285.3899999999999,3.7794243748953895
175,1294.3,3.662345858517327
176,1306.28,3.618549299010124
177,1315.3300000000002,3.6830030565610254
178,1324.45,3.6375084010764107
179,1333.63,3.560345562989922
180,1345.97,3.5942199078714845
181,1355.3000000000002,3.5525860132803144
182,1364.69,3.476482836087274
183,1374.15,3.468011745858714
184,1383.6799999999998,3.4467090425946374
185,1396.48,3.3462290875285094
186,1406.1599999999999,3.3347337277597515
187,1415.9099999999999,3.314464454955475
188,1425.72,3.293081199549326
189,1435.61,3.260772000674014
190,1442.2299999999998,3.265825253600752
191,1445.43977,3.2631042415401876
192,1445.56,3.2631240616309194
193,1455.58,3.2291200137752902
194,1465.67,3.172208833449613
195,1475.83,3.148036220653885
196,1486.06,3.133199175388109
197,1496.36,3.1183482976522834
198,1506.73,3.0732725874464077
199,1513.68,3.0111632636343697
200,1517.1699999999998,3.032226344770484
201,1524.18,3.004674793126975
202,1534.74,2.9291131947881093
203,1545.38,2.9431853593406148
204,1556.09,2.8944442914230724
205,1563.27,2.8859880609237294
206,1574.11,2.8904042327046664
207,1585.02,2.8848390720155535
208,1596.01,2.8726802742178137
209,1603.38,2.8436358555854797
210,1614.49,2.820551402124798
211,1625.6799999999998,2.7708599115554886
212,1633.1799999999998,2.782067232621635
213,1644.5000000000002,2.7632858817508037
214,1655.8999999999999,2.7011152937713474
215,1659.58691,2.713912077149212
216,1663.55,2.730446520372254
217,1671.23,2.667718177039238
218,1675.08,2.7145100631288073
219,1686.69,2.7147700679339755
220,1694.4699999999998,2.6733826021617286
221,1706.22,2.6367390155519717
222,1714.1000000000001,2.6053562273404918
223,1725.98,2.584029641559734
224,1733.9399999999998,2.59972721539687
225,1745.96,2.5686546382011866
226,1754.02,2.58642198959909
227,1766.18,2.525353020988482
228,1774.3300000000002,2.5280210421910763
229,1786.6299999999999,2.5152849821655443
230,1794.88,2.5309793809289065
231,1803.16,2.514681902960499
232,1815.66,2.4616461980565028
233,1824.0400000000002,2.455999697648864
234,1836.69,2.4178402090860196
235,1845.16,2.368043078483072
236,1853.68,2.358151886660508
237,1866.5300000000002,2.3493397532191995
238,1875.1499999999999,2.3670812389574043
239,1883.8,2.319378947963839
240,1896.86,2.280684977400144
241,1905.46072,2.289964814888741
242,1905.6200000000001,2.2902064320764937
243,1914.41,2.266052433090271
244,1923.25,2.247539771538711
245,1936.58,2.2402607916198995
246,1945.52,2.2527041049376653
247,1954.5000000000002,2.214791168203162
248,1968.0500000000002,2.2345480129968682
249,1977.13,2.2350450511316913
250,1986.26,2.1992104267011774
251,1995.42,2.176578664731461
252,2004.63,2.175195040196408
253,2013.89,2.1524542530960185
254,2023.18,2.1577358284564268
255,2037.21,2.1206128726228988
256,2046.6100000000001,2.1244615103395654
257,2056.06,2.0937904854908957
258,2065.5499999999997,2.0862919105899564
259,2075.08,2.102542785636747
260,2079.86,2.0777718043905415
261,2084.6600000000003,2.085897098118201
262,2094.28,2.050307060547386
263,2103.95,2.042561960411234
264,2113.66,2.0336843102228124
265,2123.42,2.0292268974690533
266,2133.2200000000003,1.986424834663025
267,2143.06,1.984711521804728
268,2152.96,1.9864474338680258
269,2162.89,1.960834608392122
270,2172.88,1.9439591078378136
271,2182.9100000000003,1.9270867572312356
272,2187.7616199999998,1.930292873145389
273,2192.98,1.9357689394971043
274,2203.11,1.9149948391061038
275,2213.27,1.8873036575688316
276,2223.49,1.8662838137390168
277,2233.75,1.885000461714173
278,2244.06,1.8573543744455434
279,2254.42,1.8343636519331281
280,2264.83,1.8323437941769272
281,2275.28,1.8340395282256974
282,2285.78,1.8377808270306817
283,2296.33,1.8086850905918805
284,2306.9300000000003,1.8039817189092933
285,2317.58,1.7823441119829209
286,2322.93,1.7045384408978417
287,2333.65,1.7486647446301684
288,2344.42,1.7270365131187098
289,2355.2400000000002,1.749027946363465
290,2366.1099999999997,1.7119824443644351
291,2377.03,1.7168731071216183
292,2382.5099999999998,1.6865241844026964
293,2393.51,1.701043730769823
294,2404.56,1.680069541893164
295,2415.66,1.6792221177727191
296,2426.81,1.6928860584084882
297,2432.4,1.674414138153237
298,2443.63,1.6875207623989492
299,2454.91,1.6733702514008755
300,2466.2400000000002,1.6631353051590154
301,2477.62,1.6422460236733705
302,2483.33,1.6496854788330335
303,2494.8,1.6211361539085738
304,2506.31,1.6510428207890855
305,2511.88643,1.6099590668934967
306,2512.09,1.6085014603656482
307,2517.88,1.6130574180230017
308,2523.69,1.5940002649986882
309,2535.33,1.591577848268394
310,2547.04,1.5826035441522646
311,2552.91,1.6044487590829495
312,2564.69,1.5904439675809845
313,2576.53,1.6052199440340185
314,2582.4700000000003,1.6000863715788682
315,2594.39,1.589816205305234
316,2606.3599999999997,1.5705927623274314
317,2612.37,1.5625407024864457
318,2624.43,1.5741837614411407
319,2636.54,1.5782026436916676
320,2642.62,1.6097824964648475
321,2654.82,1.611498480647872
322,2667.07,1.569799388126729
323,2673.2200000000003,1.5840411535140735
324,2685.56,1.5799444629254282
325,2697.9599999999996,1.5527708402917815
326,2704.18,1.5615155182932907
327,2716.6600000000003,1.5345908529329748
328,2722.9199999999996,1.5302990095711502
329,2735.49,1.5443157461433321
330,2748.12,1.4855377506705127
331,2754.45,1.4912061199228528
332,2767.17,1.4999967263825311
333,2773.54,1.5159486742715367
334,2786.3500000000004,1.4879461826637124
335,2792.77,1.4055273538485504
336,2805.66,1.4237106195140576
337,2812.13,1.4960698139947275
338,2825.11,1.5062198815927326
339,2838.1499999999996,1.4848947171457363
340,2844.69,1.4705361242405703
341,2857.8199999999997,1.449812561726072
342,2864.41,1.481547192116739
343,2877.63,1.4759245315347376
344,2884.0315,1.4737631891574325
345,2884.26,1.473726686497264
346,2897.5800000000004,1.4669796548123297
347,2910.95,1.4982309405009508
348,2931.13,1.4757976124677699
349,2951.45,1.4619244130805433
350,2971.91,1.4635769423392706
351,2992.5099999999998,1.4580198002439522
352,3013.25,1.4573746867945876
353,3027.16,1.4540696401176032
354,3048.14,1.448473190061303
355,3069.27,1.444104192125668
356,3090.54,1.4409991228359873
357,3111.97,1.4353294291416827
358,3133.5400000000004,1.421932964093332
359,3148.0000000000005,1.419800108525453
360,3169.8199999999997,1.4166071303448782
361,3191.8,1.3865021277596787
362,3206.53,1.3982439060089973
363,3228.7599999999998,1.3731611902915735
364,3251.1400000000003,1.3929951266948146
365,3273.67,1.4033029152187213
366,3288.78,1.3957530855070581
367,3311.31121,1.387213383710396
368,3311.58,1.3871450364078832
369,3319.21,1.380205205157947
370,3326.8599999999997,1.3897072156347479
371,3334.53,1.403705767838285
372,3342.2200000000003,1.371638861768559
373,3349.93,1.3965112974255702
374,3357.6499999999996,1.3837809039459494
375,3365.39,1.3391999521930655
376,3373.1499999999996,1.3311822421669182
377,3380.92,1.3613680030041393
378,3388.7200000000003,1.3820331764314653
379,3396.5299999999997,1.35831672072216
380,3404.36,1.3762187067395912
381,3412.2000000000003,1.3538966636203909
382,3420.07,1.3717971330912957
383,3427.96,1.371695744288937
384,3435.86,1.377325326349947
385,3443.78,1.3355179501376935
386,3451.72,1.378645315652177
387,3459.67,1.3501744520300287
388,3467.65,1.3472376009979854
389,3475.64,1.3526812208293109
390,3483.6499999999996,1.3497383823873728
391,3491.69,1.3538347565355395
392,3499.7400000000002,1.3175166015470747
393,3507.7999999999997,1.3484705174219787
394,3515.89,1.3212852458869875
395,3523.9900000000002,1.3441481452153647
396,3532.1200000000003,1.3534443571338468
397,3540.26,1.3614949399156977
398,3548.42,1.377241164424285
399,3556.6,1.354217730659609
400,3564.8,1.3579377386216698
401,3568.81,1.3011908548323854
402,3571.5099999999998,1.3990688879418443
403,3574.21,1.2753191210513033
404,3576.91,1.1652924541607623
405,3579.6099999999997,1.5020037872702217
406,3582.3100000000004,1.2496278203796805
407,3585.01,1.1476869534891394
408,3587.71,1.2078789865985986
409,3590.41,1.3050892197080577
410,3593.11,1.3145113528175167
411,3595.81,1.1530541859269758
412,3598.5099999999998,1.119763819036435
413,3601.21,1.3108657521458937
414,3603.9100000000003,1.3364668852553532
415,3606.61,1.2039491183648119
416,3609.31,1.278575051474271
417,3612.0099999999998,1.3243906845837303
418,3614.71,1.2478778176931895
419,3617.41,1.4113616508026485
420,3620.11,1.4374580839121074
421,3622.8100000000004,1.4464065170215663
422,3625.51,1.4173672501310257
423,3628.21,1.4069843832404847
424,3630.91,1.4633418163499439
425,3633.6099999999997,1.3818881494594029
426,3636.31,1.3126423825688618
427,3639.0099999999998,1.3351126156783208
428,3641.71,1.24506344878778
429,3644.4100000000003,1.3776617818972388
430,3647.11,1.3627259150066982
431,3649.81,1.216513948116157
432,3652.5099999999998,1.2091614812256164
433,3655.21,1.2380084143350754
434,3657.91,1.4289524474445345
435,3660.61,1.3829731805539933
436,3663.3100000000004,1.3117956136634525
437,3666.01,1.3347829467729115
438,3668.71,1.3928996798823707
439,3671.41,1.3439977129918297
440,3674.1099999999997,1.317112746101289
441,3676.81,1.275556979210748
442,3679.5099999999998,1.302816912320207
443,3682.21,1.296893345429666
444,3684.9100000000003,1.281885778539125
445,3687.61,1.243310111648584
446,3690.31,1.2933985447580434
447,3693.0099999999998,1.2997831778675022
448,3695.71,1.2837990109769613
449,3698.41,1.4426080440864204
450,3701.11,1.3821446771958794
451,3703.81,1.4733588103053386
452,3706.51,1.2947675434147974
453,3709.21,1.2041941765242565
454,3711.91,1.3348752096337158
455,3714.6099999999997,1.3453529427431747
456,3717.31,1.3681822758526339
457,3720.01,1.5024179089620928
458,3722.71,1.6295657420715521
459,3725.4100000000003,1.623936675181011
460,3728.11,1.8501111082904702
461,3730.81,1.7425112413999293
462,3733.5099999999998,1.5517553745093884
463,3736.21,1.4302246076188472
464,3738.91,1.3529504407283066
465,3741.61,1.3651660738377656
466,3744.31,1.3902861069472245
467,3747.01,1.3262680400566835
468,3749.71,1.3002232731661427
469,3752.41,1.2255702062756018
470,3755.1099999999997,1.321193339385061
471,3757.81,1.5028883724945197
472,3760.51,1.5898945056039788
473,3763.21,1.495077038713438
474,3765.9100000000003,1.377783071822897
475,3768.61,1.331566704932356
476,3771.31,1.3361705380418152
477,3774.0099999999998,1.5530597711512741
478,3776.7099999999996,1.4604685042607333
479,3779.4100000000003,1.6186384373701923
480,3782.11,1.6165279704796514
481,3784.81,1.6733019035891106
482,3787.51,1.5988067366985694
483,3790.21,1.5522458698080288
484,3792.91,1.4358853029174878
485,3795.6099999999997,1.5182954360269467
486,3798.31,1.308308769136406
487,3801.01,1.3352241022458649
488,3801.8939600000003,1.372163459176034
489,3803.71,1.4482125817078033
490,3806.41,1.5559218205790817
491,3809.11,1.61910855945036
492,3811.81,1.5538987983216384
493,3814.5099999999998,1.5866380371929167
494,3817.2099999999996,1.6078159760641952
495,3819.9100000000003,1.7108574149354734
496,3822.61,1.640692753806752
497,3825.31,1.6654610926780304
498,3828.01,1.4656788315493086
499,3830.71,1.3380370704205873
500,3833.41,1.3410111092918655
501,3836.1099999999997,1.326276548163144
502,3838.81,1.3285682870344222
503,3841.51,1.4528656259057007
504,3844.21,1.566750664776979
505,3846.91,1.6188069036482575
506,3849.61,1.7186171425195358
507,3852.31,1.737568481390814
508,3855.0099999999998,1.7898408202620928
509,3857.7099999999996,1.6777381591333709
510,3860.4100000000003,1.6808924980046491
511,3863.11,1.7188018368759277
512,3865.81,1.821915175747206
513,3868.51,1.7686255146184844
514,3871.21,1.7126788534897628
515,3873.91,1.7358681923610413
516,3876.6099999999997,1.6236939312323195
517,3879.3100000000004,1.618373870103598
518,3882.01,1.5106522089748764
519,3884.71,1.3711187478461548
520,3887.41,1.3708971867174333
521,3890.11,1.3161500255887115
522,3892.81,1.3518550644599898
523,3895.5099999999998,1.4770860033312683
524,3898.2099999999996,1.5652629422025468
525,3900.9100000000003,1.625433581073825
526,3903.61,1.6833789199451035
527,3906.31,1.6861732588163818
528,3909.0099999999998,1.7230775976876602
529,3911.71,1.7887059365589386
530,3914.41,1.7660792754302168
531,3917.1099999999997,1.7015156143014953
532,3919.8100000000004,1.8071419531727735
533,3922.51,1.778053292044052
534,3925.21,1.7450856309153304
535,3927.91,1.5772592697866088
536,3930.61,1.4838996086578873
537,3933.31,1.4379349475291656
538,3936.0099999999998,1.4305322864004442
539,3938.7100000000005,1.5475768252717221
540,3941.4100000000003,1.6483206641430006
541,3944.11,1.6881690030142789
542,3946.81,1.7369223418855575
543,3949.5099999999998,1.7220506807568356
544,3952.21,1.7525640196281143
545,3954.91,1.7445873584993927
546,3957.6099999999997,1.6542436973706711
547,3960.3100000000004,1.5458040362419494
548,3963.01,1.4458379751132275
549,3965.71,1.287899513984506
550,3968.41,1.2017927528557846
551,3971.11,1.2405497917270627
552,3973.81,1.2781362305983412
553,3976.5099999999998,1.3882871694696197
554,3979.21,1.602132108340898
555,3981.9100000000003,1.6238127472121762
556,3984.61,1.6632300860834546
557,3987.31,1.713275424954733
558,3990.0099999999998,1.7319407638260116
559,3992.71,1.78471510269729
560,3995.41,1.8257844415685685
561,3998.11,1.7439137804398466
562,4000.8100000000004,1.7953961193111247
563,4003.51,1.8321564581824035
564,4006.21,1.8967077970536819
565,4008.91,1.9515651359249602
566,4011.6099999999997,1.8392474747962386
567,4014.31,1.824878813667517
568,4017.0099999999998,1.9126971525387955
569,4019.71,1.8702514914100736
570,4022.4100000000003,1.845613830281352
571,4025.11,1.8629141691526305
572,4027.81,1.856085508023909
573,4030.5099999999998,1.7762268468951872
574,4033.21,1.8358951857664656
575,4035.91,1.8491735246377439
576,4038.61,1.8784658635090223
577,4041.3100000000004,1.8556962023803005
578,4044.01,1.861147541251579
579,4046.71,1.7949318801228573
580,4049.41,1.8047642189941357
581,4052.1099999999997,1.8354205578654144
582,4054.81,1.8873338967366926
583,4057.5099999999998,1.8476882356079711
584,4060.21,1.7451365744792495
585,4062.9100000000003,1.8178739133505277
586,4065.61,1.8124822522218063
587,4068.31,1.7958165910930846
588,4071.0099999999998,1.7343409299643628
589,4073.71,1.7214082688356411
590,4076.41,1.7941466077069197
591,4079.11,1.7822909465781982
592,4081.81,1.7934152854494763
593,4084.51,1.7103966243207547
594,4087.21,1.675346963192033
595,4089.91,1.6956633020633114
596,4092.6099999999997,1.59777964093459
