,lambda (Angstroms),Total Flux (erg/s/cm^2/Angstrom)
0,100.04,10.305580498598568
1,101.89999999999999,10.276912596292142
2,104.03,10.244083224260557
3,104.712855,10.233558482215711
4,105.96,10.13258781193625
5,107.94,9.972284137060113
6,109.94,9.810361234552072
7,114.07000000000001,9.475990440699116
8,118.08000000000001,9.151335023797868
9,120.22644299999999,8.977555930763572
10,121.11,8.917582153499493
11,125.07000000000001,8.648786590014385
12,127.10000000000001,8.510994926170655
13,127.99,8.450583808565401
14,130.97,8.248308368741927
15,131.87,8.187218507876407
16,134.02,8.041281537441904
17,137.14000000000001,7.829503305111325
18,138.038426,7.768520261988179
19,140.01,7.672863782407937
20,142.94,7.5307075878010705
21,146.95,7.336154148122091
22,151.06,7.136746736429402
23,154.94,6.948498658361437
24,158.489319,6.7762946093571506
25,158.91,6.760864020582621
26,161.87,6.652291251749888
27,166.01999999999998,6.500069610119586
28,169.89000000000001,6.358118470379124
29,173.05,6.242210199740219
30,177.08,6.09439066395842
31,179.95000000000002,5.9891199766338135
32,181.970086,5.915023895232127
33,182.04000000000002,5.913067497855314
34,185.85,5.806452944282113
35,191.06,5.660662532258102
36,194.16,5.573916394176311
37,198.23,5.460027048106958
38,201.91,5.357051926806831
39,205.19,5.265269306916935
40,208.929613,5.160624680210854
41,209.96999999999997,5.1387374291874615
42,215.86,5.014831696586951
43,219.87,4.930473969327691
44,222.93,4.866100404090125
45,227.07000000000002,4.779008892996948
46,230.23,4.712573562958679
47,233.97,4.633987512178321
48,239.88329199999998,4.509651191431826
49,239.97,4.508246475270372
50,246.13,4.4083832187298
51,251.86,4.315526308473879
52,257.14,4.229888996339103
53,260.11,4.181793733319541
54,263.73,4.123137560613879
55,269.25,4.033664310341159
56,274.26,3.952458329499071
57,275.42287,3.9336103799740556
58,278.72,3.8926006340152712
59,283.9,3.828168380878019
60,289.84,3.754262017147656
61,295.90999999999997,3.6787683809395246
62,300.72,3.6189359938620753
63,307.72,3.531871536836059
64,316.227766,3.4260573339276754
65,317.80999999999995,3.4113611707145535
66,328.21999999999997,3.3146558814003706
67,338.19,3.2220341698464416
68,347.67,3.133962795830067
69,357.41,3.0434747667917255
70,363.078055,2.9908212213532552
71,365.73,2.972374432453695
72,375.11,2.9071143146938536
73,384.74,2.8400948860449975
74,394.6,2.7715190642942473
75,404.73,2.701044937167361
76,414.15,2.635501133233278
77,416.86938299999997,2.616578075112343
78,421.85,2.5901122567114605
79,429.7,2.5484011674694167
80,440.72,2.4898546940435153
81,450.99,2.435277986993606
82,460.43,2.38511468879846
83,470.07,2.333890605756384
84,478.630092,2.288406750395944
85,479.90999999999997,2.2831767313679667
86,489.96,2.2420922753034525
87,500.21999999999997,2.2001712868495296
88,506.01,2.1764998435272873
89,511.87000000000006,2.1525801885419082
90,520.19,2.118576185737753
91,529.86,2.079044802015977
92,539.71,2.0387664063318507
93,549.5408739999999,1.9985820030162593
94,549.75,1.997929906190957
95,559.97,1.9660822776964715
96,570.38,1.9336402547522846
97,579.65,1.9047229133063088
98,590.42,1.8711492300574237
99,600.02,1.8411938106988075
100,609.76,1.8107274683772532
101,619.67,1.7799465128007028
102,629.74,1.7485346344665083
103,630.957344,1.7447403714335459
104,639.97,1.7224740382560166
105,650.37,1.6967590418835856
106,657.9,1.6781339092677772
107,665.52,1.6593163167641305
108,674.78,1.6364309993709847
109,685.74,1.6093086228631144
110,695.2800000000001,1.5857588572522494
111,704.96,1.561791393482525
112,716.41,1.5335365631186462
113,724.43596,1.5136989077176262
114,726.38,1.5101322696089465
115,734.7900000000001,1.4947055229710842
116,745.01,1.4759505582613395
117,755.3700000000001,1.4569434867062556
118,764.1199999999999,1.4408122495725708
119,774.75,1.4213929075443335
120,785.53,1.401591250453233
121,794.6300000000001,1.3849200715062
122,805.6800000000001,1.364659172641946
123,815.01,1.3475469885918565
124,824.45,1.3302431124490002
125,831.763771,1.316764781054305
126,835.92,1.3110312071909065
127,845.5899999999999,1.2978650666027325
128,855.39,1.2844239954761443
129,865.29,1.2708687348584684
130,875.31,1.2571468250514877
131,885.4499999999999,1.2432552690552017
132,895.6999999999999,1.2292131492187193
133,903.9899999999999,1.2178404408075545
134,914.46,1.203672491290679
135,925.0400000000001,1.1910824299336076
136,935.7600000000001,1.1788676576890131
137,944.41,1.170592863709933
138,954.992586,1.1590979959928702
139,955.3499999999999,1.1587203596300022
140,964.19,1.1482201872790454
141,975.35,1.1232400268902811
142,984.38,1.1189584318982972
143,995.78,1.1043235634366566
144,1004.99,1.097175964890015
145,1014.2900000000001,1.0845352745660448
146,1026.04,1.060195167081459
147,1035.53,1.0518353551164614
148,1045.1100000000001,1.049030040374135
149,1054.78,1.03573532385448
150,1064.54,1.0181347255574964
151,1074.39,1.0082883854831837
152,1084.33,0.9906682936315427
153,1094.3700000000001,0.9828215309162025
154,1096.4782,0.9798395600516218
155,1104.49,0.9704557868518455
156,1114.71,0.9585170879425716
157,1125.03,0.9449980400615828
158,1135.44,0.9388393601060502
159,1145.94,0.9253844080759741
160,1153.88,0.9180718217218024
161,1164.56,0.9069603655426396
162,1175.34,0.8874419203917617
163,1186.21,0.8826633431663398
164,1194.4299999999998,0.8669918736913665
165,1205.49,0.850647315419686
166,1213.8400000000001,0.8379194262814827
167,1225.07,0.8336576907578875
168,1236.41,0.8291334293654053
169,1244.98,0.8220310884894291
170,1253.61,0.8114621462304238
171,1258.92541,0.8041877140519869
172,1265.21,0.7975693926672043
173,1273.98,0.7971546188242209
174,1285.77,0.7894350073979071
175,1294.68,0.7761527702894714
176,1303.65,0.7690091189244133
177,1315.72,0.7658295809671944
178,1324.84,0.7575311639605803
179,1334.02,0.7471840726973434
180,1346.3600000000001,0.7425748605853235
181,1355.7,0.7343683813044269
182,1365.09,0.7239516701430116
183,1374.56,0.7178877699727664
184,1384.08,0.7107101279220024
185,1393.6799999999998,0.6985532068624084
186,1406.57,0.6891779640646826
187,1416.3200000000002,0.6836943673635323
188,1426.1399999999999,0.6766692640296561
189,1436.03,0.6691254040630534
190,1442.65,0.6654714010823749
191,1445.43977,0.663829733495192
192,1445.98,0.6636396096371331
193,1456.0,0.6573711244578271
194,1466.1,0.6495911025505425
195,1476.26,0.644235028097274
196,1486.49,0.6393808240070245
197,1493.35,0.6362493895828688
198,1503.7,0.6291673904006514
199,1510.65,0.6223617821575198
200,1517.6200000000001,0.6202642197323937
201,1524.62,0.6161859760342757
202,1535.1899999999998,0.6070092208501177
203,1545.83,0.6033672060289782
204,1556.55,0.5962234944798602
205,1563.73,0.5931064531437906
206,1574.5700000000002,0.5897683865027048
207,1585.49,0.5853929931336408
208,1596.48,0.5805691901275956
209,1603.85,0.5757681040625771
210,1614.96,0.5694869159645639
211,1626.16,0.5615633540475751
212,1633.66,0.5596795957995914
213,1644.99,0.5547664916996375
214,1656.39,0.5453611479627024
215,1659.58691,0.5451228696763019
216,1664.04,0.5455203909399811
217,1671.7199999999998,0.537814598798166
218,1675.5700000000002,0.5440324386619696
219,1683.3000000000002,0.5426347311937103
220,1694.97,0.5351085720016555
221,1706.7199999999998,0.5297729502872899
222,1714.6,0.5265312968396982
223,1726.48,0.522056857276578
224,1734.4499999999998,0.5220545722413872
225,1746.48,0.5166394166989345
226,1754.54,0.5169006800761442
227,1766.7,0.5077198366849369
228,1774.8500000000001,0.5069962984745471
229,1783.05,0.5042723949377134
230,1795.41,0.5041604802407297
231,1803.69,0.4995092041815853
232,1816.19,0.4928597425705581
233,1824.5800000000002,0.4897329767932366
234,1833.0,0.4847300238200487
235,1845.71,0.47640272183795623
236,1854.23,0.47522250821188006
237,1867.0800000000002,0.4726862493157441
238,1875.6999999999998,0.4708597350367799
239,1884.35,0.46573562356194903
240,1893.05,0.46299911676067407
241,1905.46072,0.4587358417917406
242,1906.17,0.458564756815332
243,1914.97,0.45618235357447023
244,1923.81,0.4523354763188772
245,1937.15,0.44577265740602534
246,1946.0900000000001,0.45005849011360444
247,1955.07,0.4461680988064523
248,1968.6200000000001,0.44692585381626165
249,1977.71,0.4441749264685987
250,1982.2699999999998,0.4422996287892431
251,1996.01,0.43776031972907936
252,2005.22,0.4346938403372228
253,2014.4799999999998,0.43133637092695243
254,2023.78,0.42816587750195073
255,2033.12,0.4273473500622179
256,2047.2099999999998,0.4263009308731563
257,2056.66,0.42093602739291264
258,2066.15,0.41778951989793767
259,2075.69,0.4204300923845489
260,2085.27,0.42899549085642896
261,2094.9,0.42264797930989495
262,2104.57,0.4177126137486297
263,2114.28,0.41758939417263335
264,2124.04,0.4135959745782231
265,2133.8399999999997,0.4054340909690817
266,2143.69,0.409847527341526
267,2153.59,0.4084963736955564
268,2163.5299999999997,0.4010475260348559
269,2173.5099999999998,0.398610914359424
270,2183.5499999999997,0.4006176366618953
271,2187.7616199999998,0.4003385952305076
272,2193.63,0.4004824025529373
273,2203.75,0.3964003339487325
274,2213.92,0.3864659633553764
275,2224.14,0.3862681707728691
276,2234.41,0.39455548620121067
277,2244.7200000000003,0.3891557280382311
278,2255.08,0.3789956678861005
279,2265.49,0.3767905557448187
280,2275.95,0.3788506016143856
281,2286.45,0.38496141389263155
282,2297.0099999999998,0.37586057578389603
283,2307.61,0.37969972408383945
284,2312.93,0.3726071864381508
285,2323.61,0.35714474755545234
286,2334.33,0.35725510508143304
287,2345.11,0.34786303222043213
288,2355.93,0.3610917757681104
289,2366.8,0.34528292732663735
290,2377.73,0.34925982849818293
291,2383.21,0.3375783564872103
292,2394.21,0.3404496588739442
293,2405.2599999999998,0.3375014992715269
294,2416.3599999999997,0.3391556576799583
295,2427.52,0.3517606257014082
296,2433.11,0.35007200131430294
297,2444.35,0.355066042153111
298,2455.63,0.354823329400598
299,2466.96,0.34788290465893396
300,2472.65,0.3421134362935262
301,2484.06,0.33155295436922017
302,2495.5299999999997,0.33024187205793265
303,2507.05,0.3454336977574939
304,2511.88643,0.3240032974077235
305,2512.83,0.3198679660308707
306,2518.62,0.3158972993795796
307,2524.43,0.31550343379339635
308,2536.08,0.32196013921869143
309,2547.78,0.322116992306756
310,2553.66,0.3409344654484501
311,2565.44,0.32796593279694586
312,2577.29,0.3364139988733191
313,2583.2300000000005,0.33094118521033644
314,2595.15,0.3249589300145869
315,2607.1299999999997,0.31796093801416087
316,2613.14,0.31370612307905554
317,2625.2,0.3242308553390606
318,2637.32,0.3464891607943891
319,2643.4,0.37082884458716114
320,2655.6000000000004,0.39644619430292083
321,2667.86,0.3526919472140039
322,2674.01,0.3643403597346533
323,2686.35,0.37267530690616757
324,2692.54,0.34925766155703253
325,2704.97,0.363799768521532
326,2717.46,0.33866818868135484
327,2723.7200000000003,0.32918634206009706
328,2736.29,0.34100944648035114
329,2742.6,0.304952627521863
330,2755.2599999999998,0.3162056417351021
331,2767.98,0.32943438914366463
332,2774.36,0.3359197089130537
333,2787.1600000000003,0.3052606905820475
334,2793.59,0.2750227480142061
335,2806.48,0.278881249476185
336,2812.9500000000003,0.32355910903855917
337,2825.94,0.3538513558260771
338,2832.4500000000003,0.34999963751866686
339,2845.53,0.3306115340991699
340,2852.0899999999997,0.3015414234545293
341,2865.2499999999995,0.35339448429546355
342,2871.86,0.3750081213135923
343,2884.0315,0.3626845286691206
344,2885.11,0.3616373650930378
345,2891.7599999999998,0.3770065608086044
346,2911.8100000000004,0.4192511584171923
347,2931.99,0.39618376962623497
348,2952.3100000000004,0.3864363954819211
349,2972.7799999999997,0.3963120370304396
350,2993.38,0.3968143921794127
351,3007.2,0.4018151380123647
352,3028.0499999999997,0.4059322193160584
353,3049.04,0.4111656152663956
354,3070.1699999999996,0.4214906258633764
355,3091.45,0.4209464521531894
356,3112.88,0.43848709413583475
357,3127.2499999999995,0.4266060975091719
358,3148.93,0.42506576564653775
359,3170.75,0.43901894843054723
360,3192.7299999999996,0.4088749479535778
361,3207.4700000000003,0.43062639003590125
362,3229.7,0.39487761571365243
363,3252.09,0.45575455813042465
364,3267.1,0.4915017284598464
365,3289.75,0.48388369807752807
366,3311.31121,0.47422568060682235
367,3312.55,0.47370687895312213
368,3320.19,0.47188489072389495
369,3327.84,0.48984539491845147
370,3335.5099999999998,0.5120011839605755
371,3343.2000000000003,0.4784758578502669
372,3350.9100000000003,0.47594061658752584
373,3358.63,0.5067718677485685
374,3366.38,0.46237539618096235
375,3374.14,0.41508251703714005
376,3381.9100000000003,0.4444144303171013
377,3389.71,0.4988647208684139
378,3397.52,0.48050160384351015
379,3405.35,0.5030656716661739
380,3413.21,0.4844020167601889
381,3421.07,0.5073523618542037
382,3428.9599999999996,0.49126618421956997
383,3436.8700000000003,0.48644619143250345
384,3444.79,0.4056482910692209
385,3452.73,0.5076418755535057
386,3460.69,0.47646624488535794
387,3468.6699999999996,0.47805189906477774
388,3476.66,0.46653624566798124
389,3484.68,0.4826902695425359
390,3492.71,0.4655133858408743
391,3500.7599999999998,0.44857938698678024
392,3508.83,0.5033353729802537
393,3516.92,0.45662314382129443
394,3525.03,0.4751606995099027
395,3533.15,0.5095427476222947
396,3541.3,0.5316901730060379
397,3549.46,0.5345371908135649
398,3557.6400000000003,0.4994886934686594
399,3565.84,0.5284859809713213
400,3574.0699999999997,0.4332068457453343
401,3582.2999999999997,0.43826261051934745
402,3590.56,0.4014789525647118
403,3598.8399999999997,0.5085571794576436
404,3607.14,0.47921289119814275
405,3615.4500000000003,0.4816060953624257
406,3619.9199999999996,0.4923397087937549
407,3622.66,0.47696973291049805
408,3625.3999999999996,0.5001824570272411
409,3628.1400000000003,0.5296439811439841
410,3630.88,0.4981844052607274
411,3633.6099999999997,0.4548832369536867
412,3636.35,0.4374748610704299
413,3639.0899999999997,0.526972085187173
414,3641.83,0.5243177093039161
415,3644.5699999999997,0.5222677334206592
416,3647.3100000000004,0.5054638575374023
417,3650.04,0.5282785892303618
418,3652.7799999999997,0.5286819133471049
419,3655.52,0.558192637463848
420,3658.2599999999998,0.5949785615805911
421,3661.0,0.5986361856973342
422,3663.74,0.5813894098140774
423,3666.47,0.5874399415070367
424,3669.21,0.5855798656237798
425,3671.95,0.562323089740523
426,3674.69,0.5126932138572661
427,3677.43,0.5124850379740092
428,3680.1699999999996,0.5405617620907524
429,3682.9,0.5148686937837117
430,3685.64,0.5202908179004548
431,3688.38,0.539792142017198
432,3691.12,0.5275219661339411
433,3693.86,0.5582908902506842
434,3696.6,0.5684013143674274
435,3699.33,0.5425677460603868
436,3702.07,0.5182988701771298
437,3704.81,0.5238684942938729
438,3707.55,0.5241664184106161
439,3710.29,0.5571073425273593
440,3713.0299999999997,0.5772412666441024
441,3715.77,0.5604653907608454
442,3718.5,0.5387509224538048
443,3721.2400000000002,0.541291046570548
444,3723.98,0.5668724706872912
445,3726.7200000000003,0.5628403948040341
446,3729.46,0.5705750189207773
447,3732.2,0.48864654303752053
448,3734.9300000000003,0.4839703747304798
449,3737.67,0.481962698847223
450,3740.4100000000003,0.5056323229639661
451,3743.15,0.49107064708070924
452,3745.89,0.47056947119745235
453,3748.63,0.4592763953141955
454,3751.36,0.49916452700715486
455,3754.1000000000004,0.549326951123898
456,3756.84,0.5288396752406411
457,3759.58,0.5264383993573842
458,3762.32,0.5547541234741273
459,3765.06,0.5255017475908705
460,3767.79,0.5374353792838299
461,3770.53,0.5460838034005729
462,3773.2700000000004,0.5779423275173161
463,3776.01,0.6160637516340592
464,3778.75,0.6041730757508024
465,3781.4900000000002,0.6158649998675454
466,3784.22,0.6036260315605049
467,3786.9599999999996,0.567744955677248
468,3789.7,0.5645281797939912
469,3792.44,0.5498610039107342
470,3795.1800000000003,0.5080827280274773
471,3797.92,0.5150089521442205
472,3800.6600000000003,0.5285495762609635
473,3801.8939600000003,0.5384266041861829
474,3803.39,0.5504321094146454
475,3806.1299999999997,0.5924336633129316
476,3808.87,0.5933429172112176
477,3811.61,0.5609413711095037
478,3814.3500000000004,0.5530011250077898
479,3817.09,0.5414197789060758
480,3819.8199999999997,0.5045220351623974
481,3822.56,0.4896229890606835
482,3825.2999999999997,0.4398455429589696
483,3828.04,0.39983859685725565
484,3830.7799999999997,0.40696175075554175
485,3833.5200000000004,0.41463330465382775
486,3836.25,0.46160636091014934
487,3838.99,0.44245471480843546
488,3841.73,0.5266309687067215
489,3844.47,0.5285314226050076
490,3847.2099999999996,0.5777587765032937
491,3849.95,0.5586774304015798
492,3852.68,0.5313112866579014
493,3855.42,0.5233780405561874
494,3858.16,0.5292498944544736
495,3860.9,0.5228490483527596
496,3863.64,0.5330368022510457
497,3866.3799999999997,0.5751788561493318
498,3869.11,0.5559875124056533
499,3871.85,0.5119597663039394
500,3874.59,0.5533919202022255
501,3877.33,0.5382327741005116
502,3880.0699999999997,0.5277410279987976
503,3882.81,0.5211572818970838
504,3885.5499999999997,0.49501173579536983
505,3888.28,0.5256425920516914
506,3891.02,0.6057418459499775
507,3893.76,0.5884738998482635
508,3896.5,0.5842590537465496
509,3899.24,0.6153231076448358
510,3901.98,0.6251312615431218
511,3904.71,0.6204624177994433
512,3907.4500000000003,0.6463601716977294
513,3910.19,0.6637387255960155
514,3912.93,0.6600508794943016
515,3915.67,0.6232913333925877
516,3918.41,0.5872275872908738
517,3921.1400000000003,0.5808224435471954
518,3923.88,0.5202621974454814
519,3926.62,0.4375392513437675
520,3929.36,0.40247370524205356
521,3932.1,0.39565825914033964
522,3934.84,0.40574071303862574
523,3937.57,0.4402862692949473
524,3940.3100000000004,0.5070163231932333
525,3943.05,0.5622326770915195
526,3945.79,0.5938239309898056
527,3948.53,0.5953096848880917
528,3951.27,0.6451625387863777
529,3954.01,0.6074751926846638
530,3956.7400000000002,0.5943150489409853
531,3959.48,0.5114937028392714
532,3962.2200000000003,0.47077665673755753
533,3964.96,0.4138226106358436
534,3967.7000000000003,0.4097273645341297
535,3970.44,0.45231221843241576
536,3973.1699999999996,0.5254408746887373
537,3975.9100000000003,0.6074661285870233
538,3978.65,0.6779565824853094
539,3981.3900000000003,0.6870617363835955
540,3984.13,0.7063660902818817
541,3986.8700000000003,0.7333743441801677
542,3989.6,0.7547839004364894
543,3992.3399999999997,0.7565646543347754
544,3995.08,0.7484836082330615
545,3997.82,0.7704590621313476
546,4000.5600000000004,0.7628068160296336
547,4003.3,0.7603842699279197
548,4006.0299999999997,0.7839448261842412
549,4008.77,0.7859505800825274
550,4011.5099999999998,0.8224691339808134
551,4014.2499999999995,0.8179377878790995
552,4016.99,0.8382893417773856
553,4019.7300000000005,0.8206065956756716
554,4022.46,0.8300459519319933
555,4025.2,0.8343502058302793
556,4027.94,0.8012033597285654
557,4030.68,0.7765476136268515
558,4033.4199999999996,0.7665406675251376
559,4036.16,0.8052382214234237
560,4038.9,0.8045798753217097
561,4041.63,0.7814251315780313
562,4044.37,0.7928497854763175
563,4047.1099999999997,0.7756871393746034
564,4049.85,0.7825710932728895
565,4052.5899999999997,0.7867558471711756
566,4055.33,0.7612918010694617
567,4058.06,0.7568976573257832
568,4060.8,0.7464829112240694
569,4063.54,0.7383035651223554
570,4066.2799999999997,0.7635123190206415
571,4069.02,0.7713522729189276
572,4071.7599999999998,0.7726761268172138
573,4074.4900000000002,0.7614918830735352
574,4077.23,0.7745262369718213
575,4079.97,0.8017664908701074
576,4082.71,0.8055575447683935
577,4085.45,0.8076475986666796
578,4088.19,0.8202180525649656
579,4090.92,0.7953974088212873
580,4093.66,0.7576113627195733
581,4096.4,0.7283657166178594
582,4099.14,0.7005610705161455
583,4101.88,0.6971684244144315
584,4104.62,0.7103504783127177
585,4107.35,0.7572264345690392
586,4110.09,0.7715120884673252
587,4112.83,0.7781007423656113
588,4115.57,0.7910226962638974
589,4118.31,0.7930635501621834
590,4121.05,0.7929255040604696
591,4123.79,0.7986916579587556
592,4126.52,0.8044335142150771
593,4129.26,0.7787727681133634
