,lambda (Angstroms),Total Flux (erg/s/cm^2/Angstrom)
0,102.02,104.84919446595994
1,103.92,104.55045313540124
2,104.712855,104.4257966703355
3,106.09,103.28814371474279
4,108.07000000000001,101.65252500351731
5,110.08,99.99228954060963
6,113.94,96.80374165263268
7,117.95,93.4912857302447
8,120.22644299999999,91.6144325025439
9,120.97,91.10066573445991
10,124.94,88.3521183797149
11,126.97,86.94649284141454
12,128.14000000000001,86.1364944142907
13,131.13,84.06606568986311
14,132.04,83.43738995421121
15,133.87,82.17023109281237
16,136.98999999999998,80.01183501714881
17,138.038426,79.28592582206817
18,139.86,78.38455880212544
19,143.12,76.79602408807055
20,147.13,74.86434397338952
21,150.9,73.00096802090886
22,155.13,70.9110892533775
23,158.489319,69.25217256855082
24,159.11,69.0206377529304
25,162.07,67.91597802555857
26,165.84,66.51084890792623
27,170.09,64.92418011828764
28,172.85999999999999,63.89100949233497
29,176.89,62.3866506148659
30,180.17,61.161946406156595
31,181.83999999999997,60.53897954105155
32,181.970086,60.49041278732442
33,186.07999999999998,59.320730879720365
34,190.85000000000002,57.963444897470566
35,193.95,57.08220120418454
36,198.01,55.926249472332515
37,202.16000000000003,54.745734108739924
38,204.97000000000003,53.94618341772904
39,208.929613,52.813636724068346
40,210.23,52.53385184664639
41,216.12,51.28149865828465
42,220.14,50.42312385366424
43,223.2,49.76658596208751
44,226.82999999999998,48.9924853877661
45,229.98000000000002,48.402286519966516
46,234.26,47.65121269514679
47,239.88329199999998,46.53542553885999
48,240.27,46.47773778431006
49,245.86,45.50992926826331
50,252.17,44.48649818235008
51,256.86,43.61801262863645
52,259.83,43.191041102937206
53,264.05,42.51192957955308
54,268.96,41.69061073504691
55,273.96,40.85236524430743
56,275.42287,40.60724219025181
57,279.06,40.1377174093472
58,284.24,39.47368643941615
59,290.2,38.68637168714028
60,296.27,37.910829800174746
61,301.09000000000003,37.28356025286438
62,308.1,36.38887295127817
63,316.227766,35.35250902185049
64,318.19,35.165361445294664
65,327.86,34.233986163895615
66,337.82,33.27224049101717
67,348.09,32.281069234143516
68,357.02,31.42395747582981
69,363.078055,30.846409117146013
70,366.17999999999995,30.624547711971246
71,374.71,30.00595962250287
72,385.2,29.235495051398154
73,395.09000000000003,28.53585488283517
74,405.22,27.811013053255497
75,413.71,27.19749055728991
76,416.86938299999997,26.968490289557753
77,422.36999999999995,26.662114106455107
78,430.21999999999997,26.226647929882002
79,441.26,25.622008459771543
80,450.5,25.11059765435301
81,459.93,24.587684629883665
82,469.56,24.057549153781885
83,478.630092,23.562262483290517
84,480.5,23.483569886287164
85,490.56,23.050244514951295
86,499.68,22.669839977318773
87,505.47,22.419064821848128
88,512.5,22.13894472617306
89,519.63,21.83488819499764
90,530.51,21.37059483255884
91,540.37,20.943997832223683
92,549.5408739999999,20.554894285750837
93,550.42,20.52629057001303
94,559.36,20.24741903586396
95,569.76,19.917722690545133
96,580.35,19.57357769103298
97,589.78,19.270806290806394
98,599.37,18.952362497574896
99,610.51,18.578046109608383
100,620.4300000000001,18.28296964330427
101,630.51,17.954605983995258
102,630.957344,17.94045873998876
103,639.28,17.7321404049712
104,649.67,17.464357549043925
105,658.71,17.22895969258747
106,664.8,17.079468334974663
107,675.5999999999999,16.806087239208104
108,685.0,16.55706854289276
109,694.53,16.321745526628384
110,704.1899999999999,16.064553790414962
111,715.63,15.785047434899266
112,724.43596,15.561121565643605
113,725.59,15.539277335820694
114,735.68,15.348354650432041
115,744.2,15.184092495475515
116,754.56,14.987145241795988
117,765.0500000000001,14.77792672190233
118,775.7,14.586893428206675
119,784.68,14.4113273235694
120,795.59,14.208991797445492
121,804.81,14.036109832105216
122,814.13,13.85991570813869
123,825.4499999999999,13.646781211647157
124,831.763771,13.519686623006523
125,835.0100000000001,13.469689627861523
126,844.6800000000001,13.34317816673135
127,854.4599999999999,13.203639331110555
128,864.35,13.065226040999137
129,874.36,12.924039782352493
130,884.49,12.780546955170626
131,894.73,12.635959823498135
132,905.09,12.48848241329042
133,915.57,12.344928214547483
134,924.04,12.300152528769553
135,934.74,12.22638930104537
136,945.5600000000001,12.143897524785961
137,954.3100000000001,12.066623735759173
138,954.992586,12.058426605623245
139,965.36,11.937059211826536
140,974.3000000000001,11.612398366690876
141,985.58,11.590904085580112
142,994.7,11.459007983830983
143,1003.9,11.39987313469809
144,1015.5300000000001,11.243174271283355
145,1024.92,10.991056334614022
146,1034.41,10.933108688714983
147,1043.98,10.915462795432179
148,1056.0700000000002,10.7342622095608
149,1065.84,10.536779397818588
150,1075.7,10.43496090776964
151,1085.6499999999999,10.238166539413957
152,1095.7,10.166469361828566
153,1096.4782,10.154393880787616
154,1105.84,10.032359611360956
155,1116.07,9.906655926805621
156,1123.81,9.778989329693374
157,1134.2,9.717865646748123
158,1144.7,9.579065427409805
159,1155.29,9.46280919647716
160,1165.98,9.338046741550812
161,1174.06,9.146015622859993
162,1184.93,9.10736314474499
163,1195.89,8.928769955035659
164,1204.18,8.792057875958072
165,1215.32,8.616578663060087
166,1223.75,8.60880971039132
167,1235.0700000000002,8.539126174304673
168,1243.63,8.453927960444103
169,1255.1399999999999,8.313351788769435
170,1258.92541,8.261997964939118
171,1263.84,8.211145140248918
172,1275.53,8.158458879288549
173,1284.37,8.093463391359577
174,1296.26,7.945026069133845
175,1305.24,7.871191258319121
176,1314.29,7.842312486061521
177,1326.45,7.729731841127553
178,1335.6499999999999,7.629518922920932
179,1344.9,7.5868200893979685
180,1354.2299999999998,7.501744271368865
181,1363.6100000000001,7.400586538023415
182,1376.23,7.301761032179115
183,1385.77,7.2227931298213806
184,1395.3799999999999,7.08717356602077
185,1405.05,7.006655363840548
186,1414.79,6.9681082002174515
187,1424.6000000000001,6.885983275151477
188,1434.4699999999998,6.811445511705897
189,1441.09,6.763586443822436
190,1445.43977,6.7292376267893275
191,1447.7400000000002,6.716625200807715
192,1454.4299999999998,6.669888136034779
193,1464.51,6.597500496287211
194,1474.66,6.540876445846952
195,1484.88,6.485606384714003
196,1495.17,6.426458612888361
197,1505.54,6.355607243128217
198,1512.49,6.296327310068139
199,1515.97,6.285633149917193
200,1526.48,6.222342258771664
201,1533.53,6.154311553293455
202,1544.16,6.088433915246171
203,1554.8600000000001,6.024059666506194
204,1565.64,5.976970719831713
205,1576.49,5.926600362464541
206,1583.77,5.890779250424632
207,1594.75,5.830985658913889
208,1605.8,5.763564156710456
209,1613.2099999999998,5.719397010526977
210,1624.39,5.650581574179973
211,1635.6499999999999,5.596094139898465
212,1643.2,5.553973972329603
213,1654.59,5.4816439039045255
214,1659.58691,5.45759667037908
215,1666.06,5.437265031095079
216,1673.75,5.38873146759646
217,1677.61,5.396425077075697
218,1685.36,5.367602278491262
219,1693.1299999999999,5.325903434878222
220,1704.87,5.273694303087091
221,1716.6899999999998,5.2171221911815415
222,1724.6100000000001,5.183257959853963
223,1736.5700000000002,5.145433732748177
224,1744.58,5.109839948791879
225,1756.6799999999998,5.068611906485858
226,1764.78,5.0263035699008345
227,1777.02,4.97682461239458
228,1785.2199999999998,4.947687750666533
229,1793.46,4.9218547988812755
230,1805.89,4.871572463603272
231,1814.23,4.82538238667499
232,1826.8000000000002,4.778666636196752
233,1835.23,4.740190106639747
234,1843.71,4.69468521451123
235,1856.49,4.64438364123264
236,1865.05,4.613849668989704
237,1873.66,4.588483634175253
238,1886.65,4.5247511380963115
239,1895.3600000000001,4.485133678138837
240,1904.11,4.458320028124152
241,1905.46072,4.452015017745322
242,1912.8999999999999,4.425055536483246
243,1926.16,4.382000681040962
244,1935.0500000000002,4.36059574575575
245,1943.9799999999998,4.3406112784782565
246,1952.95,4.303970379208476
247,1966.49,4.276864399820202
248,1975.5700000000002,4.253382637571639
249,1984.68,4.220566476328864
250,1993.8500000000001,4.190534117097662
251,2003.0500000000002,4.167269958872246
252,2016.93,4.124110757549555
253,2026.24,4.100180836345358
254,2035.6,4.066987950150805
255,2044.9899999999998,4.044106664962039
256,2054.43,4.004769914782918
257,2063.91,3.980124432611512
258,2073.44,3.9650327854497496
259,2078.2200000000003,3.960557212371762
260,2083.0099999999998,3.9605454062957044
261,2092.62,3.923018795149374
262,2107.13,3.8814717149482014
263,2116.86,3.860086407825018
264,2126.63,3.82751966870955
265,2136.44,3.792047897601798
266,2146.31,3.7753767285056186
267,2156.21,3.7489779604152265
268,2166.17,3.7101986943364067
269,2176.16,3.680494129263375
270,2186.21,3.663867266201916
271,2187.7616199999998,3.659606724505059
272,2196.2999999999997,3.644069192439857
273,2206.44,3.621285575415356
274,2216.62,3.583178771933165
275,2226.85,3.570462110378861
276,2237.13,3.574765990752444
277,2247.46,3.5481695130539146
278,2252.64,3.516175816783016
279,2263.04,3.491336937783528
280,2273.48,3.4772391723263496
281,2283.98,3.482117277182636
282,2294.52,3.4397316955812323
283,2305.11,3.4358769559077147
284,2315.75,3.3978802581620853
285,2326.44,3.3514382023443425
286,2337.1800000000003,3.3347931884544866
287,2342.56,3.3070424598951367
288,2353.38,3.3183257730899
289,2364.24,3.2677989998269736
290,2375.15,3.2576031684919333
291,2386.12,3.2142274074703585
292,2397.13,3.203102859991093
293,2402.66,3.1906637572154044
294,2413.75,3.174902236820757
295,2424.8900000000003,3.1889650583539977
296,2436.08,3.1670963218151265
297,2447.32,3.165418227204141
298,2452.97,3.1615339650553818
299,2464.29,3.1171693975290156
300,2475.6600000000003,3.0825714719305366
301,2487.09,3.0246755166455226
302,2492.82,3.0192518815813814
303,2504.3300000000004,3.0396425533809865
304,2511.88643,2.988588353610558
305,2515.89,2.9635156772824716
306,2527.4999999999995,2.9419641881268563
307,2533.33,2.9625243598084023
308,2545.02,2.9476452026827222
309,2556.77,3.0108339445794927
310,2562.66,2.9560182152834917
311,2574.49,2.9775442892101984
312,2586.37,2.9405968956556143
313,2592.34,2.918138498389548
314,2604.2999999999997,2.8839225368649
315,2616.3199999999997,2.8559118743627034
316,2622.35,2.881575176119089
317,2634.46,2.97729821215057
318,2646.62,3.0430268807007597
319,2652.7200000000003,3.1992767479833386
320,2664.96,2.9740988485634645
321,2677.27,2.997492214669784
322,2683.44,3.0550133474785564
323,2695.8199999999997,2.91119857911107
324,2702.04,2.981073744438552
325,2714.5099999999998,2.8544742746047422
326,2727.04,2.7664343037933836
327,2733.33,2.81827183464706
328,2745.94,2.699066895865637
329,2752.27,2.7416643927342808
330,2764.98,2.7873034189902772
331,2777.7400000000002,2.782920177764983
332,2784.14,2.664604440159821
333,2796.99,2.562225897468205
334,2803.4399999999996,2.5684005923817517
335,2816.38,2.690790248223812
336,2822.87,2.7906850091523268
337,2835.9,2.7412122635280647
338,2842.44,2.622574556975289
339,2855.56,2.514103609884705
340,2862.1400000000003,2.689728269346896
341,2875.35,2.82690132078999
342,2881.98,2.773789312770892
343,2884.0315,2.7909824266333843
344,2895.29,2.8901107113812694
345,2908.6499999999996,3.0988967744281
346,2928.81,2.963869046810143
347,2949.1099999999997,2.875609309972618
348,2969.56,2.87645987039984
349,2990.14,2.864336815123176
350,3010.87,2.8268951571112595
351,3031.74,2.868181789879774
352,3052.75,2.872758113428719
353,3066.84,2.954435249830653
354,3088.1,2.8994253354875106
355,3109.5099999999998,3.0469006184091154
356,3131.06,2.9328712921111513
357,3152.76,2.920495663077934
358,3167.32,3.0057932042427433
359,3189.27,2.8328766373174386
360,3211.3799999999997,2.8954513741411985
361,3233.64,2.7149190082297046
362,3248.56,3.0586288828299075
363,3271.08,3.240753085510643
364,3293.76,3.190173191940441
365,3308.96,3.062267048101506
366,3311.31121,3.0502402319497315
367,3324.23,2.9879996581999597
368,3331.8999999999996,2.999447731822565
369,3339.58,2.840899585202175
370,3347.27,3.14099321833879
371,3354.99,3.1080531907464195
372,3362.73,2.6807394226680574
373,3370.48,2.8261203343467005
374,3378.25,3.017874905539353
375,3386.04,2.9685293362460152
376,3393.84,3.0124985467096814
377,3401.6600000000003,3.2063293166873574
378,3409.51,2.9667374259360475
379,3417.3700000000003,2.7667298149417423
380,3425.24,3.021143983704442
381,3433.14,3.2071099917381556
382,3441.0499999999997,2.875456779528874
383,3448.9900000000002,2.798913906590606
384,3456.94,2.9337798134093434
385,3464.91,2.7378234797420897
386,3472.8900000000003,3.0454235258318407
387,3480.9,2.7557609111926062
388,3488.9199999999996,2.911428476310377
389,3496.97,2.800824180699161
390,3505.03,3.104776664844949
391,3513.1099999999997,2.9145327085047477
392,3521.21,3.144433311678555
393,3529.32,2.6598244946093677
394,3537.46,3.048213416811194
395,3545.61,3.053259918770025
396,3553.79,3.10236075999987
397,3561.98,2.94124038098672
398,3570.1899999999996,2.65152766148758
399,3574.56,2.853264315298634
400,3576.5099999999998,2.8161353679145504
401,3578.4700000000003,2.800208200287472
402,3580.43,2.7163190326603934
403,3582.39,2.695065865033315
404,3584.35,2.642953297406236
405,3586.3,2.6961027500221526
406,3588.2599999999998,2.750157582395074
407,3590.2200000000003,2.8119264147679957
408,3592.18,2.8245612471409167
409,3594.1299999999997,2.7865142997568335
410,3596.09,2.889336132129755
411,3598.0499999999997,2.927042964502676
412,3600.01,3.0269247968755972
413,3601.96,2.977214849491514
414,3603.92,2.947419681864435
415,3605.88,2.938747514237357
416,3607.84,2.8779103466102782
417,3609.79,2.908376399226195
418,3611.7500000000005,2.9667472315991157
419,3613.71,2.9847080639720374
420,3615.67,2.980352896344959
421,3617.62,3.0798819489608755
422,3619.58,3.1624067813337966
423,3621.54,3.180827613706718
424,3623.5,3.10511144607964
425,3625.4500000000003,3.073219498695556
426,3627.41,3.062159331068478
427,3629.37,3.004260163441399
428,3631.33,2.98842399581432
429,3633.2799999999997,3.040565048430237
430,3635.2400000000002,2.9194798808031583
431,3637.2,2.92715571317608
432,3639.1600000000003,2.9547595455490008
433,3641.12,3.0933063779219223
434,3643.0699999999997,3.123773430537839
435,3645.03,3.16386826291076
436,3646.99,3.091918095283682
437,3648.9500000000003,3.012895927656603
438,3650.9,3.0466689802725195
439,3652.86,3.217084812645441
440,3654.8199999999997,3.397601645018363
441,3656.78,3.377357477391284
442,3658.73,3.4758785300072006
443,3660.6899999999996,3.5395763623801217
444,3662.65,3.6617751947530426
445,3664.6099999999997,3.4788810271259645
446,3666.56,3.4238460797418813
447,3668.52,3.2134929121148024
448,3670.48,3.2834347444877237
449,3672.44,3.296987576860645
450,3674.3900000000003,3.3024746294765617
451,3676.35,3.319792461849483
452,3678.3100000000004,3.321773294222404
453,3680.27,3.3860211265953257
454,3682.22,3.2397881792112426
455,3684.1800000000003,3.0916110115841633
456,3686.14,3.0424368439570855
457,3688.1000000000004,3.1781366763300065
458,3690.05,3.372630728945923
459,3692.01,3.4113475613188444
460,3693.97,3.356754393691766
461,3695.93,3.2945392260646873
462,3697.89,3.266580058437609
463,3699.8399999999997,3.3674891110535254
464,3701.8,3.2237189434264466
465,3703.7599999999998,3.2709767757993684
466,3705.7200000000003,3.209312608172289
467,3707.67,3.3203236607882056
468,3709.6299999999997,3.3474684931611276
469,3711.59,3.3281423255340483
470,3713.5499999999997,3.32433715790697
471,3715.5,3.207585210522887
472,3717.46,3.1998310428958083
473,3719.42,3.1680148752687294
474,3721.38,3.1710057076416507
475,3723.3300000000004,3.167675760257567
476,3725.29,3.118960592630489
477,3727.2499999999995,3.0808074250034103
478,3729.21,2.9669782573763315
479,3731.16,2.950147309992248
480,3733.12,2.9742611423651697
481,3735.08,2.924168974738091
482,3737.04,2.8396378071110124
483,3738.99,2.7688028597269287
484,3740.9500000000003,2.87070669209985
485,3742.91,2.9749065244727717
486,3744.8700000000003,2.976428356845693
487,3746.83,2.9301011892186146
488,3748.7799999999997,2.856788241834531
489,3750.7400000000002,2.929210074207452
490,3752.7,2.973621906580374
491,3754.6600000000003,2.9476837389532946
492,3756.61,2.8859417915692114
493,3758.57,2.9592826239421326
494,3760.53,3.050532456315054
495,3762.49,3.0404822886879757
496,3764.44,3.0293453413038924
497,3766.3999999999996,3.0854201736768143
498,3768.36,3.2601520060497347
499,3770.3199999999997,3.2996958384226565
500,3772.27,3.326305891038573
501,3774.23,3.3288377234114943
502,3776.1899999999996,3.358186555784416
503,3778.15,3.498753388157337
504,3780.1,3.510853440773254
505,3782.06,3.592000273146175
506,3784.02,3.4761501055190966
507,3785.98,3.3641569378920178
508,3787.93,3.1639229905079347
509,3789.8900000000003,3.0635938228808555
510,3791.85,3.0641046552537774
511,3793.8100000000004,3.0631474876266984
512,3795.76,3.067071540242615
513,3797.72,3.0323173726155366
514,3799.68,3.022726204988458
515,3801.64,3.0368300373613795
516,3801.8939600000003,3.0482606774988628
517,3803.6,3.1254061291060813
518,3805.5499999999997,3.1780475284049428
519,3807.51,3.1808978015463625
520,3809.47,3.127267074687783
521,3811.4300000000003,3.0282663478292022
522,3813.38,2.9298307471280642
523,3815.3399999999997,2.8882310202694845
524,3817.3,2.8886942934109046
525,3819.2599999999998,2.8409405665523244
526,3821.21,2.738095965851186
527,3823.17,2.6545252389926057
528,3825.13,2.6675705121340263
529,3827.09,2.622113785275446
530,3829.0400000000004,2.6515181845743077
531,3831.0,2.6205714577157275
532,3832.96,2.6726497308571475
533,3834.92,2.694879003998568
534,3836.87,2.67790340329743
535,3838.83,2.7188676764388497
536,3840.79,2.7396279495802696
537,3842.75,2.7289782227216897
538,3844.7,2.7680256220205512
539,3846.66,2.833144895161971
540,3848.62,2.8856811683033916
541,3850.58,2.8383874414448114
542,3852.53,2.793401840743673
543,3854.49,2.759149113885093
544,3856.4500000000003,2.8632993870265127
545,3858.41,2.9342956601679333
546,3860.3700000000003,3.011444933309353
547,3862.32,2.902814332608215
548,3864.2799999999997,2.825488605749635
549,3866.2400000000002,2.8360538788910548
550,3868.2,2.867926152032475
551,3870.15,2.8414005513313363
552,3872.11,2.7814328244727564
553,3874.07,2.8190910976141765
554,3876.0299999999997,2.9334353707555962
555,3877.9799999999996,2.9956277700544582
556,3879.94,2.956048043195878
557,3881.8999999999996,2.9294183163372987
558,3883.86,2.9318095894787177
559,3885.81,2.94578598877758
560,3887.77,2.980046261919
561,3889.73,3.16813853506042
562,3891.69,3.28404380820184
563,3893.64,3.4046472075007017
564,3895.6000000000004,3.4354164806421217
565,3897.56,3.516055753783542
566,3899.52,3.525151026924962
567,3901.4700000000003,3.4638204262238235
568,3903.43,3.4802626993652437
569,3905.3900000000003,3.524072972506663
570,3907.35,3.5553932456480837
571,3909.3,3.573229644946945
572,3911.2599999999998,3.565425918088365
573,3913.2200000000003,3.6016141912297854
574,3915.18,3.5740644643712054
575,3917.14,3.520524737512625
576,3919.09,3.4669081368114867
577,3921.0499999999997,3.354407409952907
578,3923.01,3.2341926830943266
579,3924.97,3.067138956235747
580,3926.92,3.0053473555346084
581,3928.88,2.8551926286760283
582,3930.8399999999997,2.707884901817449
583,3932.8,2.5737111749588686
584,3934.75,2.5987985742577306
585,3936.71,2.73536884739915
586,3938.67,2.82353912054057
587,3940.63,2.9239243936819905
588,3942.58,3.000167792980852
589,3944.5400000000004,3.196617066122272
590,3946.5,3.309032339263692
591,3948.4599999999996,3.417590612405112
592,3950.41,3.4141190117039737
593,3952.37,3.500543284845394
594,3954.33,3.509087557986814
595,3956.29,3.475293831128234
596,3958.2400000000002,3.3618892304270953
597,3960.2,3.218897503568516
598,3962.1600000000003,3.1533267767099353
599,3964.12,2.9905900498513556
600,3966.0699999999997,2.9625954491502178
601,3968.03,2.883340722291637
602,3969.99,2.8726919954330574
603,3971.9500000000003,2.8268672685744773
604,3973.91,2.9160475417158973
605,3975.86,3.1834099410147587
606,3977.82,3.523681214156179
