,lambda (Angstroms),Total Flux (erg/s/cm^2/Angstrom)
0,100.09,5.375209102523273
1,101.96000000000001,5.36017496266627
2,104.09,5.3430505054137765
3,104.712855,5.3380429750870695
4,106.03,5.282418372209509
5,108.0,5.199222948044533
6,110.0,5.1147606720396706
7,113.86999999999999,4.9513261120685845
8,117.87,4.7824015604167585
9,120.22644299999999,4.682888646919391
10,120.9,4.659041117481412
11,125.14000000000001,4.508919154315794
12,126.88,4.447312586016362
13,128.06,4.405533439519746
14,131.04,4.3000232532497185
15,131.95,4.267804972191015
16,134.09,4.192036000711712
17,136.9,4.092547086649627
18,138.038426,4.052240082128979
19,140.09,4.0003200600717825
20,143.02,3.9261976073415608
21,147.03,3.824788226768799
22,151.15,3.7205326469324453
23,155.03,3.622353778016656
24,158.489319,3.5348214396972373
25,159.0,3.5250527922684185
26,161.95999999999998,3.4684315591845607
27,166.11999999999998,3.3888597157829223
28,169.98,3.31502550338573
29,173.14,3.2545814828989084
30,177.18,3.177304496979048
31,180.06,3.1222181468163757
32,181.970086,3.0856834781104516
33,182.14000000000001,3.083204292677512
34,185.96,3.027468829505263
35,191.17,2.951451410278191
36,193.82,2.9127930249513687
37,197.88,2.853556409441597
38,202.03,2.7930099545052527
39,204.83999999999997,2.7520161804534156
40,208.929613,2.692333088895266
41,210.09,2.6796023763970496
42,215.98,2.615034240827601
43,219.99,2.5710639004504374
44,223.04999999999998,2.5375019345651215
45,227.20000000000002,2.492000217448107
46,229.83,2.463481964078048
47,234.1,2.4173363999125903
48,239.88329199999998,2.354286747759355
49,240.11,2.352385876733108
50,246.26999999999998,2.300219941466725
51,252.01000000000002,2.251845351923049
52,257.28000000000003,2.2069608201643085
53,260.26,2.1820619356555713
54,263.88,2.1515790689503262
55,268.79,2.1100832722396214
56,273.78,2.067900678629353
57,275.42287,2.0540143807196527
58,278.87,2.0316566787268955
59,284.06,1.9979948818305455
60,290.01,1.9592850647605482
61,296.08,1.9199549752420804
62,300.89,1.8887317024325534
63,307.90000000000003,1.8432855880677326
64,316.227766,1.7892979525041866
65,317.99,1.7807683984708542
66,327.65000000000003,1.7339587597130732
67,338.38,1.6819388450939228
68,347.85999999999996,1.6359727103688955
69,356.79,1.5926724990772816
70,363.078055,1.5621950073070905
71,365.94,1.5518071709712626
72,375.33,1.5176957075731252
73,384.95,1.4826769787616154
74,394.83,1.4468597708741187
75,404.96,1.410073674798173
76,414.39,1.3758066838498841
77,416.86938299999997,1.366791766270908
78,422.09000000000003,1.3522890089724886
79,429.94,1.3304940679773587
80,440.96999999999997,1.2998888192084055
81,451.23999999999995,1.271364978379108
82,459.63,1.2480643506110647
83,470.34,1.2183326594482822
84,478.630092,1.1953290994154018
85,480.19,1.1919992018994214
86,490.24,1.1705032625656369
87,500.51,1.148591688083252
88,506.3,1.1362043387178178
89,512.16,1.1237662208505563
90,520.49,1.1059721501331008
91,530.16,1.0852987282378077
92,540.02,1.0641995861232687
93,549.5408739999999,1.0438666647097805
94,550.06,1.0430205047487275
95,560.2900000000001,1.0263854692300287
96,569.39,1.0115841248605122
97,579.97,0.9943161904814476
98,589.4,0.9789655706435858
99,600.36,0.961061837816124
100,610.11,0.9450158757059273
101,620.03,0.9290602632635531
102,630.0999999999999,0.912638377881022
103,630.957344,0.9112426047930079
104,640.3399999999999,0.8991304459281989
105,650.7400000000001,0.885690387173571
106,658.28,0.8759274674764662
107,664.37,0.8680896399903428
108,675.1600000000001,0.8541549986824167
109,684.5600000000001,0.8419599720388109
110,695.6800000000001,0.8276639557242476
111,705.36,0.8150958795295559
112,716.8199999999999,0.8003705561172452
113,724.43596,0.7905346752905221
114,726.79,0.7882766981057966
115,735.21,0.7802040463165683
116,745.43,0.770408779795676
117,755.8,0.7604700174638116
118,764.56,0.7519764483030468
119,775.19,0.7418949150988309
120,784.17,0.733270592815307
121,795.0799999999999,0.7228348963639435
122,804.28,0.7140261589576608
123,815.4699999999999,0.7033030652591495
124,824.92,0.6942712001679133
125,831.763771,0.6876132902474442
126,834.4699999999999,0.6856346431678076
127,844.13,0.6788418014995841
128,855.87,0.6704270242547657
129,865.78,0.6633497601085862
130,875.8100000000001,0.6561899733329876
131,885.9499999999999,0.6489549051470883
132,894.15,0.6430981684701284
133,904.5,0.635664521682746
134,914.9699999999999,0.6285949182659447
135,925.57,0.6266400310006063
136,934.13,0.6282996964353895
137,944.9499999999999,0.6334209413494498
138,954.992586,0.637039057690113
139,955.89,0.6373762439985029
140,964.74,0.6343276353009801
141,975.91,0.5909489653460276
142,984.9399999999999,0.610798677369911
143,994.05,0.6080059769366417
144,1005.5600000000001,0.61969882278879
145,1014.8699999999999,0.6120159187126389
146,1024.26,0.574240167179335
147,1036.12,0.5787292541564402
148,1045.71,0.6093735189802543
149,1055.38,0.6009079663469156
150,1065.15,0.5764381268921364
151,1075.0,0.5815174799802041
152,1084.95,0.558289976246831
153,1094.99,0.571190575374161
154,1096.4782,0.5697021699919883
155,1105.12,0.5621555468421545
156,1115.35,0.5526372335399086
157,1125.67,0.5393287712350033
158,1136.08,0.5516614899274394
159,1143.96,0.5394278616946242
160,1154.54,0.5385262133820374
161,1165.22,0.5342732450664961
162,1176.01,0.503019445747705
163,1184.1599999999999,0.5208853705069127
164,1195.1100000000001,0.4894134651833942
165,1206.17,0.46842271885662584
166,1214.53,0.4548744326096291
167,1225.77,0.4732646282775427
168,1234.27,0.4957380180264096
169,1245.69,0.4968636556890049
170,1254.32,0.48707927243403115
171,1258.92541,0.4795060103476271
172,1265.93,0.46914005226855865
173,1274.7,0.48777057832666987
174,1283.54,0.48873883564180154
175,1295.4199999999998,0.46116428040467067
176,1304.4,0.4562148402338426
177,1316.46,0.4721425153719067
178,1325.5900000000001,0.46398292218040793
179,1334.7800000000002,0.4483840357806408
180,1344.03,0.46191551617260546
181,1356.4699999999998,0.4533520109916368
182,1365.87,0.4387898183629305
183,1375.34,0.43944984699124445
184,1384.87,0.43630735241129015
185,1394.4699999999998,0.4211826890883561
186,1404.14,0.41987707702244215
187,1413.8700000000001,0.4170916717482601
188,1423.6699999999998,0.4158806177310983
189,1433.5400000000002,0.4109679049709566
190,1443.48,0.4117968434678353
191,1445.43977,0.41199873665682185
192,1446.8,0.41230668884197685
193,1453.48,0.407592828862371
194,1463.5600000000002,0.39750359338416325
195,1473.7,0.3944433273971567
196,1483.92,0.39339545739841836
197,1494.2,0.39220177689088115
198,1504.5600000000002,0.3846442323716121
199,1511.5,0.3735612868538779
200,1518.48,0.37666423433027774
201,1525.49,0.37297301655227816
202,1536.06,0.36065706525221314
203,1546.71,0.3660191999404163
204,1553.85,0.35935778939335256
205,1564.62,0.3567091330639581
206,1575.47,0.35933411272283167
207,1586.39,0.36049033012143994
208,1593.71,0.36089034804797965
209,1604.76,0.3557419426775238
210,1615.88,0.35224407504680266
211,1623.3400000000001,0.3447694084528116
212,1634.59,0.34690884805302624
213,1645.9199999999998,0.3463396836415092
214,1653.52,0.3357058525269874
215,1659.58691,0.33864022145023864
216,1664.98,0.3417094867067045
217,1672.67,0.3281413958878848
218,1676.52,0.34415341681734446
219,1684.26,0.3472721593872191
220,1695.94,0.3370758569862031
221,1703.76,0.3326098809779886
222,1715.57,0.32843511338757775
223,1723.49,0.3268531641567518
224,1735.44,0.3311216940546849
225,1743.45,0.32706247892350865
226,1755.53,0.3322760636320469
227,1763.6399999999999,0.3198206252782593
228,1775.86,0.32233823747514145
229,1784.0600000000002,0.3210556732210035
230,1796.43,0.32820150558396854
231,1804.72,0.3237930454294803
232,1813.05,0.3167038359859475
233,1825.6200000000001,0.31437309190368967
234,1834.0400000000002,0.3079427165598065
235,1846.75,0.2982689799658927
236,1855.28,0.29907445407713695
237,1863.84,0.30147734622159783
238,1876.76,0.3032571758602
239,1885.4299999999998,0.29649316745978826
240,1894.1299999999999,0.2942541170925932
241,1902.8700000000001,0.29436405743635335
242,1905.46072,0.2936461101838631
243,1916.06,0.2912744407895253
244,1924.9099999999999,0.28815139153846264
245,1933.79,0.2831682212729896
246,1947.19,0.29105543150301905
247,1956.1799999999998,0.28608434085137463
248,1965.21,0.29301542551384974
249,1974.28,0.2922573654904443
250,1983.3999999999999,0.2873800271096882
251,1997.14,0.2830338425097333
252,2006.3600000000001,0.28168413741427595
253,2015.62,0.27755417763293816
254,2024.93,0.2775668694942496
255,2034.27,0.27568140034115074
256,2043.6599999999999,0.2791076828307013
257,2053.1,0.2734438069629011
258,2067.33,0.27049805246090997
259,2072.09,0.2779409248411294
260,2076.87,0.2781948198784086
261,2086.46,0.2793348289385565
262,2096.0899999999997,0.272730093312824
263,2105.76,0.2689292930012108
264,2115.48,0.26896728433224715
265,2125.25,0.2686481973059328
266,2135.06,0.25805186559373794
267,2144.91,0.2630126491956626
268,2154.81,0.2639492944402366
269,2164.76,0.2577941213274599
270,2174.75,0.2558134435288028
271,2184.79,0.255922997372795
272,2187.7616199999998,0.25672535221281756
273,2194.87,0.25898118615077165
274,2205.0,0.2548536281007161
275,2215.18,0.24663662882632653
276,2225.41,0.24432602832760303
277,2235.68,0.2527228668494124
278,2246.0,0.24675955414688786
279,2256.37,0.23951715022002934
280,2266.7799999999997,0.23959161531370368
281,2277.2400000000002,0.24197998918304406
282,2282.4900000000002,0.2464634906279807
283,2293.03,0.2390907525383868
284,2303.61,0.2404068334693258
285,2314.25,0.23432659293106403
286,2324.93,0.2149928814133351
287,2335.66,0.22289455867127225
288,2346.44,0.21628049470487545
289,2357.27,0.22730899951414474
290,2362.7000000000003,0.21522067655147917
291,2373.6099999999997,0.21913648940181424
292,2384.57,0.2086927410278152
293,2395.5699999999997,0.21321208167434916
294,2406.6299999999997,0.21002389085168233
295,2417.74,0.21173474880468154
296,2423.31,0.22103453241388094
297,2434.5,0.21772635840794588
298,2445.73,0.22217616342254365
299,2457.02,0.2209512669679407
300,2462.69,0.2183644081284723
301,2474.06,0.21322777971493506
302,2485.47,0.21055878032193065
303,2496.95,0.20682139921485876
304,2502.7,0.219056208416456
305,2511.88643,0.20549245797845814
306,2514.2599999999998,0.2020478010046813
307,2520.0499999999997,0.20074471528624946
308,2525.8599999999997,0.1982189739349387
309,2537.52,0.20092945996655948
310,2543.37,0.200650227349491
311,2555.1099999999997,0.21114995084959634
312,2566.8999999999996,0.2046171252675045
313,2572.82,0.21134344793535995
314,2584.7,0.20830626200531327
315,2596.6299999999997,0.20473571699306936
316,2602.61,0.2005549027622882
317,2614.6200000000003,0.19723222521852884
318,2626.69,0.20460530077613287
319,2632.75,0.2148014840138363
320,2644.9,0.22879630703992487
321,2657.1099999999997,0.24044513316737687
322,2663.2299999999996,0.21691891950644368
323,2675.5299999999997,0.22356367528594073
324,2687.88,0.2262908619832406
325,2694.07,0.2142315936072314
326,2706.5099999999998,0.22165005995657644
327,2712.75,0.20909078249837004
328,2725.27,0.2045572563161996
329,2737.85,0.21177926323539253
330,2744.16,0.19006588106211014
331,2756.83,0.19552756763334816
332,2763.1800000000003,0.20261747419430798
333,2775.94,0.20709052041759113
334,2782.33,0.19206140571279326
335,2795.18,0.16852259158812152
336,2808.08,0.17276807838125258
337,2814.55,0.2011568511449392
338,2827.54,0.2152588575901154
339,2834.06,0.2112694412716049
340,2847.1400000000003,0.2014431873688261
341,2853.71,0.19002656196811848
342,2866.88,0.21214737771738484
343,2873.4900000000002,0.22128816105091942
344,2884.0315,0.2174657506661476
345,2886.75,0.21653892743579184
346,2893.3999999999996,0.22227302212842806
347,2906.7599999999998,0.2450417650597994
348,2926.91,0.23317819762470463
349,2947.2,0.22751843513050743
350,2967.63,0.23160957757720782
351,2988.2,0.23203822496480583
352,3008.9100000000003,0.2327529772933014
353,3029.77,0.23519631348704448
354,3050.77,0.23627375462168512
355,3071.92,0.2421998796215732
356,3093.21,0.24155880956235887
357,3107.49,0.2501668135339145
358,3129.0299999999997,0.24309361658344592
359,3150.7200000000003,0.24372900349822474
360,3172.56,0.249319274278251
361,3187.2,0.23343501952640053
362,3209.2900000000004,0.24308556341517248
363,3231.54,0.22643717009354175
364,3246.46,0.25511382522348647
365,3268.96,0.2715126050106014
366,3291.62,0.26818274758731364
367,3306.81,0.2625007336747038
368,3311.31121,0.26141626610399143
369,3322.0699999999997,0.25898769376775516
370,3329.73,0.27164337322418947
371,3337.4100000000003,0.26274671450688075
372,3345.1,0.2629263867027006
373,3352.81,0.25224052072477743
374,3360.5400000000004,0.2668068165731112
375,3368.29,0.2662038742477021
376,3376.0499999999997,0.2390636628354214
377,3383.84,0.23917564416252626
378,3391.6400000000003,0.2683651564027596
379,3399.46,0.27222793046925
380,3407.29,0.2627852354488689
381,3415.15,0.2606271331678732
382,3423.02,0.2830971618000061
383,3430.91,0.270565952258396
384,3438.82,0.272840304543043
385,3446.75,0.22795901865394685
386,3454.69,0.2682947636779793
387,3462.6600000000003,0.2427534014413972
388,3470.64,0.2598880701179437
389,3478.64,0.2341313006207471
390,3486.66,0.25295099294980755
391,3494.6899999999996,0.24255321619199655
392,3502.75,0.270729232173571
393,3510.83,0.2688505099814025
394,3518.9199999999996,0.25471091870236245
395,3527.0299999999997,0.24412878924957948
396,3535.16,0.26696052162305345
397,3543.31,0.2853523158227845
398,3551.48,0.28198227184877245
399,3559.6699999999996,0.27345028970101753
400,3567.8700000000003,0.26282063846639103
401,3576.1,0.2427513799711501
402,3584.3399999999997,0.22020165238903766
403,3592.6000000000004,0.2366378866331822
404,3600.89,0.28341911361671224
405,3609.19,0.25533297151337087
406,3617.5099999999998,0.26809489123628644
407,3625.85,0.274307372785459
408,3633.65,0.2535452850256924
409,3636.4,0.25431768613603106
410,3639.15,0.26692398724636973
411,3641.89,0.27393625744357997
412,3644.6400000000003,0.27549835855391863
413,3647.39,0.27818285966425726
414,3650.1299999999997,0.2707835298614675
415,3652.88,0.28583783097180615
416,3655.62,0.27879940116901636
417,3658.3700000000003,0.294130102279355
418,3661.12,0.2853474033896937
419,3663.8599999999997,0.2992185735869039
420,3666.61,0.30291277469724254
421,3669.3599999999997,0.2940453758075813
422,3672.1,0.29531004600479144
423,3674.85,0.2948188471151301
424,3677.59,0.2821682173123403
425,3680.3399999999997,0.277119518422679
426,3683.09,0.2838088195330177
427,3685.83,0.28584618973022785
428,3688.5800000000004,0.26757599084056655
429,3691.33,0.28334099195090523
430,3694.0699999999997,0.29154346214811544
431,3696.82,0.29580736325845414
432,3699.56,0.29660383345566427
433,3702.31,0.302864434566003
434,3705.06,0.29937813567634164
435,3707.8,0.2692981058735518
436,3710.55,0.2684912069838905
437,3713.2999999999997,0.2781813080942292
438,3716.04,0.3051949782914394
439,3718.79,0.28862267940177805
440,3721.54,0.29367618051211675
441,3724.2799999999997,0.3010720507093269
442,3727.03,0.3139208518196656
443,3729.77,0.3471731220168758
444,3732.5199999999995,0.3449277231272145
445,3735.27,0.30992202423755316
446,3738.0099999999998,0.2802142944347633
447,3740.76,0.252688095545102
448,3743.5099999999998,0.2702579966554407
449,3746.25,0.2618151668526509
450,3749.0,0.25391236796298955
451,3751.7400000000002,0.25028083816019975
452,3754.49,0.2695938392705384
453,3757.2400000000002,0.2822677403808771
454,3759.98,0.2870521105780873
455,3762.73,0.292133811688426
456,3765.48,0.29292871279876465
457,3768.22,0.29144078299597487
458,3770.9700000000003,0.2880334841063135
459,3773.71,0.2995074543035237
460,3776.46,0.3195084554138624
461,3779.21,0.3266151565242011
462,3781.95,0.3394768267214113
463,3784.7,0.34060452783175
464,3787.45,0.33702782894208866
465,3790.19,0.32993889913929886
466,3792.94,0.3026269002496375
467,3795.6800000000003,0.28908507044684767
468,3798.43,0.27761177155718636
469,3801.1800000000003,0.27848577266752506
470,3801.8939600000003,0.277532159277014
471,3803.92,0.2748477308505114
472,3806.6699999999996,0.3019401696624179
473,3809.42,0.3135605084743244
474,3812.16,0.3252106093269148
475,3814.9100000000003,0.3212404481388213
476,3817.65,0.30882784899141175
477,3820.4,0.2936837878033182
478,3823.15,0.2784326266152247
479,3825.8900000000003,0.27369672746781515
480,3828.64,0.26861546627972166
481,3831.39,0.2514071050916281
482,3834.13,0.2455148059442186
483,3836.8799999999997,0.24017974475612508
484,3839.6200000000003,0.24327284560871554
485,3842.37,0.25020598442062203
486,3845.1200000000003,0.2695258232325285
487,3847.86,0.29062932408511893
488,3850.6099999999997,0.3016123628970254
489,3853.36,0.30379600170893195
490,3856.1,0.3002617025615224
491,3858.85,0.3007137413734289
492,3861.5899999999997,0.29230594222601936
493,3864.34,0.3037232810379258
494,3867.09,0.3070069198498323
495,3869.8300000000004,0.31650792070242273
496,3872.58,0.31703885951432925
497,3875.3300000000004,0.3058262983262357
498,3878.07,0.29866499917882616
499,3880.8199999999997,0.30207273799073264
500,3883.56,0.2957801388433231
501,3886.31,0.28376097765522956
502,3889.06,0.28171431646713607
503,3891.8,0.2872950173197265
504,3894.55,0.29562695613163303
505,3897.3,0.3081272949435395
506,3900.04,0.32882479579613
507,3902.79,0.33145973460803646
508,3905.5299999999997,0.33035653546062693
509,3908.28,0.34148047427253336
510,3911.0299999999997,0.34059001308443987
511,3913.7699999999995,0.3601200139370303
512,3916.52,0.35578885274893685
513,3919.2700000000004,0.35323439156084324
514,3922.01,0.33496699241343375
515,3924.7599999999998,0.32513063122534025
516,3927.5,0.3020912320779307
517,3930.25,0.2778263708898372
518,3933.0,0.24919020970174366
519,3935.74,0.2356888105543341
520,3938.4900000000002,0.2481779493662406
521,3941.24,0.2658506881781471
522,3943.9800000000005,0.2858373890307375
523,3946.73,0.311254527842644
524,3949.47,0.3280713286952345
525,3952.2200000000003,0.3406223675071409
526,3954.97,0.34101230631904744
527,3957.71,0.3441622071716379
528,3960.46,0.32991484598354437
529,3963.2099999999996,0.30044948479545086
530,3965.95,0.2646848856480413
531,3968.7,0.2411026244599478
532,3971.44,0.23131832531253826
533,3974.19,0.24443926412444472
534,3976.94,0.2780804029363512
535,3979.68,0.3143232037889417
536,3982.4300000000003,0.3425945426008482
537,3985.18,0.3610454814127546
538,3987.9199999999996,0.3763676822653451
539,3990.67,0.3810557210772516
540,3993.4199999999996,0.38811835988915805
541,3996.1600000000003,0.39355836074174855
542,3998.91,0.40027129955365504
543,4001.65,0.40151480040624543
544,4004.4,0.40567243921815194
545,4007.15,0.41070447803005844
546,4009.89,0.4150841788826489
547,4012.64,0.4171492176945554
548,4015.39,0.4250466565064619
549,4018.1299999999997,0.4277003573590523
550,4020.88,0.4262287961709588
551,4023.62,0.42425709702354925
552,4026.3700000000003,0.42185483583545574
553,4029.12,0.42072177464736227
554,4031.8599999999997,0.4113722754999527
555,4034.61,0.4064600143118592
556,4037.3599999999997,0.41072495312376567
557,4040.1,0.41540915397635614
558,4042.85,0.42065549278826264
559,4045.59,0.4163486936408531
560,4048.34,0.4012890324527595
561,4051.09,0.402491171264666
562,4053.83,0.4055621721172565
563,4056.5800000000004,0.4100922109291629
564,4059.33,0.40752634974106944
565,4062.0699999999997,0.3979794505936599
566,4064.82,0.3996609894055664
567,4067.56,0.39588439025815686
568,4070.31,0.3997770290700633
569,4073.06,0.40172366788196984
570,4075.8,0.40696066873456027
571,4078.55,0.40152380754646677
572,4081.2999999999997,0.39878884635837325
573,4084.04,0.4075342472109637
574,4086.79,0.4148393860228702
575,4089.53,0.4171094868754606
576,4092.2799999999997,0.4156041256873671
577,4095.03,0.40932676449927363
578,4097.77,0.3919394653518641
579,4100.52,0.3720177041637705
580,4103.2699999999995,0.3635238429756771
581,4106.01,0.3645697438282675
582,4108.76,0.37458248264017396
583,4111.5,0.3878232834927644
584,4114.25,0.3979262223046709
585,4117.0,0.40250706111657736
586,4119.74,0.4144957619691679
587,4122.49,0.4152184007810743
