,lambda (Angstroms),Total Flux (erg/s/cm^2/Angstrom)
0,100.1,3.043958791235534
1,101.96000000000001,3.0354936865264768
2,104.10000000000001,3.0257528635112174
3,104.712855,3.022963633591877
4,106.03,2.9914654942400047
5,108.01,2.9441168806313804
6,110.01,2.8962953690892346
7,113.88000000000001,2.803752418827832
8,117.88,2.7081004504135415
9,120.22644299999999,2.652085483660829
10,120.91,2.6384092816667657
11,124.87,2.5590392422877626
12,126.9,2.5183476092992843
13,128.07,2.4948979871532155
14,131.05,2.435162795534167
15,131.96,2.4169559232427806
16,134.10999999999999,2.3738579056367564
17,136.91,2.3177787216940273
18,138.038426,2.295160354262633
19,140.1,2.265627533282107
20,143.04000000000002,2.2240661012661196
21,147.04,2.167938652197431
22,151.16,2.108962133807681
23,155.04,2.053459415460052
24,158.489319,2.0041243851397117
25,159.01999999999998,1.9983897926365506
26,161.98000000000002,1.9663979645690062
27,166.13,1.9215762046094422
28,170.0,1.8797382996832945
29,173.16000000000003,1.845589760449024
30,177.19,1.8020248917894959
31,180.07,1.7708884045886415
32,181.970086,1.750351825405482
33,182.16,1.7487870751025336
34,185.97,1.7173942913886882
35,191.18,1.6744474606855035
36,193.83999999999997,1.6525597821057587
37,197.89999999999998,1.6190862225366744
38,202.05,1.5848876871397037
39,204.86,1.561735521846815
40,208.929613,1.5280624214777805
41,210.10999999999999,1.5207172088625294
42,216.0,1.4844002463009327
43,220.01,1.4595897006571295
44,223.07,1.4406010046845517
45,227.22,1.4149336390681466
46,229.85,1.4006837667257022
47,234.13,1.3781596948490242
48,239.88329199999998,1.3444157192380715
49,240.13,1.3433204420701093
50,245.72,1.3156116016167738
51,252.03,1.2857693031444046
52,256.71,1.2612867480206822
53,260.28,1.245542838342971
54,263.91,1.2285237258303399
55,268.81,1.2048206709785791
56,273.81,1.180592728068619
57,275.42287,1.1727888644439373
58,278.90000000000003,1.1598371800877227
59,284.09,1.140565224264446
60,290.03000000000003,1.1180048261314466
61,296.10999999999996,1.095589833193966
62,300.92,1.077579271554281
63,307.93,1.051663834272745
64,316.227766,1.021009010838932
65,318.02,1.0160550813748694
66,327.68,0.9891675954635781
67,337.64000000000004,0.9614316202134271
68,347.90000000000003,0.932854353624416
69,356.82,0.9080804568823129
70,363.078055,0.8907353968234661
71,365.96999999999997,0.8847134725300125
72,375.36,0.8651085008826175
73,384.99,0.8447906807106885
74,394.86,0.8244094420142258
75,404.99,0.8033634659995176
76,414.43,0.7836872563678449
77,416.86938299999997,0.7785952035238816
78,422.13,0.7701699983063076
79,429.98,0.7576245084725831
80,441.01,0.7400828322208656
81,451.28000000000003,0.7237084119747058
82,459.67,0.7103197429001901
83,470.38000000000005,0.6932976771244967
84,478.630092,0.680204884930209
85,480.23,0.678245846921972
86,490.28000000000003,0.6658706189035302
87,500.55,0.6533548221364259
88,506.35,0.6462116187625988
89,512.21,0.6391822074573182
90,520.53,0.6290084079624491
91,530.21,0.617128033021303
92,540.07,0.6050074762857968
93,549.5408739999999,0.5934310585858491
94,550.11,0.5928983736187555
95,560.34,0.5834220857292819
96,569.44,0.5749653582635721
97,580.03,0.56505917592051
98,589.4499999999999,0.5562923980516106
99,600.41,0.5460310312423601
100,610.1700000000001,0.5366795589450714
101,620.08,0.5277746734587875
102,630.1600000000001,0.518370062758309
103,630.957344,0.5176311177510873
104,640.4,0.5106827227132237
105,649.3000000000001,0.5040886258879468
106,658.34,0.4973905117732835
107,664.4300000000001,0.4929331186849759
108,675.22,0.48498703545298305
109,684.62,0.4779944491656119
110,695.74,0.46986034360863665
111,705.42,0.4626626577424929
112,715.23,0.4555038985362044
113,724.43596,0.4487246291335952
114,725.18,0.44831672902717623
115,735.27,0.442800600074305
116,745.5,0.43719331856906496
117,754.13,0.4324554062337549
118,764.62,0.42660431898840134
119,775.26,0.42090658200836667
120,784.2399999999999,0.41596633329213456
121,795.15,0.41003167338967417
122,804.3599999999999,0.4050049534802646
123,815.5500000000001,0.3989024614730665
124,824.99,0.39375275437047935
125,831.763771,0.38999682594753216
126,834.54,0.38883745113897383
127,844.2099999999999,0.38495924453101543
128,855.95,0.38016330810315263
129,865.86,0.37612454773346615
130,875.89,0.3720376319829157
131,883.99,0.36872741977459467
132,894.23,0.3645535746075321
133,904.5799999999999,0.360324923508011
134,915.0600000000001,0.3562671295792204
135,925.65,0.3532806197179712
136,934.22,0.35139213543459946
137,945.0400000000001,0.3491423162600275
138,954.992586,0.346645251956006
139,955.98,0.34640615501806793
140,964.8199999999999,0.34370040952834985
141,976.0000000000001,0.3333420805266474
142,985.03,0.33444002729450323
143,994.14,0.3308993385918638
144,1005.65,0.3288051017743688
145,1014.96,0.32472503339549147
146,1024.35,0.3161229695461189
147,1033.83,0.3149055602924393
148,1045.8,0.31491469751959694
149,1055.48,0.3107459495896793
150,1065.24,0.3046825791892665
151,1075.1,0.3021528914507348
152,1085.05,0.2960217033078959
153,1095.09,0.29445961776075
154,1096.4782,0.29383990569089735
155,1105.22,0.29056550357980226
156,1115.45,0.2868326208366245
157,1125.77,0.28242288980245106
158,1136.18,0.2810243674772819
159,1144.06,0.2774999017767697
160,1154.6399999999999,0.27447721734638647
161,1165.33,0.27115660267145286
162,1176.11,0.2645242257055237
163,1184.26,0.26447685513202424
164,1195.22,0.2581988645841036
165,1206.28,0.25285606826841
166,1214.64,0.24826928968258727
167,1225.88,0.24790637078490224
168,1234.38,0.24799896552419742
169,1245.8,0.24504021104452098
170,1254.44,0.24177154910893392
171,1258.92541,0.23983809029086534
172,1266.04,0.2374342691771834
173,1274.8200000000002,0.23751006366453337
174,1283.66,0.23583360027366482
175,1295.53,0.23088958503275872
176,1304.5100000000002,0.22866099159271344
177,1313.56,0.22846932762807995
178,1325.71,0.22513063728882055
179,1334.8999999999999,0.22188983827501035
180,1344.15,0.22121343338298155
181,1353.47,0.21865900496636448
182,1365.99,0.21471879071142394
183,1375.46,0.2128408675992604
184,1385.0000000000002,0.21063361896250854
185,1394.6,0.20700085244753821
186,1404.26,0.20492329805434925
187,1414.0,0.20311752549020218
188,1423.8,0.20093417604783662
189,1433.6699999999998,0.1985876920808827
190,1443.61,0.19667237158934042
191,1445.43977,0.19629744697946236
192,1446.9299999999998,0.19609621645361805
193,1453.61,0.1947140741947565
194,1463.69,0.19240883709156417
195,1473.83,0.19071232327347193
196,1484.0500000000002,0.18914060283551304
197,1494.3400000000001,0.1875383277301709
198,1504.6899999999998,0.18540159790992888
199,1511.6399999999999,0.1834554829340175
200,1518.62,0.18274713010065616
201,1525.63,0.18138534540984483
202,1536.2,0.17871813863496955
203,1543.29,0.17794787032429166
204,1553.99,0.17586034416713317
205,1564.76,0.1742906623425914
206,1575.6100000000001,0.172940336898183
207,1586.53,0.17142942078639137
208,1593.85,0.17036817156859696
209,1604.8999999999999,0.1683775100745221
210,1616.03,0.16654614996058056
211,1623.49,0.16496411040801962
212,1634.74,0.16352463086427818
213,1646.07,0.1617626107006702
214,1653.6699999999998,0.1599947198133427
215,1659.58691,0.159318272668067
216,1665.1299999999999,0.15895277296134602
217,1672.82,0.1572949336445076
218,1676.67,0.15785458194231927
219,1684.41,0.15719189318779006
220,1696.0900000000001,0.15538308494322917
221,1703.9199999999998,0.15426542240085664
222,1715.73,0.15270481501829977
223,1723.6499999999999,0.15179307968808384
224,1735.59,0.150932313167531
225,1743.61,0.1498415819619336
226,1755.69,0.14905788921584662
227,1763.8000000000002,0.14737906022240582
228,1776.0200000000002,0.14627538525078476
229,1784.22,0.14549983346950057
230,1796.5900000000001,0.14487112818480727
231,1804.88,0.1436560006156797
232,1813.21,0.14220364069639957
233,1825.78,0.14091912766094322
234,1834.21,0.13967687186628158
235,1846.9199999999998,0.13745236260529112
236,1855.4499999999998,0.13693277393524794
237,1864.0100000000002,0.13650901000259028
238,1876.93,0.13532666590329862
239,1885.5900000000001,0.13394905209525948
240,1894.3,0.1331345468495296
241,1903.04,0.13228507834118525
242,1905.46072,0.1319984661094065
243,1916.2299999999998,0.13104884359272267
244,1925.0800000000002,0.1297945067555064
245,1933.96,0.12832183027816405
246,1942.8899999999999,0.12932385340061142
247,1956.3600000000001,0.12795217298396708
248,1965.3899999999999,0.12821475530599394
249,1974.46,0.12720320510785255
250,1983.5700000000002,0.126707912389543
251,1992.73,0.12588798227102316
252,2006.54,0.12452464393294903
253,2015.8000000000002,0.12371790101400866
254,2025.11,0.12249028569485809
255,2034.4599999999998,0.12250988885553926
256,2043.8500000000001,0.12238407549605222
257,2053.28,0.12103160661639696
258,2062.7599999999998,0.12004304733653148
259,2072.2799999999997,0.12031548653649778
260,2077.06,0.1234165948763968
261,2086.64,0.12444724779611077
262,2096.28,0.1225123074355724
263,2105.95,0.12099146043490794
264,2115.67,0.12119726903403316
265,2125.44,0.11931508323294815
266,2135.25,0.11739879191169492
267,2145.1,0.1189891550702735
268,2155.0099999999998,0.11840266494859976
269,2164.95,0.11597985818679984
270,2174.95,0.11536371814474762
271,2184.98,0.11654108146256922
272,2187.7616199999998,0.11638904898555275
273,2195.07,0.11618554093639621
274,2205.2,0.11494922320502127
275,2215.38,0.11160917158553489
276,2225.61,0.1119966560779371
277,2235.88,0.11482198745985014
278,2246.2,0.11331821495365181
279,2256.57,0.109669408559342
280,2266.98,0.10874372905454306
281,2277.45,0.10939546488401045
282,2282.7,0.11208273663231069
283,2293.23,0.10917670779604433
284,2303.82,0.11077803429404424
285,2314.4500000000003,0.10810061768155502
286,2325.14,0.10410958640333214
287,2335.87,0.10294199201462007
288,2346.65,0.09974695673779657
289,2357.48,0.10425085157286165
290,2362.92,0.09931785954633851
291,2373.82,0.10069374093804759
292,2384.7799999999997,0.09663212466402299
293,2395.79,0.09738191850188692
294,2406.85,0.09660850945163946
295,2412.39,0.09757167764889343
296,2423.53,0.10201036537766767
297,2434.72,0.10133917521833051
298,2445.9500000000003,0.10299044194850415
299,2457.24,0.10312123401294414
300,2462.9100000000003,0.10095674310110839
301,2474.28,0.09872854894457009
302,2485.7000000000003,0.09457784089992034
303,2497.17,0.09486789896715919
304,2502.93,0.09992163105672291
305,2511.88643,0.09291457374286947
306,2514.48,0.09092257117198135
307,2520.2799999999997,0.0893891775666676
308,2526.0899999999997,0.08969081413444811
309,2537.7499999999995,0.09223142496238626
310,2543.6,0.09263072622254391
311,2555.3399999999997,0.09864714743523638
312,2567.13,0.09422456951340026
313,2573.05,0.0970919759852179
314,2584.93,0.09492569762123038
315,2596.8599999999997,0.09295430012271429
316,2602.84,0.09101485963309766
317,2614.86,0.08939662169243014
318,2626.9300000000003,0.09261369461723404
319,2632.9799999999996,0.10058131933927744
320,2645.1400000000003,0.10794598182192991
321,2657.35,0.11643419517005388
322,2663.47,0.10281699510375725
323,2675.77,0.10604250800972975
324,2681.94,0.10920838880890459
325,2694.32,0.10099138909963137
326,2706.75,0.10566695025582962
327,2712.9900000000002,0.09774926626666443
328,2725.5099999999998,0.09433722698071126
329,2738.09,0.09787113073332378
330,2744.41,0.0868397641289129
331,2757.0699999999997,0.09054586526627972
332,2763.43,0.095136057354246
333,2776.18,0.0966125480494614
334,2782.58,0.0870242088298048
335,2795.43,0.07816601825596309
336,2801.8700000000003,0.07931089472868363
337,2814.81,0.09238987271269047
338,2827.7999999999997,0.10172554556216877
339,2834.32,0.10049068241964361
340,2847.4,0.09420707482697048
341,2853.96,0.08480533037682247
342,2867.1400000000003,0.10089030451509218
343,2873.75,0.10762357093041564
344,2884.0315,0.10431238634738174
345,2887.0099999999998,0.10338971078186329
346,2893.6600000000003,0.10834987847946384
347,2907.02,0.12069902335765084
348,2927.17,0.1137082147270721
349,2947.46,0.11037615489012706
350,2967.8900000000003,0.1127019438468157
351,2988.47,0.11257955651096904
352,3009.1800000000003,0.11336479305492508
353,3030.04,0.1144250233063458
354,3051.04,0.11578175235140023
355,3072.19,0.11824028510391932
356,3093.49,0.11752678156390309
357,3107.7700000000004,0.12263139851454008
358,3129.31,0.11857458290646733
359,3151.0,0.11757530100585925
360,3172.84,0.12128352281271583
361,3187.4900000000002,0.11297433157509904
362,3209.5800000000004,0.1183361362277301
363,3231.83,0.1084449295016568
364,3246.75,0.12477460093747642
365,3269.25,0.1339130670571776
366,3291.9100000000003,0.13151970179817438
367,3307.1099999999997,0.1282320508212614
368,3311.31121,0.1276715219984369
369,3322.37,0.1262912340417901
370,3330.0299999999997,0.1319415288400269
371,3337.71,0.1289294956090163
372,3345.4,0.12838423336338195
373,3353.11,0.1227356230885002
374,3360.84,0.131123524784371
375,3368.59,0.12985486845099442
376,3376.36,0.11493184408837039
377,3384.14,0.11763616071112265
378,3391.94,0.1303010893046275
379,3399.76,0.1339233998688849
380,3407.6,0.12760733240389488
381,3415.45,0.12654239592428118
382,3423.33,0.1374988224007963
383,3431.22,0.13439515986268774
384,3439.13,0.13305430929533174
385,3447.06,0.11285610069872834
386,3454.9999999999995,0.12653190308750123
387,3462.9700000000003,0.11726666843240294
388,3470.95,0.12559537476268098
389,3478.9500000000003,0.11163002306371157
390,3486.97,0.12183663333549476
391,3495.01,0.11659694557803049
392,3503.0699999999997,0.13322183979131885
393,3511.14,0.13001942498998348
394,3519.2400000000002,0.12925721314477695
395,3527.3500000000004,0.1132465522849467
396,3535.4799999999996,0.1272058133958691
397,3543.6299999999997,0.137209506477544
398,3551.8,0.13578877152997149
399,3559.9900000000002,0.13131080855315158
400,3568.19,0.11685915656170795
401,3576.42,0.11711536752639318
402,3584.66,0.1041796694764547
403,3592.93,0.1122992043826451
404,3601.21,0.13725629027421177
405,3609.51,0.12127751813653101
406,3617.8300000000004,0.12698884796960283
407,3626.17,0.13278446977342725
408,3634.53,0.11880128354800422
409,3642.91,0.1426547992933338
410,3651.31,0.12204376700941591
411,3659.7200000000003,0.14757268571087434
412,3668.16,0.14371052736846163
413,3676.62,0.1482536509968015
414,3685.0899999999997,0.13295199561051763
415,3693.59,0.14080732318036265
416,3702.1,0.14729798173558395
417,3710.64,0.11845503324693411
418,3719.19,0.14963567574366057
419,3727.7599999999998,0.1302222302111396
420,3736.36,0.1063602376347475
421,3744.9700000000003,0.1363996060437317
422,3753.6000000000004,0.10400300642346845
423,3762.26,0.12101058975933407
424,3770.9300000000003,0.123082824080576
425,3779.6200000000003,0.14058818037257048
426,3788.33,0.15301074863531755
427,3797.07,0.1262425098541935
428,3801.8939600000003,0.13266647109602542
429,3805.8199999999997,0.137918491896368
430,3814.59,0.1474619402211468
431,3823.39,0.1225325733634562
432,3832.2000000000003,0.10900917811160911
433,3841.04,0.10005392767729263
434,3849.8900000000003,0.13462319884881968
435,3858.7599999999998,0.13298022323203382
436,3867.66,0.13917997243277852
437,3876.58,0.12663491484521033
438,3885.5099999999998,0.12625379886348564
439,3894.47,0.11981203769929158
440,3896.21,0.14538044711606637
441,3897.9799999999996,0.1361886613503718
442,3899.75,0.1430439155846772
443,3901.53,0.13540942142482615
444,3903.3,0.12107976565913155
445,3905.0699999999997,0.13730824989343698
446,3906.85,0.1389469757335859
447,3908.62,0.13886205996789133
448,3910.3900000000003,0.14813452420219672
449,3912.1699999999996,0.16129781004234567
450,3913.94,0.14331334427665107
451,3915.72,0.1429552301168
452,3917.4900000000002,0.14353256435110545
453,3919.2599999999998,0.14157347858541086
454,3921.04,0.12623966442555978
455,3922.81,0.1315856686598652
456,3924.58,0.1234924128941706
457,3926.3599999999997,0.11235501873431956
458,3928.13,0.10088414296862497
459,3929.91,0.08916673880877392
460,3931.6800000000003,0.08554225304307933
461,3933.45,0.08246678727738474
462,3935.23,0.09027621311753367
463,3937.0,0.09788556735183909
464,3938.77,0.10478683158614449
465,3940.5499999999997,0.10972932742629345
466,3942.32,0.11400207166059885
467,3944.09,0.12666549589490428
468,3945.8700000000003,0.1319668317350532
469,3947.64,0.13818294596935862
470,3949.42,0.14057418180950756
471,3951.19,0.14357387604381297
472,3952.9599999999996,0.14940241027811837
473,3954.74,0.14569999611826734
474,3956.5099999999998,0.13867238035257273
475,3958.28,0.13141372458687817
476,3960.0600000000004,0.12200323042702708
477,3961.83,0.11657196466133249
478,3963.61,0.10853982050148145
479,3965.38,0.09428962473578686
480,3967.1499999999996,0.08505449897009228
481,3968.93,0.09213734481024122
482,3970.7,0.10747507904454663
483,3972.4700000000003,0.12046664327885204
484,3974.2499999999995,0.12008593911900099
485,3976.02,0.1271562633533064
486,3977.79,0.1458204475876118
487,3979.57,0.15399433342776075
488,3981.3399999999997,0.15848256766206617
489,3983.12,0.1619440535022151
490,3984.89,0.1638041877365205
491,3986.6600000000003,0.1621716219708259
492,3988.4399999999996,0.16051530781097487
493,3990.21,0.16890994204528026
494,3991.98,0.17115307627958568
495,3993.76,0.16437316211973463
496,3995.5299999999997,0.16597199635404003
497,3997.31,0.16899968219418898
498,3999.08,0.1774020164284944
499,4000.8500000000004,0.17947835066279982
500,4002.6299999999997,0.17555243650294877
501,4004.4,0.17074257073725418
502,4006.17,0.16708240497155957
503,4007.9500000000003,0.1723450908117085
504,4009.72,0.17862032504601394
505,4011.49,0.18076525928031933
506,4013.27,0.18390334512046827
507,4015.0400000000004,0.1891058793547737
508,4016.8199999999997,0.19051326519492265
509,4018.59,0.18417879942922805
510,4020.36,0.18489153366353347
511,4022.1400000000003,0.1936505195036824
512,4023.91,0.18898445373798783
513,4025.68,0.18820338797229325
514,4027.46,0.18099797381244215
515,4029.2299999999996,0.1775348080467476
516,4031.0099999999998,0.1798797938868965
517,4032.78,0.17250842812120193
518,4034.55,0.17547206235550733
519,4036.3300000000004,0.18786794819565628
520,4038.1,0.1825671824299617
521,4039.87,0.1923819166642671
522,4041.65,0.17762990250441604
523,4043.4199999999996,0.17655183673872146
524,4045.19,0.17151607097302687
525,4046.97,0.17353955681317582
526,4048.7400000000002,0.1827176910474812
527,4050.5200000000004,0.18408157688763016
528,4052.29,0.18843701112193556
529,4054.06,0.183272945356241
530,4055.84,0.17850003119638996
531,4057.6099999999997,0.17533526543069533
532,4059.38,0.17504969966500075
533,4061.16,0.1739168855051497
534,4062.9300000000003,0.16350141973945512
535,4064.7100000000005,0.17047340557960405
536,4066.48,0.17547563981390948
537,4068.25,0.1798997740482149
538,4070.03,0.18493455988836383
539,4071.7999999999997,0.16952699412266925
540,4073.57,0.17439772835697465
541,4075.35,0.17369361419712362
542,4077.1200000000003,0.17227604843142902
543,4078.8999999999996,0.17736483427157795
544,4080.67,0.18254926850588335
545,4082.44,0.18989420274018876
546,4084.2200000000003,0.1782715885803377
547,4085.99,0.18824982281464314
548,4087.7599999999998,0.19173535704894853
549,4089.54,0.1886947428890975
550,4091.3100000000004,0.1892311771234029
551,4093.08,0.1852862113577083
552,4094.86,0.18731229719785725
553,4096.63,0.17053163143216266
554,4098.41,0.1609566172723116
555,4100.18,0.163163851506617
556,4101.95,0.1596473857409224
557,4103.73,0.1688061715810714
558,4105.5,0.17257900581537677
559,4107.27,0.17616124004968217
560,4109.05,0.17581642588983112
561,4110.82,0.17889886012413653
562,4112.6,0.1888582459642855
563,4114.37,0.1869435801985909
564,4116.139999999999,0.18306461443289632
565,4117.92,0.18112590027304526
566,4119.69,0.18394403450735067
567,4121.46,0.1846952687416561
568,4123.240000000001,0.185356554581805
569,4125.01,0.18385438881611044
570,4126.78,0.18569452305041584
571,4128.56,0.17816060889056476
572,4130.33,0.1738607431248702
573,4132.11,0.17484292896501913
574,4133.88,0.18273186319932455
575,4135.650000000001,0.18811409743362995
576,4137.43,0.1878564832737789
577,4139.2,0.1855945175080843
578,4140.97,0.17923945174238973
