,lambda (Angstroms),Total Flux (erg/s/cm^2/Angstrom)
0,101.98,13.545146902614407
1,104.11999999999999,13.501668877936453
2,104.712855,13.489623943080105
3,106.05,13.34692198629128
4,108.03,13.135613664871686
5,110.03,12.922170937464351
6,113.9,12.509159255274236
7,117.9,12.082273823120525
8,120.22644299999999,11.833993348390866
9,120.92999999999999,11.771043038019151
10,124.89,11.416723822891774
11,126.92,11.235090484801454
12,128.09,11.130405290190387
13,131.08,10.862876444110551
14,131.99,10.781455061313167
15,134.13,10.589979631486559
16,136.94,10.338557092445193
17,138.038426,10.240276068607827
18,140.13,10.10650992622413
19,143.06,9.91913361960294
20,147.07,9.662706652395157
21,150.84,9.421603912429058
22,155.07,9.151083659375562
23,158.489319,8.932410537053446
24,159.04999999999998,8.905302514842724
25,162.0,8.762675161936729
26,166.16,8.561548836142613
27,170.03,8.374443293266475
28,173.19,8.221665602046428
29,176.82,8.046166727692068
30,180.10999999999999,7.887104104951891
31,181.970086,7.797175380046908
32,182.19,7.7890643589590365
33,186.01,7.648173713648434
34,191.22,7.456016622493133
35,193.88,7.357915078594649
36,197.94,7.208175234102226
37,202.08,7.055487971915864
38,204.89000000000001,6.951854481378743
39,208.929613,6.8028591878142555
40,210.14999999999998,6.769019505829004
41,216.04000000000002,6.6057355467670975
42,220.05,6.494562224611541
43,223.11,6.409721395278871
44,226.74,6.3090911588724685
45,229.89,6.222004439912367
46,234.17000000000002,6.103880736074515
47,239.88329199999998,5.945793187737403
48,240.18,5.939470767763812
49,245.77,5.819996183569301
50,252.07,5.685534240500357
51,256.76,5.585081014315698
52,259.73,5.521880919883194
53,263.95,5.431836231770344
54,268.86,5.326967304849943
55,273.86,5.220166943128558
56,275.42287,5.18678401888896
57,278.95,5.128973169946197
58,284.14,5.043907613516633
59,290.09,4.946279270742856
60,296.16,4.846829000756833
61,300.96999999999997,4.767977255499378
62,307.98,4.653099411350776
63,316.227766,4.517940817979383
64,318.07,4.49539888946847
65,327.73999999999995,4.377031979427207
66,337.7,4.255083810721828
67,347.96,4.129449445639782
68,356.89,4.020101757327631
69,363.078055,3.944333600992323
70,366.03999999999996,3.9171779148901997
71,375.43,3.8310609554797113
72,385.06,3.7426616699085713
73,394.94,3.6521305681284204
74,405.07,3.5592393921392573
75,413.55,3.4814438761295725
76,416.86938299999997,3.4509891741960623
77,422.21000000000004,3.4135693710865973
78,430.06,3.3585665345241287
79,441.09000000000003,3.281306084698137
80,451.36999999999995,3.209265125594675
81,459.76000000000005,3.150472280911984
82,470.46999999999997,3.0754259991942723
83,478.630092,3.01825772139104
84,480.32,3.0091522750410493
85,490.38,2.9548931654580066
86,499.49,2.9058208060761457
87,506.44,2.8683397191832887
88,512.3,2.8368535513844195
89,519.4300000000001,2.7984222922008115
90,530.3100000000001,2.739758492959907
91,540.1700000000001,2.6865579703665867
92,549.5408739999999,2.6360603493334587
93,550.21,2.6333095834322378
94,560.4399999999999,2.5912939953273084
95,569.55,2.553882153114609
96,580.13,2.5103284951683564
97,589.5600000000001,2.4716010531293056
98,600.52,2.4264794303267614
99,610.28,2.3861144641230347
100,620.1999999999999,2.3456470315061333
101,630.27,2.304229683814379
102,630.957344,2.3014040361609527
103,640.51,2.2702713290586107
104,649.42,2.241245159834275
105,658.46,2.21177582457973
106,664.55,2.1919648097799316
107,675.35,2.1567540299625545
108,684.7399999999999,2.1260669248574464
109,694.27,2.0951844794121124
110,705.5500000000001,2.0583102887139635
111,715.37,2.0264654932781636
112,724.43596,1.9969246927105753
113,725.3199999999999,1.9947864576830112
114,735.41,1.9703953322445709
115,745.6400000000001,1.9457283355512862
116,754.27,1.9248903431990823
117,764.77,1.89937522408574
118,775.4,1.8738916318071852
119,784.3799999999999,1.85220873831787
120,795.3000000000001,1.8258489564399938
121,804.4999999999999,1.8036503659787801
122,815.7,1.7765916825912151
123,825.14,1.7538936929788391
124,831.763771,1.7375639123899023
125,834.7,1.732118545499728
126,844.36,1.7151322932105266
127,854.14,1.6974670261102796
128,864.03,1.6797202024332403
129,874.03,1.6617884571794086
130,884.15,1.643682391114531
131,894.3900000000001,1.6252915552386076
132,904.75,1.6064952095516383
133,915.2299999999999,1.589449712053623
134,925.8199999999999,1.5994855999788151
135,934.39,1.6245317562232815
136,945.2099999999999,1.674185644760636
137,953.9599999999999,1.7253437147885333
138,954.992586,1.7245555846744507
139,965.0,1.7173081559294558
140,973.93,1.511355269656148
141,985.2099999999999,1.6233749769951278
142,994.32,1.6339469639772293
143,1005.84,1.7321888723234213
144,1015.15,1.7142965851448666
145,1024.54,1.5256912883020493
146,1034.02,1.5718340930869363
147,1045.99,1.7743946095716516
148,1055.6699999999998,1.7504977401958826
149,1065.44,1.6239199724478177
150,1075.3,1.681713706327458
151,1085.25,1.5650500418348026
152,1095.29,1.673741478969852
153,1096.4782,1.6696860501779371
154,1105.42,1.6420337050378349
155,1115.6499999999999,1.6034920476049257
156,1125.97,1.5452903462649814
157,1133.78,1.6530868916656636
158,1144.27,1.5912415851679882
159,1154.8600000000001,1.6114033521069406
160,1165.54,1.6091505751388593
161,1176.33,1.4354821889510692
162,1184.48,1.5695087240362877
163,1195.44,1.3890884326907655
164,1203.73,1.2855126105872643
165,1214.87,1.2301666314276738
166,1226.11,1.3680962257047113
167,1234.61,1.53783896781813
168,1246.03,1.5721153742810987
169,1254.6699999999998,1.525532359205797
170,1258.92541,1.4889487482441344
171,1266.28,1.4287797894282364
172,1275.0500000000002,1.5745145514948145
173,1283.89,1.6002558424490392
174,1295.77,1.427684202238201
175,1304.75,1.4103875509677188
176,1313.8,1.5490056285848834
177,1325.9499999999998,1.5065584283692537
178,1335.1399999999999,1.413092163761711
179,1344.4,1.5295463280418151
180,1353.72,1.4998395456541878
181,1366.24,1.409719340987547
182,1375.71,1.435303891930591
183,1385.25,1.4315857717612812
184,1394.85,1.3471734049242403
185,1404.52,1.3567227669748458
186,1414.26,1.352227957913098
187,1424.06,1.3650427021836187
188,1433.9299999999998,1.3490185753417858
189,1440.55,1.3769651930020763
190,1445.43977,1.3811385156123053
191,1447.1999999999998,1.3831896524652998
192,1453.8799999999999,1.3584519541883968
193,1463.96,1.3000218172675613
194,1474.1000000000001,1.2938247408412447
195,1484.3200000000002,1.302205911740953
196,1494.6100000000001,1.3075372365509335
197,1504.97,1.2660612152711859
198,1511.9199999999998,1.1968490392196178
199,1515.4,1.2329847479017102
200,1525.91,1.2061509278582598
201,1536.49,1.1310474617250814
202,1543.58,1.1787957934940572
203,1554.2800000000002,1.1451088483499163
204,1565.05,1.1418608571160476
205,1575.9,1.1632417132082036
206,1586.82,1.184636423210632
207,1594.15,1.188833196957683
208,1605.2,1.173481221364902
209,1616.32,1.1686156996823933
210,1623.78,1.132654487834235
211,1635.0400000000002,1.1583015739722697
212,1646.3700000000001,1.1587165140205768
213,1653.9699999999998,1.110894909992963
214,1659.58691,1.12971324692967
215,1665.44,1.1505866599865016
216,1673.12,1.0817106727319232
217,1676.9800000000002,1.1469559843461583
218,1684.72,1.1724547128161535
219,1696.4,1.1306089738664822
220,1704.23,1.1044790759233376
221,1716.04,1.0695894210435757
222,1723.96,1.0636636966872917
223,1735.9099999999999,1.0915917784982014
224,1743.9299999999998,1.0762596803495401
225,1756.02,1.1070546988511216
226,1764.1200000000001,1.0550728216685583
227,1776.35,1.0619270768608118
228,1784.55,1.067040025885871
229,1796.9199999999998,1.100895617768796
230,1805.2099999999998,1.0922138403807158
231,1813.54,1.0421361734756849
232,1826.12,1.0481375703946174
233,1834.54,1.0224998770764469
234,1843.01,0.9775398468620874
235,1855.79,0.9719887961962654
236,1864.35,0.9833098395687665
237,1872.9599999999998,1.021375246045079
238,1885.94,0.9742907477945022
239,1894.6499999999999,0.9532721804784374
240,1903.39,0.9750261710246593
241,1905.46072,0.9710212666784162
242,1916.59,0.9509973967815849
243,1925.4299999999998,0.9413341534169382
244,1934.32,0.9490747160287356
245,1943.25,0.9668049834216885
246,1956.72,0.9334011934757842
247,1965.75,0.9754768728216257
248,1974.82,0.9845353569486226
249,1983.9399999999998,0.9547018470520638
250,1993.1,0.9377111419366605
251,2006.91,0.9471940926305775
252,2016.1699999999998,0.9244314994680629
253,2025.48,0.9433086122819925
254,2034.83,0.9156525298770775
255,2044.22,0.9333969522533179
256,2053.66,0.9077419806060028
257,2063.14,0.904235913739843
258,2072.66,0.9349146516548388
259,2077.44,0.9171671230029143
260,2087.03,0.9357466692849319
261,2096.66,0.9042249203481052
262,2106.3399999999997,0.9016084773877227
263,2116.06,0.9038727392084955
264,2125.83,0.9051921070057127
265,2135.64,0.8654018795840853
266,2145.5,0.8794469581389023
267,2155.4,0.8932709414748746
268,2165.35,0.8730456307872915
269,2175.35,0.8655503260761523
270,2185.3900000000003,0.8580833261461687
271,2187.7616199999998,0.8619458680827887
272,2195.47,0.8754223489430971
273,2205.61,0.859346693942058
274,2215.79,0.8301039292565966
275,2226.02,0.8161455524656075
276,2236.29,0.8488179659901961
277,2246.61,0.8259743674092569
278,2256.98,0.79887685672279
279,2267.4,0.8045423339307951
280,2272.63,0.8171407676925866
281,2283.12,0.832531627952853
282,2293.66,0.8016917761075913
283,2304.24,0.8031790145779076
284,2314.88,0.7756215385215903
285,2325.56,0.684776552780851
286,2336.3,0.7347267525134782
287,2347.08,0.7166598425616832
288,2352.4900000000002,0.7533134327435745
289,2363.35,0.710874903422935
290,2374.2599999999998,0.7222672619967678
291,2385.2200000000003,0.6886651084650726
292,2396.23,0.7098263428278497
293,2407.29,0.692840065085099
294,2412.84,0.7032085213715125
295,2423.98,0.7315495242599173
296,2435.1600000000003,0.7154790174638997
297,2446.4,0.737408596141249
298,2457.7,0.7311180602919649
299,2463.36,0.721665589946217
300,2474.73,0.703287537149194
301,2486.16,0.6994480698255375
302,2497.63,0.6803852928174587
303,2503.39,0.7267898982606555
304,2511.88643,0.6820639577842242
305,2514.94,0.6661844906631758
306,2520.7400000000002,0.6712188713644183
307,2526.55,0.6570438875496285
308,2532.38,0.668819174702774
309,2544.07,0.6622688554609679
310,2555.81,0.7025127136390004
311,2567.6,0.6787860492368709
312,2573.5200000000004,0.7051788557457253
313,2585.4,0.693255410699305
314,2597.34,0.6815916785566905
315,2603.32,0.6648676979693509
316,2615.3399999999997,0.6552952496984777
317,2627.41,0.6776330788474427
318,2633.47,0.7131994821318444
319,2645.6200000000003,0.7629668951525507
320,2657.84,0.8006992565610307
321,2663.96,0.7162022727492383
322,2676.2599999999998,0.7422729180294596
323,2682.4300000000003,0.7513167116375055
324,2694.8100000000004,0.710591140789468
325,2707.25,0.7357127828452364
326,2713.4900000000002,0.6914558248410559
327,2726.0099999999998,0.6758459507685658
328,2732.2999999999997,0.7035884701842237
329,2744.91,0.6245187154674423
330,2757.58,0.641051473654467
331,2763.9399999999996,0.6655724414578985
332,2776.7,0.6823918190006321
333,2783.1,0.6372471287399342
334,2795.94,0.555607990154409
335,2802.3900000000003,0.5755562773135494
336,2815.32,0.6644656580837331
337,2821.81,0.7114687871787443
338,2834.84,0.6951535227886046
339,2847.92,0.6650150358183032
340,2854.4900000000002,0.6225059487850555
341,2867.6600000000003,0.7082455811704632
342,2874.27,0.7367996360730862
343,2884.0315,0.7210317514082526
344,2887.54,0.7155565907918067
345,2894.2000000000003,0.7310997045044965
346,2907.56,0.8021890647449674
347,2927.71,0.7641336203471747
348,2948.0099999999998,0.7470210240059741
349,2968.44,0.7629763093138201
350,2989.02,0.7629334426782581
351,3009.73,0.7695388576917426
352,3030.6,0.7728941039655921
353,3051.6,0.775164031888488
354,3072.7599999999998,0.7856086910717488
355,3086.94,0.78799577402159
356,3108.34,0.8037544300953984
357,3129.8900000000003,0.7856787342257986
358,3151.58,0.7809032032090184
359,3173.42,0.7941918202488301
360,3188.07,0.7449804137759932
361,3210.17,0.7783939941138982
362,3232.4199999999996,0.721341322508395
363,3247.34,0.8030570625374238
364,3269.8500000000004,0.8481996542300136
365,3292.52,0.8334241771829687
366,3307.7200000000003,0.8227976469176361
367,3311.31121,0.8212529486424831
368,3322.98,0.8166819986317752
369,3330.65,0.8538838104588783
370,3338.32,0.7990574222859814
371,3346.02,0.8462244359846377
372,3353.7299999999996,0.7970562169738118
373,3361.46,0.8077134325440212
374,3369.21,0.8119688826952661
375,3376.98,0.7876736674275466
376,3384.76,0.7729226194503447
377,3392.5699999999997,0.8442377733446962
378,3400.39,0.8777182945295653
379,3408.23,0.8188366502954698
380,3416.0800000000004,0.8019014733518921
381,3423.9599999999996,0.8671895982798677
382,3431.8500000000004,0.8646768904983609
383,3439.76,0.8578201172978897
384,3447.69,0.7479200786784539
385,3455.64,0.8139497746400536
386,3463.6,0.753074237892171
387,3471.59,0.8281784030158417
388,3479.59,0.7426768354300299
389,3487.6099999999997,0.7886794024252538
390,3495.65,0.7773981040015131
391,3503.71,0.8506622401588079
392,3511.79,0.8311661108971381
393,3519.88,0.831485948925986
394,3528.0,0.7545518888263872
395,3536.13,0.8349277960173062
396,3544.28,0.8685953377892605
397,3552.45,0.8810122141422503
398,3560.64,0.8589776250762757
399,3568.85,0.7781079705913365
400,3577.0800000000004,0.7668509506874327
401,3585.32,0.7006542980740468
402,3593.5899999999997,0.774876747332214
403,3598.85,1.0019526421445428
404,3601.54,0.7904285432938136
405,3604.23,0.9504932444430845
406,3606.92,0.8442479455923553
407,3609.6099999999997,0.7330779467416262
408,3612.3,0.935011447890897
409,3614.9900000000002,0.7668523490401677
410,3617.68,0.8159764501894387
411,3620.37,0.8087511513387095
412,3623.06,0.8506186524879803
413,3625.76,0.6878249209277689
414,3628.45,1.0100700220770398
415,3631.14,1.2407688232263105
416,3633.83,0.9784820243755814
417,3636.5199999999995,0.6576225255248522
418,3639.21,0.8727562266741231
419,3641.9,1.0013437278233939
420,3644.5899999999997,0.9116721289726648
421,3647.2799999999997,1.0291416301219356
422,3649.9700000000003,1.0029998312712065
423,3652.66,1.1125947324204772
424,3655.35,1.208924033569748
425,3658.04,0.8537877347190189
426,3660.73,0.9594019358682897
427,3663.43,1.0256803043080784
428,3666.12,0.9974558054573491
429,3668.81,1.18008160660662
430,3671.4999999999995,0.9644144077558908
431,3674.19,1.1450771089051617
432,3676.88,1.0025819100544324
433,3679.5699999999997,0.9980250112037033
434,3682.2599999999998,0.8908144123529742
435,3684.9500000000003,0.6896271135022449
436,3687.64,0.8212408146515158
437,3690.33,0.8744430158007866
438,3693.02,0.8976865169500575
439,3695.71,0.8858733180993283
440,3698.4,1.1530072192485992
441,3701.09,0.9309502203978699
442,3703.79,0.9120708888376585
443,3706.4799999999996,0.7922672899869294
444,3709.17,0.9273407911362002
445,3711.86,1.075517192285471
446,3714.5499999999997,0.9598677934347419
447,3717.24,0.7705796945840127
448,3719.9300000000003,0.9253511957332834
449,3722.62,1.2299493968825543
450,3725.31,1.500792498031825
451,3728.0,1.575276599181096
452,3730.69,1.5866317003303667
453,3733.38,1.3918988014796378
454,3736.07,1.0513514026289084
455,3738.7599999999998,0.7335173037781794
456,3741.4500000000003,0.8306926049274502
457,3744.15,1.1481608733672388
458,3746.84,1.1990200745165096
459,3749.5299999999997,1.0578484756657804
460,3752.22,1.0527818768150512
461,3754.9100000000003,1.088737977964322
462,3757.6,0.929397579113593
463,3760.29,0.9016286802628638
464,3762.98,0.9980337814121345
465,3765.67,1.0523966825614055
466,3768.36,1.0093120837106762
467,3771.05,0.9183497848599471
468,3773.74,1.162119586009218
469,3776.4300000000003,1.2836784871584888
470,3779.1200000000003,1.0439521883077596
471,3781.81,1.1071879894570305
472,3784.5099999999998,1.043857857896819
473,3787.2,1.14600075904609
474,3789.8900000000003,1.0107079601953606
475,3792.58,1.0105332613446314
476,3795.27,1.0181682624939024
477,3797.96,1.1463867636431733
478,3800.6499999999996,0.923950864792444
479,3801.8939600000003,0.9396252237625788
480,3803.34,0.9578849832808551
481,3806.03,1.049644552570902
482,3808.72,1.0703033218609486
483,3811.41,1.1307156911509952
484,3814.1000000000004,1.150333260441042
485,3816.79,0.9017203297310886
486,3819.48,1.0009968990211353
487,3822.1699999999996,0.9106820683111821
488,3824.8700000000003,0.9035902754052809
489,3827.56,0.8268777446953276
490,3830.25,0.8319822139853743
491,3832.94,0.5871337832754211
492,3835.6299999999997,0.5390347525654677
493,3838.32,0.6611975218555144
494,3841.01,0.9206046911455612
495,3843.7,0.9852362604356079
496,3846.39,1.1696165297256547
497,3849.08,0.9740228990157012
498,3851.77,1.086998768305748
499,3854.46,1.1045013375957946
500,3857.1499999999996,1.0732907068858415
501,3859.84,1.010299076175888
502,3862.53,0.9713765454659348
503,3865.23,1.2360283525600337
504,3867.92,1.1876041218500804
505,3870.6099999999997,1.190018791140127
506,3873.3,0.9924405604301738
507,3875.9900000000002,0.8886870297202204
508,3878.68,0.7934153990102673
509,3881.37,0.9211100683003138
510,3884.06,0.8814608375903605
511,3886.75,0.8949499068804072
512,3889.44,1.029554276170454
513,3892.1299999999997,0.9278396454605007
514,3894.82,1.0190133147505473
515,3897.51,1.088732384040594
516,3900.2,1.0163583533306406
517,3902.9,1.0919834604247396
518,3905.5899999999997,1.3168107297147862
519,3908.28,1.154549799004833
520,3910.97,1.0510674682948797
521,3913.66,1.2074733375849265
522,3916.35,1.2336532068749733
523,3919.04,1.18074947616502
524,3921.73,1.2129709454550666
525,3924.42,1.1009630147451133
526,3927.1099999999997,1.18646378403516
527,3929.8,0.9321783533252067
528,3932.4900000000002,0.7740385226152533
529,3935.18,0.6486235919053001
530,3937.87,0.7349704611953467
531,3940.5600000000004,0.9766545304853934
532,3943.26,1.2022902375794924
533,3945.95,0.9883775068695391
534,3948.64,1.0829461761595858
535,3951.33,1.0934849454496325
536,3954.02,1.002834114739679
537,3956.71,1.060458784029726
538,3959.4,1.0658453533197727
539,3962.0899999999997,0.9551605226098193
540,3964.7799999999997,0.789645091899866
541,3967.4700000000003,0.6134021611899126
542,3970.16,0.8056028304799594
543,3972.85,0.913025099770006
544,3975.54,1.2019686690600528
545,3978.23,1.0753497383500994
546,3980.92,0.8928696076401461
547,3983.62,1.130231414734245
548,3986.31,1.3758954840242916
549,3988.9999999999995,1.4676983533143384
550,3991.69,1.4104662226043851
551,3994.38,1.6425180918944318
552,3997.0699999999997,1.4561009611844784
553,3999.7599999999998,1.4218648304745254
554,4002.4500000000003,1.5071596997645718
555,4005.14,1.4063235690546187
556,4007.83,1.3395474383446655
557,4010.52,1.3122523076347121
558,4013.21,1.4216271769247588
559,4015.9,1.5179860462148054
560,4018.59,1.507720915504852
561,4021.2799999999997,1.4872597847948987
562,4023.9799999999996,1.517011991888998
563,4026.67,1.5258368611790445
564,4029.36,1.4993017304690912
565,4032.0499999999997,1.4887105997591379
566,4034.74,1.4809404690491845
567,4037.4300000000003,1.4128623383392314
568,4040.12,1.485683207629278
569,4042.81,1.3935250769193246
570,4045.5,1.4215489462093713
571,4048.19,1.3718008154994181
572,4050.88,1.4459236847894648
573,4053.57,1.4390215540795115
574,4056.2599999999998,1.373437423369558
575,4058.9500000000003,1.3883362926596048
576,4061.6400000000003,1.3734071619496515
577,4064.34,1.2726733690437506
578,4067.0299999999997,1.3321532383337973
579,4069.72,1.3114751076238438
580,4072.4100000000003,1.4351669769138906
581,4075.1,1.3844428462039373
582,4077.79,1.3042167154939839
583,4080.48,1.3852815847840305
584,4083.17,1.4750234540740772
585,4085.86,1.354012323364124
586,4088.55,1.2917911926541708
587,4091.24,1.3795810619442175
588,4093.9300000000003,1.2286759312342643
589,4096.62,1.1761405005243109
590,4099.3099999999995,1.1134742698143576
591,4102.01,1.2919808769084564
592,4104.7,1.309265746198503
593,4107.39,1.17283141548855
594,4110.08,1.2110834847785965
595,4112.77,1.3643773540686432
596,4115.46,1.31810022335869
597,4118.15,1.4132660926487368
598,4120.84,1.5621229619387833
