,lambda (Angstroms),Total Flux (erg/s/cm^2/Angstrom)
0,100.00999999999999,1.910261279068999
1,102.10000000000001,1.9042905131062426
2,104.0,1.8988625441210105
3,104.712855,1.8968260416665799
4,105.94,1.8784109032306284
5,107.89999999999999,1.8489981843978947
6,109.91000000000001,1.8188351423412124
7,114.03999999999999,1.7568583438779615
8,118.04,1.6968323907493696
9,120.22644299999999,1.664021596822991
10,121.07,1.6534085129265002
11,125.03999999999999,1.6034605180898964
12,127.07,1.5779203593892699
13,127.95,1.566848767641646
14,130.93,1.5293563212265044
15,132.14,1.5141329011086964
16,133.98,1.4909832091100732
17,137.1,1.4517294222305506
18,138.038426,1.4399227568433743
19,139.97,1.4225522315708525
20,142.9,1.3962035599928584
21,146.91,1.3601436350001517
22,151.02,1.3231830424755915
23,154.9,1.2882909271634935
24,158.489319,1.2560129234964548
25,158.86999999999998,1.2534247962844254
26,161.82,1.2333687350578197
27,165.97,1.2051543885231715
28,169.84,1.178843685819533
29,173.0,1.1573600456374198
30,177.03,1.1299616770307759
31,179.89999999999998,1.1104497673981732
32,181.970086,1.0963761383466228
33,181.99,1.0962728524287895
34,185.79999999999998,1.0765120190469615
35,191.0,1.0495418543528652
36,194.11,1.0334117931799347
37,198.17000000000002,1.0123544765819288
38,201.85999999999999,0.9932165108564261
39,205.14000000000001,0.9762047976015346
40,208.929613,0.956549546504727
41,209.91,0.9527267174595416
42,215.79000000000002,0.9298008275787256
43,219.81,0.9141266273452086
44,222.86,0.902234173196197
45,227.01,0.8860533260311481
46,230.17,0.8737465424085328
47,233.91,0.859195041936007
48,239.88329199999998,0.8359244521035234
49,239.91,0.8358442947568555
50,246.06,0.8173628726775055
51,251.79,0.8001550555721598
52,257.06,0.7843048025083429
53,260.04,0.7753668520327879
54,264.27,0.7626641900446008
55,269.18,0.7479134549985019
56,274.18,0.7328918104079737
57,275.42287,0.7291578244629001
58,279.28000000000003,0.720265131112176
59,283.82,0.7097985672146366
60,289.76,0.6960973731169751
61,295.83000000000004,0.6821052070821589
62,301.33,0.66942291051025
63,308.35,0.6532395617039227
64,316.227766,0.6350796752579473
65,317.72,0.6325107865031633
66,328.13,0.6145852325843987
67,338.1,0.5974158575619123
68,348.37,0.5797290433555998
69,357.31,0.564333259717583
70,363.078055,0.5544007604427331
71,365.63,0.5511101625116226
72,375.01,0.5390121422334879
73,384.63,0.5265995050537804
74,395.4,0.5127143579082034
75,404.60999999999996,0.5008370372728492
76,414.04,0.48867329955272015
77,416.86938299999997,0.4850230968295399
78,421.74,0.48022440914109044
79,429.58000000000004,0.4725015445849847
80,440.6,0.46164732048622387
81,450.86,0.4515391374184122
82,460.3,0.4422387435182033
83,469.94,0.4327417593624816
84,478.630092,0.42418178090311104
85,479.78,0.4233106615117669
86,489.82,0.4157003987273034
87,500.08,0.40792913930294117
88,505.87,0.4035397407710644
89,511.73,0.3991111035446743
90,520.04,0.39281461711032256
91,529.7099999999999,0.3854854491111431
92,539.56,0.3780168316975011
93,549.5408739999999,0.37045663506189797
94,549.59,0.3704282504499345
95,559.8100000000001,0.36452724698293654
96,570.22,0.3585152035522666
97,579.48,0.35315904119645436
98,590.26,0.34693363883126477
99,599.85,0.34138580361223253
100,609.59,0.3357427049008274
101,619.5,0.3300400044113999
102,629.56,0.32422612882959967
103,630.957344,0.3234186405765566
104,639.79,0.3193725385084061
105,650.1899999999999,0.31461138521836385
106,657.72,0.31116177521874666
107,665.3299999999999,0.3076805763138216
108,674.59,0.30343782199941854
109,685.5500000000001,0.29840864977222015
110,695.09,0.2940604233392391
111,704.76,0.2896191692976325
112,716.21,0.2843936855379225
113,724.43596,0.28062707035275275
114,726.17,0.28003781362933317
115,734.5799999999999,0.27718159634559897
116,744.8000000000001,0.2737183103796341
117,755.16,0.2702029225045466
118,765.67,0.26662405708397025
119,774.53,0.2636347462637698
120,785.3100000000001,0.2599773624613138
121,794.4,0.2568950206046974
122,805.45,0.2531463629203616
123,814.78,0.24997991789096327
124,824.2099999999999,0.24679380689790573
125,831.763771,0.2441904833531399
126,835.6800000000001,0.24317714300675286
127,845.36,0.2407781036567283
128,855.15,0.23829597383681705
129,865.05,0.23580000064701917
130,875.07,0.23327468949916308
131,885.2,0.23072868208142042
132,895.45,0.22814146890561954
133,905.8199999999999,0.22550206847176058
134,914.2,0.22360445408403262
135,924.7800000000001,0.22470895249857184
136,935.4899999999999,0.22737534196688144
137,944.15,0.23450452901035113
138,954.992586,0.24061272247941343
139,955.0799999999999,0.24066244735835873
140,963.9200000000001,0.24047720640740894
141,975.0799999999999,0.21198075869557637
142,984.1,0.22828464579766145
143,995.5,0.22873118248987548
144,1004.71,0.2419920623701642
145,1014.0100000000001,0.23929425677697036
146,1025.75,0.2129906661249171
147,1035.24,0.2196462323099268
148,1044.8200000000002,0.24699620302145403
149,1054.48,0.24368568553433018
150,1064.24,0.22708982529889235
151,1074.0900000000001,0.23459977958997197
152,1084.03,0.2191149184075692
153,1094.06,0.23320114175168377
154,1096.4782,0.23209280754128483
155,1104.18,0.22891004817876887
156,1114.3999999999999,0.22385735604498458
157,1124.71,0.2159969457710788
158,1135.1200000000001,0.22950389089703815
159,1145.62,0.22108541788287622
160,1156.22,0.22370662026857926
161,1164.23,0.2238534857977757
162,1175.01,0.20092521190323606
163,1185.8799999999999,0.21780164986857503
164,1194.1,0.1946544597374882
165,1205.1499999999999,0.1802457914225844
166,1216.3,0.1718915285075457
167,1224.73,0.19098280271617565
168,1236.06,0.21265314352089415
169,1244.63,0.21769964728933527
170,1256.15,0.2111047153537975
171,1258.92541,0.20710475292260788
172,1264.85,0.19891255684901632
173,1273.6200000000001,0.21769897469332627
174,1285.4099999999999,0.22046417148744424
175,1294.32,0.19860417471353337
176,1306.29,0.1960504098556531
177,1315.3500000000001,0.21375769670507708
178,1324.46,0.20859856476227934
179,1333.65,0.19656344875192683
180,1345.99,0.21093558883160585
181,1355.3200000000002,0.20688888820303247
182,1364.71,0.19564023702379307
183,1374.17,0.1988744235354433
184,1383.6999999999998,0.19831656773798312
185,1396.5,0.18642872692922224
186,1406.1799999999998,0.18750433475509687
187,1415.93,0.18744048027186105
188,1425.74,0.1888082452379592
189,1435.62,0.18674311789494696
190,1442.25,0.1903180420463466
191,1445.43977,0.1914800081919305
192,1445.57,0.19153315770716473
193,1455.59,0.18782913648302402
194,1465.68,0.18035211184713779
195,1475.84,0.17947316379950606
196,1486.07,0.18026690234012888
197,1496.3799999999999,0.18094502412447108
198,1503.28,0.17579506639527237
199,1513.7,0.16642099138972882
200,1517.1899999999998,0.1710597741469892
201,1524.19,0.1680054629724398
202,1534.76,0.15806686779887016
203,1545.4,0.16346883921355507
204,1556.11,0.15910477721649446
205,1563.29,0.1592409358403138
206,1574.1299999999999,0.16213712036429728
207,1585.04,0.16474979147653526
208,1596.03,0.16492910583249268
209,1603.39,0.16317493425468071
210,1614.5100000000002,0.16262275513168223
211,1625.6999999999998,0.15758289259693825
212,1633.1999999999998,0.16130826419563532
213,1644.52,0.1613334281819354
214,1655.9199999999998,0.15479036541195496
215,1659.58691,0.15735823846054872
216,1663.57,0.1602684589609693
217,1671.25,0.15132959577432675
218,1675.1,0.15975135945029367
219,1686.7099999999998,0.1626398320939239
220,1694.5,0.15732793186945182
221,1706.24,0.15374322801382895
222,1714.1200000000001,0.14933933021295087
223,1726.0,0.14823247012736318
224,1733.97,0.15220042475007917
225,1745.98,0.14979925816523842
226,1754.04,0.15399833521154843
227,1766.2,0.14698758266603104
228,1774.3500000000001,0.14806458213593507
229,1786.6499999999999,0.1484624933604529
230,1794.9,0.1529251955232392
231,1803.19,0.15187432876317838
232,1815.68,0.14499163510417248
233,1824.0700000000002,0.14609236103699394
234,1836.71,0.1425296114173114
235,1845.1899999999998,0.13655854977372694
236,1853.7,0.1360809589380071
237,1866.55,0.13707884497337727
238,1875.1699999999998,0.14217954709982797
239,1883.82,0.1359833300341433
240,1896.8799999999999,0.13276584172456624
241,1905.46072,0.1356853591176363
242,1905.64,0.13574975727300304
243,1914.43,0.13282347704656994
244,1923.27,0.1314814163069034
245,1936.6,0.13269795947887686
246,1945.54,0.13474925771274351
247,1954.52,0.13023074553602346
248,1968.0700000000002,0.13550236644976987
249,1977.15,0.136876433246583
250,1986.28,0.1327642195301627
251,1995.45,0.13055092540315572
252,2004.66,0.13208160086556198
253,2013.9099999999999,0.1291973059173815
254,2023.21,0.13193874045596762
255,2037.2299999999998,0.12759408654532006
256,2046.64,0.12976041995479265
257,2056.08,0.12609513305632525
258,2065.5699999999997,0.1258597856446244
259,2075.11,0.13007488771969017
260,2079.89,0.1266872586545764
261,2084.68,0.12901962948681592
262,2094.31,0.12501524063806152
263,2103.97,0.12490732148136713
264,2113.69,0.1250629017087926
265,2123.44,0.12549701162827806
266,2133.2400000000002,0.12056056103453011
267,2143.09,0.12156958992754874
268,2152.98,0.12355500840998065
269,2162.92,0.12105648637917915
270,2172.9,0.12001938393779092
271,2182.93,0.11847766098316931
272,2187.7616199999998,0.11959266588122903
273,2193.0099999999998,0.12089213992843184
274,2203.13,0.11883589272053408
275,2213.3,0.11558773613907952
276,2223.52,0.11354255018406817
277,2233.7799999999997,0.11686148673021136
278,2244.09,0.11413819390279775
279,2254.4500000000003,0.1112835117018273
280,2264.85,0.11220696200201144
281,2275.31,0.1132828910539274
282,2285.81,0.11452566260699792
283,2296.36,0.11087763478651164
284,2306.96,0.11073684759246855
285,2317.61,0.10780923102486863
286,2322.95,0.09669599992900166
287,2333.67,0.1037037302384222
288,2344.45,0.10218326929957462
289,2355.27,0.10562990086188156
290,2366.14,0.10120898305063172
291,2377.06,0.10226907586582505
292,2382.54,0.09878822852399899
293,2393.54,0.10152680634150144
294,2404.59,0.09939241478544707
295,2415.69,0.10022334385583591
296,2426.84,0.10281709355266794
297,2432.43,0.10083534558901691
298,2443.66,0.10339425028815805
299,2454.94,0.10243383561374236
300,2466.27,0.10159002156576989
301,2477.65,0.09945154814424059
302,2483.36,0.10027461768405324
303,2494.83,0.0966111373901217
304,2506.34,0.10203750959734471
305,2511.88643,0.09639139395336807
306,2512.12,0.0961557210949858
307,2517.91,0.09750452089368233
308,2523.72,0.09554787633935191
309,2535.3599999999997,0.09616286287766412
310,2547.07,0.09503743418038196
311,2552.94,0.09863175656697068
312,2564.72,0.0969166126340942
313,2576.56,0.09957908564213686
314,2582.5,0.09869173279313123
315,2594.42,0.09771385838906607
316,2606.3999999999996,0.09577441092592005
317,2612.4,0.09503667501783356
318,2624.46,0.0970979701425797
319,2636.58,0.099164842208245
320,2642.66,0.10343194888805068
321,2654.8500000000004,0.10557088571812162
322,2667.1099999999997,0.09866426731259823
323,2673.25,0.10120517093332305
324,2685.59,0.10125504511569182
325,2697.9900000000002,0.09792260623897975
326,2704.21,0.09972951244759674
327,2716.69,0.09633881615877685
328,2722.96,0.09555026148482645
329,2735.52,0.09801692778389873
330,2748.1499999999996,0.09067825884737668
331,2754.4800000000005,0.0919340111143454
332,2767.2000000000003,0.09367784258920206
333,2773.58,0.09585193397360343
334,2786.38,0.09224356803635224
335,2792.7999999999997,0.0833239107146997
336,2805.69,0.08585731518882722
337,2812.1600000000003,0.09439381698460728
338,2825.14,0.09728684187011351
339,2838.1800000000003,0.09489757369653884
340,2844.7299999999996,0.0928102380802111
341,2857.8599999999997,0.09013204031801518
342,2864.4399999999996,0.09603412817214699
343,2877.67,0.09706318864481626
344,2884.0315,0.09623994239287165
345,2884.3,0.09620726352049223
346,2897.61,0.09672061609213278
347,2910.99,0.10232294254656935
348,2931.17,0.0993021604726179
349,2951.48,0.09781775132385905
350,2971.94,0.09871355478109162
351,2992.5400000000004,0.0986844560039162
352,3013.29,0.09892781983273224
353,3027.2,0.09923016282833856
354,3048.18,0.09920569798634148
355,3069.31,0.10002117575033583
356,3090.58,0.0998612212799222
357,3112.01,0.10099121425589941
358,3133.5800000000004,0.09925148499746866
359,3148.0399999999995,0.09942710421504361
360,3169.8599999999997,0.10012942596659857
361,3191.84,0.09586707516454443
362,3206.57,0.09826757507290396
363,3228.7900000000004,0.0942085204404361
364,3251.1800000000003,0.10027146809475856
365,3273.71,0.10349101351467305
366,3288.82,0.10260445735821087
367,3311.31121,0.10152736131216336
368,3311.6200000000003,0.10151424117766551
369,3319.2500000000005,0.10119414240076241
370,3326.9100000000003,0.10227129016864211
371,3334.57,0.10482207793652182
372,3342.26,0.10084706224918434
373,3349.97,0.10431829425836875
374,3357.69,0.10286164511581408
375,3365.43,0.09546002366978132
376,3373.1899999999996,0.09375207992027042
377,3380.96,0.09955123501902045
378,3388.76,0.10362455666255332
379,3396.5699999999997,0.09906541715434712
380,3404.4,0.1040945953426628
381,3412.25,0.09949117122750036
382,3420.11,0.10213732596059885
383,3428.0,0.10212593723848018
384,3435.9,0.10291792736462242
385,3443.82,0.09482428518728656
386,3451.7599999999998,0.10257397070647258
387,3459.72,0.10049202392218046
388,3467.69,0.0998521659861493
389,3475.69,0.10093844459490095
390,3483.7000000000003,0.10029428205191354
391,3491.73,0.10122972720544801
392,3499.78,0.09584355005550435
393,3507.85,0.10315224060208258
394,3515.93,0.09745120999692175
395,3524.04,0.10166184593654375
396,3532.16,0.10262816072442667
397,3540.3,0.10461602320883148
398,3548.4700000000003,0.10683687223801909
399,3556.64,0.10275981126720674
400,3564.84,0.10442073684117717
401,3573.06,0.09581184011166949
402,3581.3,0.09594327107868368
403,3589.55,0.08842218089395883
404,3597.8300000000004,0.09977620725401679
405,3606.12,0.1008873324623357
406,3614.44,0.0981648842154374
407,3622.77,0.09494120481680006
408,3627.3100000000004,0.10443062192726663
409,3630.05,0.09155791635076406
410,3632.79,0.0835850307742615
411,3635.54,0.10477900404601989
412,3638.2799999999997,0.11563455846951734
413,3641.03,0.1077346817412757
414,3643.77,0.08476436616477315
415,3646.51,0.10677140058827059
416,3649.2599999999998,0.10364698386002896
417,3652.0000000000005,0.1082094282835264
418,3654.75,0.11279393155528478
419,3657.49,0.10924022597878223
420,3660.23,0.10222699040227967
421,3662.98,0.10598954367403805
422,3665.7200000000003,0.09726446809753547
423,3668.47,0.10257295136929387
424,3671.2099999999996,0.10531608579279132
425,3673.9500000000003,0.10600050021628875
426,3676.7,0.10846030348804712
427,3679.44,0.10725188791154457
428,3682.19,0.10087157118330295
429,3684.9300000000003,0.09943125560680038
430,3687.67,0.09192029003029782
431,3690.4199999999996,0.10898168330205622
432,3693.16,0.10772424772555365
433,3695.8999999999996,0.1073415821490511
434,3698.65,0.10124971542080947
435,3701.39,0.09955297984430692
436,3704.1400000000003,0.1066562631160653
437,3706.88,0.10763477753956274
438,3709.6200000000003,0.10190165196306018
439,3712.37,0.10543606523481855
440,3715.1099999999997,0.104791349658316
441,3717.86,0.11351784293007439
442,3720.6,0.12729183735357183
443,3723.34,0.16951875177706927
444,3726.09,0.19265428504882764
445,3728.8300000000004,0.1884785494723251
446,3731.58,0.15018768274408345
447,3734.3199999999997,0.1169916471675809
448,3737.06,0.10234299159107835
449,3739.81,0.10982709486283673
450,3742.55,0.08735070928633415
451,3745.2999999999997,0.10347511255809255
452,3748.0400000000004,0.08767454698158998
453,3750.78,0.10239681140508741
454,3753.5299999999997,0.10996575467684581
455,3756.27,0.11003179910034325
456,3759.02,0.10658121237210164
457,3761.76,0.10643232679559907
458,3764.5,0.1089662012190965
459,3767.2499999999995,0.10387165449085489
460,3769.99,0.10292716891435233
461,3772.7300000000005,0.10719928333784977
462,3775.48,0.11011720660960814
463,3778.22,0.11368612103310559
464,3780.9700000000003,0.12377565430486397
465,3783.71,0.12380778872836141
466,3786.4500000000003,0.12420755315185884
467,3789.2,0.11699577642361723
468,3791.9399999999996,0.10453218084711469
469,3794.69,0.10058956411887304
470,3797.43,0.10525756854237049
471,3800.17,0.11088144296586794
472,3801.8939600000003,0.11185144521604284
473,3802.92,0.11243265907946982
474,3805.6600000000003,0.12143786589064343
475,3808.41,0.12383077958798917
476,3811.1499999999996,0.12480278639916277
477,3813.89,0.12062040321033637
478,3816.64,0.11783632690768213
479,3819.38,0.1185519137188557
480,3822.13,0.11243277741620147
481,3824.8700000000003,0.10281886422737506
482,3827.61,0.10296694103854866
483,3830.3599999999997,0.10150450473589442
484,3833.1,0.094245291547068
485,3835.85,0.09064120524441377
486,3838.59,0.09490673205558735
487,3841.33,0.10957720886676095
488,3844.0800000000004,0.11429095256410671
489,3846.82,0.1208433993752803
490,3849.5600000000004,0.11671755618645388
491,3852.31,0.11657666988379965
492,3855.0499999999997,0.12029741669497324
493,3857.8,0.12067685039231899
494,3860.54,0.12743672720349258
495,3863.28,0.1313083140146662
496,3866.0299999999997,0.12807170771201193
497,3868.7700000000004,0.1263722645231855
498,3871.52,0.1272210882205313
499,3874.2599999999998,0.12231856503170488
500,3877.0,0.11803624184287848
501,3879.75,0.11420772554022422
502,3882.4900000000002,0.10640180235139782
503,3885.24,0.10152887604874357
504,3887.9799999999996,0.10718200285991718
505,3890.72,0.10941711967109077
506,3893.47,0.11248501336843653
507,3896.21,0.12316058017961012
508,3898.96,0.12684303387695586
509,3901.7000000000003,0.12117128068812945
510,3904.44,0.12221491749930305
511,3907.19,0.12660059119664882
512,3909.93,0.12875843800782238
513,3912.68,0.13029353170516816
514,3915.42,0.12748181851634174
515,3918.16,0.12393096532751535
516,3920.9100000000003,0.1251587890248611
517,3923.65,0.11742451583603469
518,3926.3900000000003,0.11061777264720828
519,3929.14,0.09973076634455405
520,3931.8799999999997,0.08846905315572764
521,3934.63,0.0935354168530734
522,3937.37,0.10381125366424698
523,3940.11,0.11453772047542057
524,3942.86,0.12218684417276633
525,3945.6000000000004,0.12040632098393993
526,3948.35,0.12397566468128568
527,3951.0899999999997,0.1274927814924593
528,3953.83,0.12162308830363287
529,3956.58,0.11192755200097862
530,3959.32,0.1057655888121522
531,3962.0699999999997,0.09834752250949799
532,3964.81,0.09053402932067156
533,3967.55,0.09091397613184515
534,3970.2999999999997,0.09184966982919092
535,3973.04,0.10680481664036451
536,3975.79,0.11437477033771026
537,3978.53,0.12468081714888385
538,3981.27,0.12806786396005745
539,3984.02,0.1291976576574032
540,3986.7599999999998,0.1341476444685768
541,3989.51,0.13732103816592256
542,3992.25,0.13788962497709614
543,3994.99,0.14205151178826975
544,3997.7400000000002,0.13652050548561548
545,4000.48,0.14758069229678908
546,4003.2200000000003,0.1419881791079627
547,4005.97,0.14110817280530843
548,4008.7099999999996,0.14443115961648204
549,4011.46,0.1451122533138278
550,4014.2,0.1407319401250014
551,4016.94,0.14626632693617497
552,4019.69,0.1418175206335207
553,4022.4300000000003,0.14334570744469433
554,4025.18,0.1453747011420401
555,4027.9199999999996,0.14454818795321367
556,4030.66,0.13968707476438727
557,4033.41,0.147926268461733
558,4036.15,0.1480423552729066
559,4038.9,0.14422884897025237
560,4041.6400000000003,0.14510853578142596
561,4044.38,0.13711032259259956
562,4047.13,0.14479901628994532
563,4049.87,0.14409500310111892
564,4052.62,0.15092389679846466
565,4055.36,0.14772948360963825
566,4058.1,0.14581707042081185
567,4060.85,0.1383291641181576
568,4063.59,0.13961595092933118
569,4066.34,0.13618894462667697
570,4069.08,0.14143873143785055
571,4071.8199999999997,0.13575381824902413
572,4074.57,0.1424602119463699
573,4077.31,0.13594569875754348
574,4080.05,0.14489068556871706
575,4082.7999999999997,0.13683527926606284
576,4085.5399999999995,0.13701356607723644
577,4088.29,0.1378756597745822
578,4091.0299999999997,0.13456804658575577
579,4093.77,0.12403221339692937
580,4096.52,0.12197396709427513
581,4099.26,0.12219374390544872
