,lambda (Angstroms),Total Flux (erg/s/cm^2/Angstrom)
0,102.05000000000001,31.794805132276494
1,103.95,31.704184351796787
2,104.712855,31.667799869958692
3,105.88,31.375388455169748
4,108.10000000000001,30.819199343422195
5,110.11,30.315622715221775
6,113.96999999999998,29.348555160570776
7,117.97999999999999,28.343907260540572
8,120.22644299999999,27.781093235100144
9,121.01,27.616508788573643
10,124.97,26.784719386774746
11,127.0,26.358322294454336
12,127.88000000000001,26.173480205195908
13,130.86,25.547537675639298
14,132.07,25.293379803004747
15,133.91,24.90689179825088
16,137.03,24.25154257304228
17,138.038426,24.039724881447857
18,139.9,23.760230481079546
19,143.16,23.27077814776837
20,147.17,22.668721757895828
21,150.94,22.102698662408756
22,155.17,21.46761174243205
23,158.489319,20.96925333400418
24,159.14999999999998,20.894260987633754
25,162.10999999999999,20.55827835157821
26,165.89,20.129219449545882
27,170.14000000000001,19.64681195451105
28,172.91,19.332395781365022
29,176.93,18.876095055373995
30,179.81,18.549193048076443
31,181.89000000000001,18.313097154866217
32,181.970086,18.30400678201666
33,186.13000000000002,17.943776990999485
34,190.9,17.530716522041356
35,194.0,17.26227052179056
36,198.07000000000002,16.909826908495173
37,202.21,16.551321625810747
38,205.03,16.307122389741995
39,208.929613,15.96943354161467
40,209.79999999999998,15.912768114801624
41,216.17999999999998,15.497406506320548
42,220.20000000000002,15.235689650329999
43,222.75,15.069675242133123
44,226.89000000000001,14.800145983578865
45,230.04,14.595070208206431
46,233.78,14.351584248500213
47,239.78,13.96096373890762
48,239.88329199999998,13.954239053427747
49,245.93,13.65087921603768
50,252.24,13.334311086217177
51,256.93,13.099015557827364
52,259.9,12.950013902706608
53,264.12,12.738299899303156
54,269.03,12.491968741348918
55,274.04,12.2406206584863
56,275.42287,12.171243085755973
57,279.13,12.028508884017999
58,284.32,11.82868040413903
59,290.27,11.599589312458171
60,295.67,11.391675891429994
61,301.17,11.17991136129315
62,308.18,10.910008876454388
63,316.227766,10.600149940496102
64,318.28000000000003,10.541132864788818
65,327.95,10.263048155234646
66,337.92,9.976335990317065
67,348.18,9.681284152292523
68,357.11,9.424480314545423
69,363.078055,9.252854728507785
70,366.28000000000003,9.183897319308244
71,374.81,9.000194114446106
72,385.31,8.774062649835441
73,395.19,8.561287654741216
74,405.33,8.342912098859776
75,413.82,8.16007063272644
76,416.86938299999997,8.094398411979531
77,422.48,8.002124399692288
78,430.34000000000003,7.872856910445645
79,441.37999999999994,7.691291760981961
80,450.62,7.539328704927355
81,460.04999999999995,7.384240169669626
82,469.68999999999994,7.225698637886337
83,478.630092,7.0786687006728375
84,479.52000000000004,7.0674127360669
85,489.56,6.9404197322109225
86,499.81,6.8107737867834555
87,505.6,6.737537303426673
88,511.46,6.6634223415127245
89,519.77,6.558312417898067
90,529.43,6.436126145509547
91,540.52,6.2958495023961225
92,549.5408739999999,6.181748400813897
93,550.5600000000001,6.171915017273923
94,559.51,6.085562340139381
95,569.91,5.985216702952313
96,580.51,5.882936663509725
97,589.9399999999999,5.7919498594419325
98,599.53,5.699413924029724
99,610.6700000000001,5.591911155937229
100,620.59,5.496213451683412
101,630.68,5.398854516832401
102,630.957344,5.396178549280491
103,639.45,5.331221186293808
104,649.84,5.251748212199183
105,657.37,5.194150021617226
106,664.98,5.135944653650998
107,674.23,5.065192268957226
108,685.1899999999999,4.981353212612173
109,694.72,4.908467898323453
110,704.38,4.834571065447795
111,715.8299999999999,4.747000584736587
112,724.43596,4.681174219325994
113,725.7800000000001,4.673543266026312
114,734.1899999999999,4.625795242511732
115,744.4000000000001,4.567828919191297
116,754.76,4.5090094258620415
117,765.26,4.449381445144552
118,774.1199999999999,4.39909535310351
119,784.89,4.3379459224301415
120,795.81,4.275949655947953
121,805.0200000000001,4.223662566186325
122,814.34,4.170748555398231
123,825.67,4.106427667471931
124,831.763771,4.0718116271500335
125,835.23,4.057091588133875
126,844.91,4.0160407265853175
127,854.69,3.9745371068461735
128,864.5899999999999,3.9325314660783293
129,874.5999999999999,3.890059453500843
130,884.7199999999999,3.847122662113713
131,894.9699999999999,3.803630650878823
132,905.33,3.759662988134291
133,915.8199999999999,3.715265967142
134,924.29,3.6810009284995107
135,934.99,3.6380208981069915
136,945.82,3.596220690866714
137,954.57,3.562842355190588
138,954.992586,3.5611223092437014
139,965.62,3.5188400001892384
140,974.5600000000001,3.4699182155574624
141,985.84,3.4333049457267664
142,994.97,3.3962486658779834
143,1004.1700000000001,3.3644380180018834
144,1015.8000000000001,3.3155056700345953
145,1025.2,3.2654142805090154
146,1034.68,3.231736703523642
147,1044.26,3.2051101692135293
148,1053.92,3.1648715414436235
149,1066.12,3.1088769738253172
150,1075.99,3.0723638619734572
151,1085.95,3.0257918212293315
152,1095.99,2.991257607025413
153,1096.4782,2.9891963448481262
154,1106.13,2.9557091805867555
155,1113.8,2.92888210963586
156,1124.11,2.89141630994828
157,1134.51,2.8629355891674027
158,1145.01,2.8246196682828635
159,1155.6,2.790803756305029
160,1166.29,2.755836374223532
161,1174.38,2.718825094837254
162,1185.24,2.6910397695795307
163,1196.21,2.64393662520778
164,1204.5,2.6097588656141766
165,1215.65,2.5662684890558327
166,1224.07,2.54931727232747
167,1235.3999999999999,2.522776403582535
168,1243.96,2.497569910709043
169,1255.47,2.4571475997775156
170,1258.92541,2.443433268693884
171,1264.18,2.4277074553210523
172,1275.8700000000001,2.409190148261781
173,1284.72,2.3902023025069004
174,1293.6200000000001,2.359819650109337
175,1305.5900000000001,2.3305646078510414
176,1314.6399999999999,2.31788836552543
177,1323.76,2.2942810919000616
178,1336.0,2.259968671771278
179,1345.27,2.2452024582178614
180,1354.59,2.2214686580217617
181,1363.98,2.194316366525905
182,1373.4299999999998,2.1737964910588303
183,1386.1399999999999,2.1438838464888272
184,1395.75,2.115415103765166
185,1405.43,2.093760069741749
186,1415.17,2.071182641747112
187,1424.9800000000002,2.0488529024527184
188,1434.85,2.024931179187108
189,1441.48,2.011490890367349
190,1445.43977,2.002458176563748
191,1448.1299999999999,1.9982905203522812
192,1454.82,1.985920837496287
193,1464.9,1.965659732475596
194,1475.05,1.948682111864484
195,1485.28,1.9324555077214611
196,1495.57,1.916054555929506
197,1505.94,1.8965194006056405
198,1512.89,1.880342041270938
199,1516.3799999999999,1.8772355496913538
200,1523.38,1.8643772706492072
201,1533.94,1.8417208544370551
202,1544.5700000000002,1.8276270626344808
203,1555.28,1.807511307299997
204,1566.06,1.790128586375092
205,1573.29,1.7807690646787036
206,1584.19,1.7646255584559325
207,1595.1699999999998,1.7473482987012519
208,1606.2299999999998,1.7278331654146608
209,1613.64,1.715697080771474
210,1624.83,1.6946109742455286
211,1636.0900000000001,1.6785276621291612
212,1643.64,1.6668937563051323
213,1655.0400000000002,1.644079003007922
214,1659.58691,1.6381634378612997
215,1666.51,1.632665674715715
216,1670.35,1.622961214744325
217,1678.0600000000002,1.621510807614268
218,1685.8100000000002,1.614639794234509
219,1693.5900000000001,1.6021029236674733
220,1705.33,1.5868823943799422
221,1713.2,1.5770224422510772
222,1725.08,1.563480366089589
223,1733.0400000000002,1.5582053223988945
224,1745.05,1.5428164184258748
225,1753.11,1.5381906541109256
226,1765.26,1.5179614432639488
227,1773.3999999999999,1.5115690564495958
228,1785.7,1.4980850596662365
229,1793.94,1.494809362227628
230,1806.3799999999999,1.4784431685703123
231,1814.71,1.4659606395698745
232,1823.09,1.4566729552573094
233,1835.7299999999998,1.4394193103514836
234,1844.2,1.4244250244770886
235,1856.98,1.412175542697306
236,1865.55,1.4062332161986564
237,1874.17,1.3987905843878792
238,1887.1599999999999,1.380627272297161
239,1895.8700000000001,1.3708237989245544
240,1904.62,1.3623057393022462
241,1905.46072,1.361283956920003
242,1913.41,1.3541393117034937
243,1926.67,1.3402690578231717
244,1935.5700000000002,1.3283479660784612
245,1944.5000000000002,1.3320143847548358
246,1953.48,1.3223612174663524
247,1967.02,1.3180533941828263
248,1976.1000000000001,1.310169454964627
249,1985.22,1.3014656429745415
250,1994.38,1.2925833482125697
251,2003.5900000000001,1.28412627748574
252,2012.83,1.2750430771799954
253,2026.79,1.2627703397916628
254,2036.1399999999999,1.2574080643632308
255,2045.5400000000002,1.2539322529699406
256,2054.98,1.2423105588047645
257,2064.47,1.2332786486747302
258,2074.0,1.2335187257728097
259,2078.78,1.2363962995323918
260,2083.5699999999997,1.2365997000990032
261,2093.19,1.223115208460338
262,2102.85,1.2119055540497872
263,2117.42,1.2026524418901876
264,2127.2,1.1935838691639775
265,2137.02,1.177048553665881
266,2146.88,1.177458725395898
267,2156.79,1.1716076411610574
268,2166.75,1.1573490909613586
269,2176.75,1.1496072779897737
270,2186.79,1.1455579422463025
271,2187.7616199999998,1.1451890638367972
272,2196.89,1.1442872359591643
273,2207.03,1.1350086495854201
274,2217.22,1.1195855102019436
275,2227.45,1.113940962410681
276,2232.59,1.1243755570101834
277,2242.89,1.1135338470052956
278,2253.24,1.0978727639906751
279,2263.64,1.0929733779663222
280,2274.09,1.0924615489322367
281,2284.59,1.0948804968884187
282,2295.13,1.080156196436815
283,2305.73,1.0799568883735324
284,2316.37,1.0677312519024635
285,2327.06,1.0409272124216624
286,2332.43,1.0438379611763957
287,2343.19,1.028026259481969
288,2354.01,1.041719490175863
289,2364.87,1.0171944124619716
290,2375.79,1.019602447136401
291,2386.76,0.9978670688010979
292,2392.2599999999998,1.0024384477305268
293,2403.2999999999997,0.9944242771815984
294,2414.39,0.9929933836229372
295,2425.54,1.0046335824525974
296,2436.73,0.9962118228744714
297,2442.35,1.0018901265805422
298,2453.62,0.9964868401868445
299,2464.95,0.9867348461814678
300,2476.33,0.9736566491663585
301,2487.7599999999998,0.9617265191415167
302,2493.49,0.9561424222261761
303,2505.0,0.9717297153857625
304,2510.78,0.9382223554606892
305,2511.88643,0.936699909709271
306,2516.56,0.9309689643678889
307,2522.37,0.9290008527127566
308,2534.0099999999998,0.9319048252487737
309,2545.7000000000003,0.9289687624004953
310,2557.4599999999996,0.9419523600142036
311,2563.35,0.9296477317441985
312,2575.1800000000003,0.9355970998198927
313,2587.07,0.9268356154344326
314,2593.03,0.9200267376264138
315,2605.0,0.908830886626081
316,2617.03,0.8992538031645936
317,2623.06,0.9116651858185614
318,2635.17,0.9252878457422011
319,2647.33,0.9462107202815455
320,2653.43,0.9617334033974996
321,2665.6800000000003,0.9224208842451118
322,2677.98,0.9302473797084292
323,2684.16,0.9332024462095103
324,2696.5499999999997,0.9097262479810957
325,2702.76,0.9206967832515995
326,2715.24,0.8958233913314532
327,2727.77,0.887556214027011
328,2734.06,0.8972470326826423
329,2746.6800000000003,0.8532943016864684
330,2753.01,0.8631335720346632
331,2765.72,0.8713799073467579
332,2772.0899999999997,0.8790449093875163
333,2784.89,0.8457094710078787
334,2797.7400000000002,0.8022736272439456
335,2804.1899999999996,0.8073485126698317
336,2817.1400000000003,0.8548907781373076
337,2823.6299999999997,0.8819133552557572
338,2836.66,0.8722794241083603
339,2843.2000000000003,0.8592160158425142
340,2856.3300000000004,0.8295539139265266
341,2862.9100000000003,0.8705987973532443
342,2876.13,0.8754563017455248
343,2882.7599999999998,0.8664057997879474
344,2884.0315,0.8664104926532837
345,2896.06,0.8680015230431614
346,2909.4300000000003,0.8997760980513355
347,2929.6,0.8783744109843851
348,2949.91,0.8670864461688292
349,2970.35,0.8721603948724254
350,2990.94,0.8686130745596583
351,3011.67,0.869719376498286
352,3032.55,0.8662293094205504
353,3046.55,0.8674672345599997
354,3067.67,0.8695563770560836
355,3088.93,0.8682723418035618
356,3110.3399999999997,0.869740437534677
357,3131.9,0.8573112642494288
358,3153.61,0.8538953219478179
359,3168.17,0.8583862360928454
360,3190.13,0.830431112097296
361,3212.2400000000002,0.8416494190853834
362,3227.07,0.8138114690009574
363,3249.44,0.846985003027349
364,3271.96,0.8647657680373777
365,3287.06,0.857811953723498
366,3309.85,0.8502265545040733
367,3311.31121,0.8493763000537324
368,3325.12,0.8425862850895035
369,3332.79,0.8490198632113637
370,3340.47,0.8283985517349473
371,3348.1699999999996,0.8716717610619776
372,3355.8900000000003,0.8566333911924547
373,3363.63,0.7943331421263788
374,3371.38,0.8068640034620264
375,3379.15,0.8543496856011206
376,3386.94,0.8443639885436618
377,3394.7500000000005,0.8365409122896498
378,3402.58,0.8779327568390847
379,3410.42,0.8250475117902427
380,3418.28,0.821874387544848
381,3426.16,0.8347938841028999
382,3434.06,0.8657015014643985
383,3441.98,0.817388439629344
384,3449.91,0.8205409881960131
385,3457.87,0.8310495679678522
386,3465.84,0.809711658141415
387,3473.82,0.847194858716701
388,3481.8300000000004,0.815351490497157
389,3489.86,0.8375947430810604
390,3497.9,0.8095119060666869
391,3505.97,0.8443108002574838
392,3514.05,0.813358004850004
393,3522.15,0.8410470302459709
394,3530.27,0.8042064764453849
395,3538.4100000000003,0.8414178434482456
396,3546.57,0.8498310312545532
397,3554.7400000000002,0.8485649294625841
398,3562.94,0.8309933588757853
399,3571.15,0.7910630986907099
400,3579.3799999999997,0.7993929593090814
401,3587.63,0.7588348407308996
402,3593.31,0.8652422489098
403,3595.9999999999995,0.8120758469733991
404,3598.69,0.7646837450369978
405,3601.38,0.7732001431005968
406,3604.08,0.8250551515659192
407,3606.7700000000004,0.8187617496295181
408,3609.46,0.824556247693117
409,3612.15,0.8351946457567159
410,3614.84,0.8347539438203149
411,3617.5400000000004,0.8063332522856371
412,3620.23,0.8583746503492362
413,3622.92,0.8774050484128352
414,3625.61,0.8953397464764341
415,3628.31,0.8462737549417564
416,3631.0,0.7619658530053552
417,3633.69,0.7693604510689542
418,3636.38,0.8164450491325532
419,3639.08,0.8440110575978754
420,3641.7699999999995,0.8463184556614745
421,3644.46,0.8335376537250734
422,3647.15,0.8357058517886723
423,3649.85,0.8705071602539947
424,3652.5400000000004,0.8776931583175935
425,3655.23,0.7488253563811924
426,3657.92,0.7153645544447915
427,3660.62,0.8643572629101138
428,3663.3100000000004,0.8594206609737127
429,3666.0,0.9311071590373117
430,3668.69,0.8453469571009107
431,3671.39,0.838153865566233
432,3674.08,0.888708163629832
433,3676.77,0.8165142616934309
434,3679.46,0.8314573597570297
435,3682.15,0.8985784578206286
436,3684.85,0.8239800662859511
437,3687.5400000000004,0.8362272643495499
438,3690.23,0.8201505624131489
439,3692.92,0.7936904604767477
440,3695.62,0.8899572689420703
441,3698.3100000000004,0.911866167005669
442,3701.0,0.788111765069268
443,3703.69,0.7580425631328669
444,3706.39,0.7688859715981894
445,3709.08,0.8612520696617882
446,3711.77,0.8664553677253872
447,3714.46,0.8677799657889861
448,3717.16,0.9168083742543085
449,3719.85,0.9515615723179074
450,3722.54,1.0142388703815064
451,3725.23,1.1431736684451053
452,3727.93,1.0961502769104277
453,3730.62,1.0235305749740267
454,3733.3100000000004,0.8803053730376253
455,3736.0,0.8348699711012244
456,3738.7,0.8626185795665469
457,3741.39,0.7991296776301458
458,3744.0800000000004,0.7992454756937445
459,3746.77,0.8224500737573436
460,3749.47,0.7915248822226659
461,3752.16,0.8291999802862648
462,3754.85,0.8906769783498637
463,3757.54,0.9053765764134627
464,3760.23,0.9146237744770616
465,3762.93,0.875740982942384
466,3765.62,0.8152783810059829
467,3768.3100000000004,0.8002973790695818
468,3771.0,0.8210321771331808
469,3773.7,0.8854704855985032
470,3776.39,0.916145283662102
471,3779.0800000000004,0.9215746817257009
472,3781.77,0.9095766797892999
473,3784.47,1.0278794882546223
474,3787.16,1.0318393863182211
475,3789.8500000000004,0.9383308843818201
476,3792.54,0.919114982445419
477,3795.24,0.8787276909107415
478,3797.93,0.8622858889743403
479,3800.62,0.8861513870379393
480,3801.8939600000003,0.9077131354413301
481,3803.31,0.9317695105414039
482,3806.01,0.9667156821628782
483,3808.7,0.8991106083339027
484,3811.39,0.8908575345049271
485,3814.0800000000004,0.9456702606759515
486,3816.78,0.8758783322974257
487,3819.47,0.8703037584684502
488,3822.16,0.8806695846394745
489,3824.8500000000004,0.8306133108104989
490,3827.54,0.9117236369815234
491,3830.24,0.7309583086029978
492,3832.93,0.7959454347740221
493,3835.6200000000003,0.7468108609450466
494,3838.31,0.756028587116071
495,3841.01,0.8342309587375452
496,3843.7,0.9603618849085698
497,3846.39,0.9441084110795941
498,3849.08,0.9140362372506183
499,3851.78,0.9497218088720927
500,3854.47,0.8496359350431172
501,3857.16,0.9287112612141416
502,3859.8500000000004,0.9356071873851659
503,3862.55,0.9523694590066403
504,3865.24,0.9217583851776647
505,3867.93,0.984354311348689
506,3870.6200000000003,0.9124964375197134
507,3873.32,0.9411727091411878
508,3876.0099999999998,0.9431466353122122
509,3878.7,0.8903859614832367
510,3881.3900000000003,0.876810787654261
511,3884.09,0.8789634592757354
512,3886.78,0.8561354854467598
513,3889.47,0.8846330116177843
514,3892.16,0.8689795377888085
515,3894.86,0.9227273094102829
516,3897.55,0.9903756355813071
517,3900.24,0.9518943617523318
518,3902.93,0.9642777879233562
519,3905.6200000000003,1.0310742140943805
520,3908.32,1.015451085715855
521,3911.0099999999998,0.9950321118868793
522,3913.7,0.9992497380579036
523,3916.3900000000003,1.051123264228928
524,3919.09,1.0207337358504023
525,3921.78,1.0281516620214268
526,3924.47,0.9366141881924512
527,3927.1600000000003,0.8168482143634755
528,3929.86,0.7433868859849498
529,3932.55,0.7251590121559743
530,3935.24,0.8075127383269988
531,3937.93,0.8267574644980231
532,3940.63,0.8727570361194974
533,3943.32,0.9267434622905218
534,3946.0099999999998,0.9178034884615462
535,3948.7,0.9686855146325708
536,3951.4,0.9424879862540451
537,3954.09,0.9584716124250694
538,3956.7799999999997,0.8780044385960938
539,3959.47,0.8995189647671182
540,3962.17,0.8926187363885925
541,3964.86,0.8074817625596169
542,3967.55,0.7741397887306413
543,3970.24,0.7362409149016658
544,3972.9300000000003,0.75055474107269
545,3975.63,0.8812479126941644
546,3978.32,0.9125108388651888
547,3981.0099999999998,0.9729326650362133
548,3983.7,1.0446947912072377
549,3986.4,1.031723962828712
550,3989.09,1.0158617889997363
551,3991.7799999999997,1.0418376151707607
552,3994.47,1.0552648413417853
553,3997.17,1.1066639129632594
554,3999.86,1.142997139134284
555,4002.55,1.0813142653053083
556,4005.24,1.086097291476333
557,4007.94,1.060195063097807
558,4010.63,1.1280869892688314
559,4013.32,1.0991457154398558
560,4016.0099999999998,1.0636995416108803
561,4018.7099999999996,1.1294823132323546
562,4021.4,1.154206039403379
563,4024.09,1.0907403655744032
564,4026.7799999999997,1.1197600917454278
565,4029.4799999999996,1.1491311633669021
566,4032.17,1.1093283895379265
567,4034.86,1.107824015708951
568,4037.5499999999997,1.1135723418799754
569,4040.2500000000005,1.1813637135014496
570,4042.94,1.081417339672474
571,4045.63,1.1223508658434986
572,4048.32,1.0598938920145229
573,4051.0099999999998,1.1085586181855474
574,4053.71,1.0739425898070216
575,4056.4,1.125059415978046
576,4059.09,1.0922743421490704
577,4061.7799999999997,1.0731076683200949
578,4064.4799999999996,1.0923391399415692
579,4067.17,1.0755727661125936
580,4069.86,1.0567190922836178
581,4072.5499999999997,1.1039837184546424
582,4075.2500000000005,1.0539316900761166
583,4077.94,1.051966316247141
584,4080.63,1.0310777424181654
585,4083.3199999999997,1.02218136858919
586,4086.02,0.9942964402106642
587,4088.71,1.0465089663816887
588,4091.4,1.061031892552713
589,4094.09,0.9755035187237373
590,4096.79,0.9364875903452117
591,4099.48,0.9165468165162362
592,4102.17,0.9536886426872606
593,4104.860000000001,0.9469140688582849
594,4107.56,0.9719116404797591
595,4110.25,0.9826166666507836
596,4112.94,1.045490892821808
597,4115.63,1.0504304189928324
598,4118.32,1.0901291451638568
599,4121.02,1.0346506167853313
600,4123.71,1.0067876429563556
601,4126.4,1.04890386912738
602,4129.09,1.0575567952984044
