,lambda (Angstroms),Total Flux (erg/s/cm^2/Angstrom)
0,100.03,97.12357374287329
1,101.89,96.85340094229822
2,104.02,96.54400950938164
3,104.712855,96.4433694148966
4,105.96,95.49179897765701
5,107.92,93.99632086004519
6,109.92999999999999,92.46269279045505
7,114.05999999999999,89.31150675692027
8,118.07,86.25188060814273
9,120.22644299999999,84.60651667026646
10,121.09,84.05410392674632
11,125.06,81.51451639307885
12,127.09,80.21593636957596
13,127.97,79.65300512787486
14,130.95000000000002,77.74671524119171
15,131.85999999999999,77.16459316178033
16,134.01,75.78924978719351
17,137.13,73.79340265775305
18,138.038426,73.21228745762184
19,140.0,72.31537101323305
20,142.93,70.97564833291935
21,146.93,69.14667539543872
22,151.05,67.26283326535761
23,154.93,65.4887295137727
24,158.489319,63.86125498189036
25,158.9,63.71928902060125
26,161.85000000000002,62.699520428436486
27,166.01000000000002,61.26147387388387
28,169.86999999999998,59.927132602968506
29,173.03,58.83477032104201
30,177.06,57.44166273130937
31,179.94,56.44609205080712
32,181.970086,55.74432326653999
33,182.01999999999998,55.73115974237384
34,185.82999999999998,54.72637097178268
35,191.04,53.35236848493908
36,194.14000000000001,52.53482382797106
37,198.20999999999998,51.4614668147204
38,201.89,50.490962212323
39,205.17000000000002,49.62594723817622
40,208.929613,48.63444676913642
41,209.95,48.43213307180644
42,215.83,47.26629652466392
43,219.85000000000002,46.469245013278375
44,222.91,45.862534158161395
45,227.04999999999998,45.04169009877454
46,230.21,44.41515275365205
47,233.95,43.67361860039776
48,239.88329199999998,42.49721710232622
49,239.95,42.487024816726176
50,246.11,41.545840049250266
51,251.84,40.67035568851406
52,257.11,39.86515300292621
53,260.09000000000003,39.40984086909601
54,263.71,38.856742906968385
55,269.23,38.0133441455889
56,274.23,37.24939612317315
57,275.42287,37.067138031354915
58,278.69,36.68403723670062
59,283.87,36.07663497979876
60,289.82,35.37894264016974
61,295.88,34.66835265773968
62,300.69,34.104336174165816
63,307.7,33.28235036980147
64,316.227766,32.282393036086944
65,317.78000000000003,32.146447004178405
66,328.19,31.234729722041173
67,338.15999999999997,30.36154810500423
68,347.63,29.532157328369415
69,357.37,28.679119801671256
70,363.078055,28.179204349969073
71,365.7,28.007234853096513
72,375.08,27.392013209299005
73,384.7,26.761049052469435
74,394.57,26.113691751209377
75,404.69,25.449936126688826
76,414.11999999999995,24.831435559589234
77,416.86938299999997,24.65110718780324
78,421.81000000000006,24.40364406621423
79,429.65999999999997,24.010457820020772
80,440.68,23.458495841038065
81,450.94,22.94459891145382
82,460.39,22.471271841587804
83,470.03000000000003,21.988429929014675
84,478.630092,21.557675031509778
85,479.87,21.509911869181828
86,489.92,21.12276710269283
87,500.17,20.727922517758035
88,505.97,20.50450037359981
89,511.83,20.278814262486847
90,520.14,19.958705004855315
91,529.8100000000001,19.586207058516344
92,539.66,19.20676435291315
93,549.5408739999999,18.826182632150267
94,549.6899999999999,18.821801096019367
95,559.91,18.521514900611052
96,570.32,18.215641791501106
97,579.5899999999999,17.943228609400908
98,590.37,17.626513904182534
99,599.96,17.34472031824802
100,609.7099999999999,17.058269184996348
101,619.61,16.767438486922337
102,629.68,16.471580294636357
103,630.957344,16.43404716408461
104,639.9100000000001,16.225512104670944
105,650.3100000000001,15.983347226147227
106,657.8399999999999,15.807999943634382
107,665.4599999999999,15.630553675644887
108,674.72,15.414872826392033
109,685.6800000000001,15.15956485722473
110,695.22,14.937639575100087
111,704.89,14.712340382031401
112,716.34,14.445906235113455
113,724.43596,14.257392368176422
114,726.3100000000001,14.225006368416249
115,734.7199999999999,14.079686524468043
116,744.94,13.903246271471525
117,755.3,13.72429972359835
118,765.81,13.542744233500173
119,774.68,13.38966476652864
120,785.46,13.203550938025465
121,794.55,13.046569119390602
122,805.6,12.855715990482434
123,814.93,12.694587140487574
124,824.37,12.531812801661044
125,831.763771,12.403520846138465
126,835.84,12.350592738018943
127,845.52,12.226565012963441
128,855.31,12.100274392839127
129,865.21,11.972805928646002
130,875.23,11.84380928383235
131,885.36,11.71353062994989
132,895.62,11.581430476895193
133,905.99,11.447522813771686
134,914.37,11.343548305438516
135,924.9599999999999,11.279701227177386
136,935.67,11.24866757029573
137,944.33,11.321663796514668
138,954.992586,11.348875134471923
139,955.26,11.349632248742394
140,964.0999999999999,11.318731326623526
141,975.26,10.648855669423686
142,984.2900000000001,10.982502891716287
143,995.6800000000001,10.88293242090928
144,1004.9,11.061405347613356
145,1014.1999999999999,10.923640958280155
146,1025.94,10.281450829810069
147,1035.43,10.40521951488834
148,1045.01,10.88824591942468
149,1054.68,10.760336743419082
150,1064.44,10.389434986871553
151,1074.29,10.471129849782084
152,1084.23,10.106343432150688
153,1094.26,10.314092233977354
154,1096.4782,10.277844581087873
155,1104.3899999999999,10.166692723951773
156,1114.6100000000001,10.027332774254752
157,1124.9199999999998,9.810208937525177
158,1135.33,10.025477670759425
159,1145.8300000000002,9.798615516961116
160,1153.78,9.818275829085255
161,1164.45,9.770147444225453
162,1175.23,9.214388086325856
163,1186.1,9.532625841393704
164,1194.32,8.99598569242017
165,1205.3700000000001,8.601774573422903
166,1213.73,8.280281622398727
167,1224.96,8.694825729336346
168,1236.29,9.137650506237792
169,1244.86,9.23213915213765
170,1256.38,9.049505611970364
171,1258.92541,8.955576781145362
172,1265.0900000000001,8.746422316072913
173,1273.86,9.145143364682173
174,1285.65,9.176500560018912
175,1294.56,8.6878842114566
176,1303.53,8.614242978392182
177,1315.5900000000001,8.964906193469456
178,1324.71,8.828219749149781
179,1333.89,8.541224420328003
180,1346.24,8.815650026978446
181,1355.5700000000002,8.69833548690141
182,1364.97,8.416011248238588
183,1374.43,8.465698125073663
184,1383.9499999999998,8.432366117406637
185,1393.55,8.113026597070137
186,1406.4399999999998,8.105633243201652
187,1416.19,8.090153511609893
188,1426.01,8.08944708143235
189,1435.8899999999999,8.016542766752705
190,1442.52,8.09520802927031
191,1445.43977,8.112361818426418
192,1445.85,8.11568638234789
193,1455.87,8.015020234209487
194,1465.96,7.808648424357543
195,1476.12,7.765290952792058
196,1486.35,7.767715819513031
197,1496.6499999999999,7.766425024520462
198,1503.56,7.6329245610836995
199,1510.5,7.382607528341134
200,1517.48,7.4811254031908305
201,1524.48,7.397712231836657
202,1535.05,7.1087463130918565
203,1545.69,7.238130732633512
204,1556.4,7.090318490461628
205,1563.59,7.0969653801707
206,1574.42,7.174742860775599
207,1585.3400000000001,7.225234633463089
208,1596.33,7.22898274443704
209,1603.7,7.158375218311287
210,1614.8100000000002,7.124411052062022
211,1626.0,6.9616647009972805
212,1633.51,7.065959851444446
213,1644.83,7.056109700054556
214,1656.23,6.841831363849187
215,1659.58691,6.912257504496504
216,1663.88,7.008951487443239
217,1671.56,6.749865456938098
218,1675.4099999999999,6.9976503557083065
219,1683.1499999999999,7.073270809339844
220,1694.81,6.902432559901047
221,1706.56,6.781267536667268
222,1714.44,6.65861978661772
223,1726.3200000000002,6.615759645680079
224,1734.29,6.734945121835551
225,1746.3100000000002,6.652481777216826
226,1754.3700000000001,6.779544479577314
227,1766.53,6.550599931277506
228,1774.6899999999998,6.589129773865794
229,1786.99,6.594995021884901
230,1795.2399999999998,6.727805090678206
231,1803.5200000000002,6.6872049015398485
232,1816.0200000000002,6.4749874300145525
233,1824.4099999999999,6.500794295126775
234,1837.0500000000002,6.374098619920394
235,1845.53,6.176390711237635
236,1854.05,6.168713458645993
237,1866.8999999999999,6.193095977917988
238,1875.52,6.342352865554143
239,1884.18,6.145177409281418
240,1892.8700000000001,6.037811695077032
241,1905.46072,6.117105590883467
242,1905.99,6.12094920166026
243,1914.7900000000002,6.029264117973026
244,1923.63,5.977359256632669
245,1936.97,6.004593409315886
246,1945.9099999999999,6.090980103842719
247,1954.8899999999999,5.93767902071643
248,1968.4399999999998,6.109787840720745
249,1977.5200000000002,6.155949313461645
250,1982.08,6.021161661005532
251,1995.8200000000002,5.9336100371575125
252,2005.03,5.98137173252576
253,2014.29,5.889849205827603
254,2023.5900000000001,5.974694901476322
255,2032.93,5.840544819471917
256,2047.02,5.896707641159063
257,2056.47,5.768123670608569
258,2065.96,5.768437922404949
259,2075.5,5.913236952134926
260,2080.2799999999997,5.787646522586634
261,2085.07,5.860588648625059
262,2094.7,5.718248678635509
263,2104.3700000000003,5.718659930992832
264,2114.08,5.719376405697032
265,2123.8399999999997,5.741845658334828
266,2133.64,5.5590001333195005
267,2143.4900000000002,5.594298386237766
268,2153.38,5.65825886150291
269,2163.32,5.568059114701649
270,2173.31,5.531079145833983
271,2183.34,5.473490399313192
272,2187.7616199999998,5.510484195106393
273,2193.42,5.562665316331351
274,2203.54,5.491034694693159
275,2213.71,5.374535618402604
276,2223.9300000000003,5.296249087459685
277,2234.2000000000003,5.425225101864405
278,2244.51,5.313548552547235
279,2254.87,5.219973548577702
280,2265.28,5.255293089955806
281,2275.74,5.296949176681549
282,2286.24,5.3348566996854
283,2296.79,5.197544768036888
284,2307.39,5.1879713817360145
285,2312.71,5.0946074067246325
286,2323.39,4.66322389297998
287,2334.11,4.933596815513435
288,2344.89,4.860101392464056
289,2355.71,4.991868405692786
290,2366.58,4.824840964269155
291,2377.5099999999998,4.863361177262689
292,2382.9900000000002,4.721017947363746
293,2393.99,4.823901923843971
294,2405.04,4.732488445671835
295,2416.14,4.756422512847335
296,2427.29,4.8464211253704725
297,2432.89,4.76193920430586
298,2444.12,4.848937689385218
299,2455.4,4.804333719812211
300,2466.73,4.7740992955868435
301,2472.42,4.698637356147979
302,2483.83,4.7380258044788315
303,2495.29,4.584971798157321
304,2506.81,4.7825174462529745
305,2511.88643,4.596764937334077
306,2512.59,4.571341363455455
307,2518.38,4.617429142283131
308,2524.19,4.533296260588623
309,2535.8399999999997,4.539403506416329
310,2547.54,4.496872100938575
311,2553.42,4.606081907416422
312,2565.2000000000003,4.557752859849931
313,2577.04,4.644564830716888
314,2582.9800000000005,4.622000655628181
315,2594.9100000000003,4.58654265414531
316,2606.8799999999997,4.51412333161807
317,2612.89,4.4830428447017185
318,2624.95,4.550023549824649
319,2637.07,4.576466273381027
320,2643.15,4.718262474637032
321,2655.3500000000004,4.7326725561046725
322,2667.61,4.543961656005761
323,2673.76,4.624881545434121
324,2686.1000000000004,4.602763003246473
325,2692.29,4.510082571630466
326,2704.72,4.541975057092989
327,2717.2000000000003,4.44209189125005
328,2723.4599999999996,4.4382521478063985
329,2736.04,4.51371367935254
330,2742.3399999999997,4.269045614864519
331,2755.0,4.283046504321923
332,2767.7200000000003,4.329993412212775
333,2774.1,4.407091705636017
334,2786.9,4.303653971438132
335,2793.33,3.9535326135559137
336,2806.22,4.0481979070082
337,2812.69,4.3538872280816125
338,2825.67,4.410275549184071
339,2832.19,4.3222202189520225
340,2845.26,4.270409567704651
341,2851.8199999999997,4.214170916428236
342,2864.9799999999996,4.335976292831036
343,2878.21,4.30290135740619
344,2884.0315,4.303555540255317
345,2884.84,4.3039629943694955
346,2898.1600000000003,4.270899058020051
347,2911.5299999999997,4.400205049837464
348,2931.71,4.312992857980724
349,2952.0400000000004,4.272536450624553
350,2972.5,4.28279265650221
351,2993.1000000000004,4.267715061247064
352,3006.92,4.274430406566185
353,3027.7599999999998,4.25383886651195
354,3048.75,4.233098110958284
355,3069.8799999999997,4.217511554271818
356,3091.16,4.211937782085919
357,3112.59,4.18041879440059
358,3126.9599999999996,4.145579349555133
359,3148.63,4.139454417070715
360,3170.46,4.1179268547202375
361,3192.43,4.0100894912369585
362,3207.1699999999996,4.050921714826238
363,3229.4,3.963739577810612
364,3251.78,4.027114225295556
365,3266.79,4.058901260985859
366,3289.44,4.026039720571828
367,3311.31121,4.004511201819105
368,3312.2400000000002,4.003852011167824
369,3319.88,4.024557385442228
370,3327.53,4.029621091358352
371,3335.2,4.088414460557916
372,3342.89,3.950782493040921
373,3350.59,4.050399857165647
374,3358.32,3.9604262162155344
375,3366.06,3.918912906907142
376,3373.82,3.83341326088219
377,3381.6000000000004,3.913039278140679
378,3389.39,4.001270627040888
379,3397.21,3.943088970866259
380,3405.0399999999995,3.927112646333351
381,3412.89,3.8804529850838825
382,3420.75,3.952218655476135
383,3428.64,3.941477320793549
384,3436.54,3.946180317752683
385,3444.4700000000003,3.797826309636978
386,3452.4100000000003,3.9989116331629937
387,3460.36,3.85154428833073
388,3468.3399999999997,3.856179938423628
389,3476.34,3.8250472517999663
390,3484.35,3.8396408968180253
391,3492.38,3.8491502051195248
392,3500.43,3.7777241767044654
393,3508.5,3.8122088115728463
394,3516.59,3.7513071097246686
395,3524.7000000000003,3.820942071159932
396,3532.8199999999997,3.856380364236915
397,3540.97,3.8820136522390603
398,3549.1299999999997,3.918780271882925
399,3557.3100000000004,3.8597815548102306
400,3563.81,4.057524121928505
401,3566.47,4.111648338626138
402,3569.1299999999997,3.941611555323771
403,3571.8,4.1174711036631235
404,3574.46,4.096940320360757
405,3577.12,3.961494537058389
406,3579.79,3.694894085397742
407,3582.45,3.6393813020953742
408,3585.11,3.911804518793007
409,3587.7799999999997,3.64637606713236
410,3590.4399999999996,3.7655802838299928
411,3593.1000000000004,3.9653025005276246
412,3595.77,3.968204048866978
413,3598.4300000000003,3.7123712655646104
414,3601.1,3.907578813903963
415,3603.7599999999998,4.143848030601596
416,3606.42,3.5876342472992286
417,3609.0899999999997,3.7734617956385814
418,3611.7500000000005,3.8842620123362135
419,3614.4100000000003,3.638591229033846
420,3617.08,3.8435717773731994
421,3619.7400000000002,3.9258379940708314
422,3622.4,3.7090922107684645
423,3625.07,3.6789657591078173
424,3627.73,3.82025397580545
425,3630.39,3.8894271925030823
426,3633.0600000000004,3.831743740842435
427,3635.7200000000003,3.8084769575400674
428,3638.38,3.8078801742377
429,3641.05,3.6143717225770526
430,3643.71,3.8242569392746857
431,3646.37,3.751740155972318
432,3649.04,3.7878657043116712
433,3651.7,3.8851809210093036
434,3654.37,3.835315469348657
435,3657.03,3.6600016860462894
436,3659.69,3.9679939027439213
437,3662.36,3.731294451083274
438,3665.02,3.804767667780907
439,3667.68,3.7611748844785398
440,3670.35,3.9987914328178924
441,3673.0099999999998,3.789277649515525
442,3675.6699999999996,3.8969508662131576
443,3678.34,3.7859144145525105
444,3681.0,3.867790631250143
445,3683.6600000000003,3.7171008479477754
446,3686.33,3.6912743962871284
447,3688.99,3.842138612984761
448,3691.65,3.6955528296823936
449,3694.3199999999997,3.8596873780217464
450,3696.9800000000005,3.7693865947193785
451,3699.65,3.652488143058732
452,3702.31,3.8797663597563647
453,3704.9700000000003,3.7417795764539967
454,3707.64,3.83907612479335
455,3710.3,3.620571341490982
456,3712.96,3.8990535581886148
457,3715.6299999999997,3.8974601065279684
458,3718.2900000000004,4.3205623232256
459,3720.9500000000003,5.338370539923233
460,3723.6200000000003,7.108371088262586
461,3726.28,9.004070304960218
462,3728.94,9.34744652165785
463,3731.61,7.747778069997204
464,3734.27,5.992198286694836
465,3736.93,4.6583565033924685
466,3739.6000000000004,4.359116051731822
467,3742.26,4.228752268429455
468,3744.92,4.368868485127086
469,3747.59,4.088195033466439
470,3750.25,4.009034250164072
471,3752.92,3.9894607985034254
472,3755.58,4.295304015201058
473,3758.24,4.27946423189869
474,3760.9100000000003,4.335716780238043
475,3763.57,4.309910996935676
476,3766.23,4.1693842136333075
477,3768.9,4.248308761972661
478,3771.56,4.0618549786702935
479,3774.22,4.067317195367926
480,3776.89,4.224219743707279
481,3779.5499999999997,4.459706960404912
482,3782.2099999999996,4.823986177102544
483,3784.88,4.825711725441897
484,3787.54,4.6613439421395295
485,3790.2000000000003,4.486617158837162
486,3792.87,4.334342707176515
487,3795.5299999999997,4.118378923874148
488,3798.2,3.8754264722135003
489,3800.8599999999997,3.963946688911133
490,3801.8939600000003,4.08275383033098
491,3803.5200000000004,4.269908385410806
492,3806.19,4.441593317769896
493,3808.85,4.544504984464718
494,3811.51,4.8127546511595405
495,3814.18,4.871867583518629
496,3816.84,4.836413250213451
497,3819.5,4.615883916908274
498,3822.1699999999996,4.640601849267362
499,3824.8300000000004,4.681170515962185
500,3827.4900000000002,4.400057182657006
501,3830.1600000000003,4.095275115016095
502,3832.82,3.9441237817109176
503,3835.48,3.7329734484057404
504,3838.15,3.7381503807648286
505,3840.81,3.9909590474596515
506,3843.47,4.309433714154474
507,3846.1400000000003,4.489912646513562
508,3848.8,4.809951313208384
509,3851.4700000000003,4.7721292455674735
510,3854.13,4.701302912262295
511,3856.79,4.812227578957118
512,3859.46,4.792386511316207
513,3862.12,4.955883178011029
514,3864.7799999999997,5.002120844705852
515,3867.4500000000003,5.153282777064939
516,3870.11,5.321470443759762
517,3872.77,4.972346110454584
518,3875.44,4.859087042813673
519,3878.1,4.848257709508496
520,3880.7599999999998,4.713328376203318
521,3883.43,4.430630308562407
522,3886.0899999999997,4.352374975257229
523,3888.7500000000005,4.313207641952051
524,3891.42,4.35473357431114
525,3894.08,4.526828241005962
526,3896.7400000000002,4.584009907700785
527,3899.41,4.744943840059873
528,3902.07,4.905509506754695
529,3904.74,5.055108439113784
530,3907.3999999999996,5.072226105808607
531,3910.0600000000004,5.284386772503429
532,3912.73,5.270601704862518
533,3915.3900000000003,5.30394137155734
534,3918.05,5.348616038252162
535,3920.72,5.356327970611251
536,3923.38,5.286479637306073
537,3926.04,5.233632304000896
538,3928.71,4.805334236359984
539,3931.3700000000003,4.491583903054806
540,3934.03,4.408834569749629
541,3936.7000000000003,4.5936125021087175
542,3939.36,4.922836168803539
543,3942.02,5.000538835498363
544,3944.69,4.994767767857451
545,3947.35,5.038268434552274
546,3950.02,4.994193366911362
547,3952.6800000000003,5.067987033606184
548,3955.34,4.970189700301007
549,3958.01,4.790874632660095
550,3960.67,4.450154299354917
551,3963.33,4.31190096604974
552,3966.0,4.145877898408829
553,3968.66,3.9196795651036513
554,3971.3199999999997,3.9432442317984733
555,3973.9900000000002,4.038515164157562
556,3976.65,4.199665830852384
557,3979.31,4.269745497547207
558,3981.98,4.607938429906295
559,3984.64,4.8550810966011175
560,3987.2999999999997,4.91206676329594
561,3989.97,5.027268695655028
562,3992.6299999999997,5.102626362349851
563,3995.2900000000004,5.0704950290446735
564,3997.96,5.008047961403762
565,4000.62,4.912986628098585
566,4003.29,4.9687775604576725
567,4005.95,4.978078227152496
568,4008.61,5.140597893847318
569,4011.2799999999997,5.1406898262064065
570,4013.9399999999996,5.072013492901229
571,4016.6000000000004,5.036950159596051
572,4019.27,5.10348909195514
573,4021.9300000000003,5.169074758649962
574,4024.59,5.094729425344784
575,4027.2599999999998,5.126286357703873
576,4029.92,5.138519024398695
577,4032.58,5.280323691093518
578,4035.25,5.382625623452606
579,4037.9100000000003,5.402676290147429
580,4040.57,5.246248956842251
581,4043.2400000000002,5.15605088920134
582,4045.9,5.1483495558961625
583,4048.56,5.216279222590984
584,4051.23,5.240214154950073
585,4053.89,5.304627821644896
586,4056.56,5.3113627540039845
587,4059.2200000000003,5.227247420698806
588,4061.88,5.206061087393628
589,4064.55,5.324975019752717
590,4067.21,5.20587668644754
591,4069.87,5.241756353142362
592,4072.54,5.225626285501451
593,4075.2,5.290625952196272
594,4077.8599999999997,5.173676618891095
595,4080.53,5.082696551250184
596,4083.19,5.107045217945006
597,4085.85,5.006121884639828
598,4088.52,5.038068816998917
599,4091.18,4.97564648369374
600,4093.84,4.607759150388562
601,4096.51,4.650457082747651
