,lambda (Angstroms),Total Flux (erg/s/cm^2/Angstrom)
0,100.00999999999999,0.12988023853101324
1,102.10000000000001,0.1294742811895436
2,104.0,0.1291052290609406
3,104.712855,0.12896676555824158
4,105.93,0.12772490811725598
5,107.89999999999999,0.1257149099997547
6,109.91000000000001,0.1236640997377865
7,114.03,0.11946044885256153
8,118.04,0.11536903136487268
9,120.22644299999999,0.11313819567318491
10,121.07,0.11241660228288124
11,125.03999999999999,0.10902059494759613
12,127.07,0.107284097494213
13,127.95,0.10653133012537105
14,130.93,0.10398218608092713
15,132.14,0.10294713094902806
16,133.98,0.10137316281470014
17,137.1,0.09870426032666135
18,138.038426,0.09790151433771607
19,139.97,0.09672047578771209
20,142.9,0.09492896122885615
21,146.91,0.09247709318285498
22,151.02,0.0899640812953405
23,154.9,0.08759170024890581
24,158.489319,0.08539705273638437
25,158.86999999999998,0.08522107965108078
26,161.82,0.08385741663699749
27,165.97,0.08193904324939504
28,169.84,0.08015010229400298
29,173.0,0.07868936498101166
30,177.03,0.07682646266125613
31,179.89999999999998,0.07549978037529124
32,181.970086,0.07454286524586069
33,181.99,0.07453584239051934
34,185.79999999999998,0.0731922108521994
35,191.0,0.07135838304579219
36,194.11,0.07026161297263228
37,198.17000000000002,0.0688298166940626
38,201.85000000000002,0.06753203094811408
39,205.13,0.06637530886138006
40,208.929613,0.06503534052720507
41,209.91,0.06477540640845308
42,215.79000000000002,0.06321641745641879
43,219.81,0.06215057809775256
44,222.86,0.061341918908816316
45,227.01,0.060241612186694
46,230.16,0.059406446260389385
47,233.9,0.058414848824690786
48,239.88329199999998,0.05682847794127369
49,239.9,0.056825064262954555
50,246.06,0.05556648752688574
51,251.79,0.05439576739521194
52,257.06,0.05331902768838071
53,260.04,0.05271017423430316
54,264.26,0.051847969165116504
55,269.18,0.05084274344800679
56,274.18,0.04982117275214361
57,275.42287,0.049567236774712274
58,279.28000000000003,0.04896243151661316
59,283.82,0.04825055207667722
60,289.76,0.04731914856949725
61,295.83000000000004,0.04636736221913403
62,301.33,0.04550494975905961
63,308.35,0.04440420319564509
64,316.227766,0.04316895935347386
65,317.72,0.042994196542836136
66,328.12,0.041776198998498784
67,338.09,0.04060856201600179
68,348.37,0.03940462010606709
69,357.29999999999995,0.038358787166739836
70,363.078055,0.03768209603231564
71,365.63,0.03745827655820034
72,375.01,0.03663559482801305
73,384.63,0.03579186727775444
74,395.4,0.0348472898469541
75,404.60999999999996,0.034039537454717335
76,414.04,0.03321249316541518
77,416.86938299999997,0.032964347333336384
78,421.73,0.03263880966787083
79,429.57,0.03211373827009187
80,440.59000000000003,0.031375711699577286
81,450.86,0.030687923500422053
82,460.3,0.030055726296169816
83,469.94,0.029410181590308435
84,478.630092,0.02882826900747384
85,479.78,0.028769052448202076
86,489.82,0.02825204104537797
87,500.08,0.02772377152939696
88,505.87,0.02742964101613575
89,511.73,0.02714222204229279
90,520.04,0.026714848958088875
91,529.7099999999999,0.026217989740296835
92,539.56,0.025710138471294598
93,549.5408739999999,0.02520207744448954
94,549.59,0.02520017690116517
95,559.8100000000001,0.02480444223918401
96,570.21,0.02440000829779417
97,579.48,0.02403546772324765
98,590.25,0.02361909057696222
99,599.84,0.023243896327911396
100,609.59,0.022868046111608416
101,619.49,0.022487458634131558
102,629.56,0.022096608263324283
103,630.957344,0.02204223551321631
104,639.79,0.021770481788476678
105,650.1899999999999,0.021454013389340627
106,657.72,0.021223867775870004
107,665.3299999999999,0.020993102709175263
108,674.59,0.02071032307598297
109,685.5500000000001,0.020370432464278058
110,695.08,0.02009163747020435
111,704.75,0.01978935094048843
112,716.21,0.019453330658632743
113,724.43596,0.01920336180375691
114,726.17,0.01916458920762619
115,734.5799999999999,0.018978505285472076
116,744.8000000000001,0.018755513356290728
117,755.16,0.01852642277739458
118,765.66,0.018294768648783613
119,774.53,0.018103798220423673
120,785.3000000000001,0.01787146113164843
121,794.4,0.017672762600185587
122,805.45,0.017429062311980714
123,814.78,0.01722517307741497
124,824.2099999999999,0.01702755965019579
125,831.763771,0.01684249875591852
126,835.6800000000001,0.01676942286078244
127,845.35,0.016642903892431817
128,855.1400000000001,0.016489100078455332
129,865.04,0.01633873096432181
130,875.0600000000001,0.016186072804562423
131,885.19,0.016033641744645995
132,895.4399999999999,0.015876888639103713
133,905.81,0.01571158128793557
134,914.19,0.015735948585062946
135,924.7800000000001,0.01825410323358072
136,935.4899999999999,0.02151719973647264
137,944.14,0.02754956540594183
138,954.992586,0.0309018409891322
139,955.0799999999999,0.03092887509997029
140,963.9100000000001,0.03452811932266997
141,975.0699999999999,0.02088743748069132
142,984.1,0.035091012466079555
143,995.49,0.03432257405119274
144,1004.7,0.037375912023000675
145,1014.0,0.03588932798801846
146,1025.74,0.024042940657836617
147,1035.23,0.03295283349740853
148,1044.81,0.040471114330190294
149,1054.48,0.0399287331561819
150,1064.24,0.037147909975383364
151,1074.08,0.03928791389966025
152,1084.02,0.03664454670528141
153,1094.05,0.03982901750411242
154,1096.4782,0.03954728362968886
155,1104.17,0.038678412640773284
156,1114.3899999999999,0.038598715913110086
157,1124.7,0.03649571304009565
158,1135.11,0.039062425561135386
159,1145.61,0.03755663193682389
160,1156.21,0.03826777370656655
161,1164.23,0.03853275830971148
162,1175.0,0.032896656249346255
163,1185.87,0.037732949583035205
164,1194.09,0.03525127497428848
165,1205.1399999999999,0.03134800601727495
166,1216.29,0.02201265245431559
167,1224.72,0.03271896017308264
168,1236.05,0.0367312143194208
169,1244.6200000000001,0.03735543358986369
170,1256.14,0.03694597698490479
171,1258.92541,0.03672978018346251
172,1264.85,0.036293480624460334
173,1273.6100000000001,0.03765109394679868
174,1285.3999999999999,0.03759876927446639
175,1294.31,0.03515958200300916
176,1306.28,0.03546084061812217
177,1315.3400000000001,0.03717476275286937
178,1324.46,0.036322002650098335
179,1333.64,0.035250300309809066
180,1345.98,0.036235936793559666
181,1355.3100000000002,0.03614382385947482
182,1364.7,0.03512480868787175
183,1374.16,0.03503139257249741
184,1383.6899999999998,0.03505878551335181
185,1396.49,0.03205308150946263
186,1406.1699999999998,0.03256186385652145
187,1415.9199999999998,0.03401878525980899
188,1425.73,0.0336264944255783
189,1435.61,0.03388421264757635
190,1442.24,0.03411876040181188
191,1445.43977,0.033912957362164486
192,1445.57,0.03390496941073582
193,1455.59,0.03359763348442976
194,1465.68,0.03282800527121338
195,1475.84,0.03275791477108667
196,1486.07,0.03263017198404965
197,1496.37,0.032445096910102306
198,1503.27,0.03161157720037058
199,1513.69,0.030351185348862685
200,1517.1799999999998,0.030859399901476646
201,1524.19,0.03086477231231442
202,1534.75,0.029126985886985875
203,1545.39,0.029104118276616967
204,1556.1,0.028533528379337737
205,1563.28,0.02928435952196473
206,1574.12,0.0299347139489949
207,1585.03,0.02996501608911475
208,1596.02,0.029995177044194233
209,1603.39,0.029471109122350354
210,1614.5,0.029239393299869285
211,1625.6899999999998,0.029059286292347847
212,1633.1899999999998,0.029475332694813373
213,1644.5100000000002,0.02913611001160133
214,1655.9099999999999,0.02895430614334893
215,1659.58691,0.029154672711576297
216,1663.56,0.029379380705297144
217,1671.24,0.028615560730137504
218,1675.09,0.029482252487381698
219,1686.6999999999998,0.029320338228058344
220,1694.4899999999998,0.028760127445962826
221,1706.23,0.02829433586935161
222,1714.1100000000001,0.027705110790672192
223,1725.99,0.02750017364159713
224,1733.95,0.0279585225215098
225,1745.97,0.02755159979997089
226,1754.03,0.027811246128123666
227,1766.19,0.02711062783412091
228,1774.3400000000001,0.027022749865689782
229,1786.6399999999999,0.02710948599922318
230,1794.89,0.027315325479032163
231,1803.17,0.02732496019331318
232,1815.67,0.026390891223326794
233,1824.0500000000002,0.026589423385847917
234,1836.7,0.026241620588221694
235,1845.1799999999998,0.02518304019898293
236,1853.69,0.025007165044216195
237,1866.54,0.02521580714307019
238,1875.1599999999999,0.02568021118136758
239,1883.81,0.024463100454137
240,1896.87,0.023710919194295223
241,1905.46072,0.02456146761708123
242,1905.63,0.024578445912298172
243,1914.42,0.02389318253184481
244,1923.26,0.0234800523403536
245,1936.59,0.02398703451766381
246,1945.53,0.02430469070409691
247,1954.5100000000002,0.02324382544169973
248,1968.0600000000002,0.02400586965044341
249,1977.14,0.02441466076597054
250,1986.27,0.02359604507045983
251,1995.44,0.023224617926118837
252,2004.65,0.023531029332947567
253,2013.9,0.02345585929094602
254,2023.19,0.023767467800114198
255,2037.2199999999998,0.022951464622894553
256,2046.6200000000001,0.02300182414777947
257,2056.07,0.022229656861626538
258,2065.56,0.02247980812664333
259,2075.09,0.023196907942829848
260,2079.88,0.02242914944540418
261,2084.67,0.022659170947978514
262,2094.29,0.02209459250429691
263,2103.96,0.022384837249577454
264,2113.67,0.022350480546027722
265,2123.43,0.022439327031440144
266,2133.23,0.022118302068022292
267,2143.08,0.02180186029356659
268,2152.97,0.022007937070280613
269,2162.9100000000003,0.021811717035956787
270,2172.89,0.02165649555280269
271,2182.92,0.021462567258610742
272,2187.7616199999998,0.021502412107580714
273,2193.0,0.02155151378935544
274,2203.12,0.0213299324467275
275,2213.29,0.021110461482841517
276,2223.5,0.020854584821949098
277,2233.77,0.020906774615547026
278,2244.08,0.020767008712138522
279,2254.44,0.020514583187471975
280,2264.8399999999997,0.020527291965798996
281,2275.3,0.02046458719861636
282,2285.8,0.02043956673442729
283,2296.35,0.019930676648980176
284,2306.9500000000003,0.02004501694227502
285,2317.6,0.019792217614311824
286,2322.94,0.018287192063952813
287,2333.66,0.019383415266228353
288,2344.4300000000003,0.01917392884724585
289,2355.25,0.019281762807005307
290,2366.13,0.01896778322125511
291,2377.05,0.018934577938498478
292,2382.5299999999997,0.018642487448616945
293,2393.52,0.018711794696099054
294,2404.57,0.01850769839807151
295,2415.67,0.018406292478785922
296,2426.82,0.01844006693824229
297,2432.42,0.018187939357341455
298,2443.64,0.018187366347036563
299,2454.92,0.01811993979122202
300,2466.25,0.017920063614149436
301,2477.6400000000003,0.017754813891567196
302,2483.35,0.017737673143898666
303,2494.81,0.01706733595155517
304,2506.33,0.017571185213702017
305,2511.88643,0.017126874404537074
306,2512.11,0.01710913334388854
307,2517.9,0.01734748232310198
308,2523.7,0.017144023476718208
309,2535.35,0.017022426655964595
310,2547.05,0.016839860707224916
311,2552.92,0.016980747081660648
312,2564.71,0.016828640702546048
313,2576.54,0.016862383021042593
314,2582.4900000000002,0.016786366790700617
315,2594.41,0.016666058678822242
316,2606.3799999999997,0.0164858614389578
317,2612.39,0.016381248255032545
318,2624.45,0.016322860584793184
319,2636.56,0.016264383786567752
320,2642.64,0.016400015823462004
321,2654.84,0.016311018594861657
322,2667.0899999999997,0.01604441223827524
323,2673.2400000000002,0.016059389495988993
324,2685.5800000000004,0.016000962709027657
325,2697.9700000000003,0.015738776794080252
326,2704.19,0.015753139272613518
327,2716.6800000000003,0.015580015101693977
328,2722.9399999999996,0.015423356277838389
329,2735.5099999999998,0.015479009502141143
330,2748.1299999999997,0.01511334359845783
331,2754.47,0.015098672169824532
332,2767.1800000000003,0.015041725835766299
333,2773.56,0.015137523104744149
334,2786.36,0.014969636340310993
335,2792.79,0.014470734481302776
336,2805.68,0.014600237286494702
337,2812.15,0.01480068412509763
338,2825.13,0.014662496499914635
339,2838.17,0.014445821921148358
340,2844.7099999999996,0.014430873980570795
341,2857.8399999999997,0.014295268971429598
342,2864.43,0.014359001902865966
343,2877.65,0.014249926463349846
344,2884.0315,0.014184929133148748
345,2884.28,0.014182528218015326
346,2897.6000000000004,0.014081119465107749
347,2910.97,0.014057697766431
348,2931.15,0.013842872853992941
349,2951.47,0.013630721693401201
350,2971.92,0.01354552687380961
351,2992.5299999999997,0.01338606062775667
352,3013.27,0.013228010722703881
353,3027.18,0.013107579209720065
354,3048.16,0.012952077164975245
355,3069.29,0.01279804628292291
356,3090.56,0.01262215915271689
357,3111.9900000000002,0.012493886596049518
358,3133.5600000000004,0.012298559791228462
359,3148.0200000000004,0.012184877874783749
360,3169.8399999999997,0.01203729334111683
361,3191.82,0.011783555380988561
362,3206.55,0.011758803557390316
363,3228.78,0.011572879868416184
364,3251.1600000000003,0.011493490342134531
365,3273.69,0.011393182978545363
366,3288.8,0.011264851767101406
367,3311.31121,0.011126849883817819
368,3311.6,0.011125185541173345
369,3319.23,0.011278776782564106
370,3326.8900000000003,0.011289245272610401
371,3334.55,0.011279386762656697
372,3342.2400000000002,0.010671030501358526
373,3349.95,0.011279925405830709
374,3357.6699999999996,0.010767549393188074
375,3365.41,0.010855899546315792
376,3373.1699999999996,0.010708917865213866
377,3380.94,0.010545014266997117
378,3388.7400000000002,0.010905122917435905
379,3396.5499999999997,0.010875064650759866
380,3404.38,0.010630349549854187
381,3412.23,0.010581625614718863
382,3420.09,0.010765970762468716
383,3427.98,0.010716495158874104
384,3435.88,0.01076520663816467
385,3443.8,0.01059926128322559
386,3451.74,0.010725309094056869
387,3459.69,0.010350464987773322
388,3467.67,0.010321635130145312
389,3475.66,0.010405759355402479
390,3483.6800000000003,0.010098172829315178
391,3491.71,0.010499574386113058
392,3499.76,0.01039401910868129
393,3507.8199999999997,0.010177921914134705
394,3515.91,0.01014927696824365
395,3524.02,0.010250162188122951
396,3532.14,0.010240071490887431
397,3540.28,0.010267125959422268
398,3548.44,0.01038897559372746
399,3556.62,0.010416707393803007
400,3564.82,0.01031125535964891
401,3573.04,0.010150950491265168
402,3581.28,0.009831538788651784
403,3589.53,0.009715083168923576
404,3597.8100000000004,0.009775361797850903
405,3606.1,0.009944262509663408
406,3614.4100000000003,0.009970210387246268
407,3622.74,0.010032826430599485
408,3631.1,0.010283566722608235
409,3639.4700000000003,0.009993340097502162
410,3647.86,0.010001110638166447
411,3656.27,0.009935686344601086
412,3664.7000000000003,0.009925078216806084
413,3673.14,0.009878056171896257
414,3681.61,0.009741628375641964
415,3681.7499999999995,0.009386549536034456
416,3684.5,0.010332914329458386
417,3687.24,0.010646371039997138
418,3689.9900000000002,0.01038399083342107
419,3692.73,0.009506810543959823
420,3695.4700000000003,0.009942238254498576
421,3698.22,0.010036716047922506
422,3700.9599999999996,0.01049977875846126
423,3703.71,0.01014615855188519
424,3706.45,0.008757751262423945
425,3709.19,0.010004327972962697
426,3711.94,0.009679772766386627
427,3714.6800000000003,0.011654595476925381
428,3717.42,0.013129870187464133
429,3720.17,0.023855267980888065
430,3722.91,0.04347484469142682
431,3725.6600000000003,0.06763039248485075
432,3728.4,0.06823793919538951
433,3731.14,0.048193895905928257
434,3733.8900000000003,0.026189043699352186
435,3736.63,0.013722820409890939
436,3739.38,0.01163445220331487
437,3742.12,0.009835350913853623
438,3744.8599999999997,0.009738825624392376
439,3747.61,0.010135848417816307
440,3750.35,0.00930940712835506
441,3753.1,0.009885334921778993
442,3755.8399999999997,0.009431000632317743
443,3758.5800000000004,0.009502897342856496
444,3761.33,0.010195793136280428
445,3764.0699999999997,0.01097330884681918
446,3766.82,0.009938134640243112
447,3769.56,0.009988354350781865
448,3772.3,0.010249879061320619
449,3775.0499999999997,0.00983479985474455
450,3777.79,0.010246403565283302
451,3780.5299999999997,0.011417705275822055
452,3783.28,0.011648205069245986
453,3786.02,0.010948263779784738
454,3788.77,0.01057153457320867
455,3791.51,0.009224579283747422
456,3794.25,0.009837243994286175
457,3797.0,0.011285542787710106
458,3799.74,0.010759742498248862
459,3801.8939600000003,0.010328643299239153
460,3802.4900000000002,0.010209504441262037
461,3805.23,0.010277347778528076
462,3807.97,0.010571027115794116
463,3810.7200000000003,0.011109071122174265
464,3813.46,0.011018736459440305
465,3816.21,0.011269005465820455
466,3818.95,0.011141508803086494
467,3821.6899999999996,0.011158850140352535
468,3824.44,0.011081087146732683
469,3827.18,0.010213907483998723
470,3829.93,0.009960815490378873
471,3832.67,0.010618020827644913
472,3835.4100000000003,0.01112824616491095
473,3838.16,0.010361781171291102
474,3840.9,0.01011278850855714
475,3843.64,0.010910548845823181
476,3846.39,0.010370634852203329
477,3849.13,0.01075722018946937
478,3851.8799999999997,0.01135220019584952
479,3854.6200000000003,0.011034837533115559
480,3857.36,0.011224653870381598
481,3860.11,0.013362117876761748
482,3862.85,0.016553553214027787
483,3865.6000000000004,0.022279582220407938
484,3868.34,0.025250677557673976
485,3871.08,0.022713582894940017
486,3873.83,0.016737861901320168
487,3876.5699999999997,0.012792847238586206
488,3879.32,0.011275505244966356
489,3882.06,0.012050631582232395
490,3884.7999999999997,0.013322696919498436
491,3887.55,0.015674795925878584
492,3890.29,0.015006071263144625
493,3893.04,0.012355250269524772
494,3895.7799999999997,0.011126455606790814
495,3898.52,0.010772883944056854
496,3901.27,0.010936202950437002
497,3904.0099999999998,0.010751054287703041
498,3906.75,0.011041877624969082
499,3909.5,0.011642096631349231
500,3912.2400000000002,0.011039105968615272
501,3914.99,0.011224102974995421
502,3917.73,0.01124549331226146
503,3920.47,0.0113340656495275
504,3923.2200000000003,0.010648356655907649
505,3925.96,0.010576125993173688
506,3928.71,0.010822108999553838
507,3931.4500000000003,0.010261998336819879
508,3934.19,0.010292678674085917
509,3936.94,0.010172038680466068
510,3939.68,0.010741579017732107
511,3942.4300000000003,0.010978033024112257
512,3945.17,0.010851487361378295
513,3947.91,0.010616788698644337
514,3950.66,0.010300566705024486
515,3953.4,0.011352748042290526
516,3956.15,0.010936233048670673
517,3958.89,0.010467599385936714
518,3961.6299999999997,0.011772774723202754
519,3964.38,0.014508175729582904
520,3967.12,0.016889181066848943
521,3969.86,0.016503456404114984
522,3972.6099999999997,0.014599225410495133
523,3975.3500000000004,0.011126838747761172
524,3978.1,0.010652197754141321
525,3980.84,0.01019523609140736
526,3983.58,0.010797175428673401
527,3986.33,0.010681298435053551
528,3989.07,0.011005947772319589
529,3991.8199999999997,0.01136151177869974
530,3994.56,0.01127784611596578
531,3997.2999999999997,0.011289234453231819
532,4000.05,0.011231958459611968
533,4002.79,0.010054372796878009
534,4005.5400000000004,0.011618203803258158
535,4008.28,0.011723451140524197
536,4011.02,0.010896767477790238
537,4013.77,0.011460539484170387
538,4016.5099999999998,0.011328276821436426
539,4019.26,0.011363193827816575
540,4022.0,0.011878657165082615
541,4024.74,0.012013682502348657
542,4027.4900000000002,0.011603837508728804
543,4030.23,0.010973690845994845
544,4032.9700000000003,0.010826656183260884
545,4035.72,0.011261312189641035
546,4038.46,0.011153348526907074
547,4041.21,0.011489617533287224
548,4043.95,0.010425427870553262
549,4046.69,0.010925646207819302
550,4049.44,0.010470778214199452
551,4052.1800000000003,0.010943361551465492
552,4054.93,0.01148283455784564
553,4057.67,0.01098871289511168
554,4060.41,0.01047815023237772
555,4063.1600000000003,0.01126537723875787
556,4065.9,0.01154929057602391
557,4068.6499999999996,0.01128595258240406
558,4071.39,0.011835958919670098
559,4074.13,0.011702984256936139
560,4076.88,0.010633737263316288
561,4079.62,0.010609863600582328
562,4082.3700000000003,0.010706006606962476
563,4085.11,0.010798386944228517
564,4087.85,0.010974622281494557
565,4090.6,0.010378488287874707
566,4093.3399999999997,0.010934688625140746
567,4096.08,0.012694867962406785
568,4098.83,0.016476076968786935
