,lambda (Angstroms),Total Flux (erg/s/cm^2/Angstrom)
0,101.98,79.65420040231962
1,104.11,79.39971626654963
2,104.712855,79.32768949018788
3,106.05,78.48850987380087
4,108.02000000000001,77.25215641607068
5,110.03,75.99069933495713
6,113.9,73.56192376089075
7,117.9,71.05156141065166
8,120.22644299999999,69.59150768512218
9,120.92,69.2265796169884
10,124.89,67.13768939918033
11,126.91,66.07482838185008
12,128.09,65.45394917384915
13,131.07,63.885966089780894
14,131.98,63.407152466403545
15,134.13,62.2758895039574
16,136.93,60.80261681519399
17,138.038426,60.21939761630847
18,140.12,59.43652415375805
19,143.06,58.33079944019587
20,147.07,56.82265121777379
21,150.84,55.40476610931215
22,155.06,53.817637435270484
23,158.489319,52.52788142112873
24,159.04000000000002,52.371302937394034
25,162.0,51.52966812092071
26,166.15,50.349673395329404
27,170.02,49.24929280682187
28,173.19,48.347947485817265
29,176.80999999999997,47.31865100364199
30,180.10000000000002,46.38318540246472
31,181.970086,45.851452564347824
32,182.18,45.80591776210528
33,185.99999999999997,44.97727874317335
34,191.20999999999998,43.847119281496205
35,193.87,43.27010901285587
36,197.93,42.38940907394073
37,202.07,41.49135553250188
38,204.89000000000001,40.87963799720909
39,208.929613,40.00336042930753
40,210.14000000000001,39.80596518728277
41,216.03,38.8453989245062
42,220.05,38.18980017558718
43,223.11,37.69076225396343
44,227.25,37.01559361317676
45,229.89,36.58505755336831
46,234.16,35.88870198466459
47,239.88329199999998,34.95533372409805
48,240.17,34.91930248316311
49,245.76000000000002,34.21678515322154
50,252.06,33.42504475890006
51,256.75,32.83562680186585
52,259.71999999999997,32.462384756740576
53,263.94,31.932045959658982
54,268.84999999999997,31.314989922451414
55,273.85,30.68662320638611
56,275.42287,30.48895539785519
57,278.94,30.149733749085545
58,284.13,29.649166672066816
59,290.08,29.075294772003442
60,296.15,28.48985508557039
61,300.96000000000004,28.025937178198983
62,307.97,27.349836420416757
63,316.227766,26.55339143004875
64,318.06,26.42140312093003
65,327.72999999999996,25.724805502893503
66,337.69,25.007315807220923
67,347.95,24.26821441760761
68,356.87000000000006,23.625644402322926
69,363.078055,23.17843509203575
70,366.03,23.01918448026532
71,375.42,22.51261337619317
72,385.04999999999995,21.99308915582621
73,394.92,21.46063014396443
74,405.05,20.9141397004916
75,413.53000000000003,20.45666074900813
76,416.86938299999997,20.27650688037546
77,422.19,20.05730784666959
78,430.04,19.73390464270286
79,441.07,19.279494423639804
80,451.35,18.85597860258248
81,459.74,18.510327554095614
82,470.45,18.069097433529674
83,478.630092,17.732096470173055
84,480.3,17.679186197307303
85,490.36,17.36043312528492
86,499.46999999999997,17.071789972644773
87,506.42,16.851611878590543
88,512.29,16.665907764979277
89,519.41,16.44034330450717
90,530.29,16.095651304063285
91,540.15,15.78322675522664
92,549.5408739999999,15.485918697383022
93,550.1899999999999,15.4702455770866
94,560.42,15.223168593194533
95,569.52,15.003388006307164
96,580.11,14.74739046331626
97,589.54,14.519800070754954
98,600.5,14.25499550952357
99,610.26,14.019441830288326
100,620.1700000000001,13.780273886928562
101,630.25,13.536911681161017
102,630.957344,13.519820614938302
103,640.4899999999999,13.337245719421444
104,649.4,13.167012733010862
105,658.43,12.994296940476907
106,664.53,12.877687870705353
107,675.3199999999999,12.671065256361903
108,684.72,12.491003401697542
109,694.24,12.309925502909806
110,705.52,12.093655400312572
111,715.34,11.906707177716399
112,724.43596,11.732788414370354
113,725.29,11.720676134326537
114,735.3800000000001,11.57756155505016
115,745.61,11.433219057140613
116,754.24,11.311236633324446
117,764.74,11.162653871836643
118,775.38,11.012424129715667
119,784.35,10.885954747504655
120,795.26,10.731508831805424
121,804.47,10.601318923080406
122,815.66,10.442847168114833
123,825.11,10.310141302875808
124,831.763771,10.213653720981233
125,834.66,10.18205767352172
126,844.3299999999999,10.083270044162367
127,854.11,9.980082311656217
128,865.99,9.85546768180212
129,874.0,9.772100617203526
130,884.12,9.666794337698182
131,894.36,9.559599797487245
132,904.7099999999999,9.449921574129508
133,915.19,9.353972452507376
134,925.79,9.509801620179646
135,934.35,9.809580289847066
136,945.1700000000001,10.344781491225742
137,953.9200000000001,10.757256627275964
138,954.992586,10.768770580519341
139,964.97,10.878167083898319
140,973.89,9.02724904054788
141,985.17,10.280243638194408
142,994.2900000000001,10.303158474589473
143,1005.8000000000001,11.013690288943334
144,1015.11,10.892471726096632
145,1024.5,9.404175995148131
146,1033.98,10.016204075085106
147,1045.95,11.45660192285363
148,1055.63,11.220959582536112
149,1065.3999999999999,10.436806053104075
150,1075.26,10.84985733455751
151,1085.2,10.13341644790915
152,1095.25,10.863734330120819
153,1096.4782,10.821386250443597
154,1105.3799999999999,10.531237188100132
155,1115.61,10.328761978000703
156,1125.93,9.838027261654064
157,1133.74,10.57338755286848
158,1144.23,10.193029991388224
159,1154.81,10.28373292366076
160,1165.5,10.255245014964485
161,1176.28,8.949518600021001
162,1184.4399999999998,10.078142033607381
163,1195.3999999999999,9.28349460616948
164,1203.68,8.408671031426247
165,1214.8200000000002,7.805026591493924
166,1226.0600000000002,9.003704477953594
167,1234.56,9.84511322127274
168,1245.98,9.926437095237992
169,1254.62,9.690935495505924
170,1258.92541,9.564628892786565
171,1266.2300000000002,9.368198079435476
172,1275.0,9.869502556069197
173,1283.84,9.898249031946289
174,1295.72,8.978231332106901
175,1304.7,9.065335806470733
176,1313.75,9.698199280077937
177,1325.9,9.392085291605836
178,1335.09,9.01293976369978
179,1344.35,9.430414235037095
180,1353.6699999999998,9.293496420011584
181,1366.1899999999998,8.856008998968731
182,1375.6599999999999,8.863069468036155
183,1385.2,8.829691936346952
184,1394.8,8.064848118294924
185,1404.4699999999998,8.189287299486267
186,1414.1999999999998,8.400480194314783
187,1424.01,8.379212373992866
188,1433.8799999999999,8.397337267308124
189,1440.49,8.48581805300355
190,1445.43977,8.449636297291004
191,1447.14,8.44032535794199
192,1453.8200000000002,8.323321942970056
193,1463.8999999999999,8.027694544329776
194,1474.0500000000002,8.044207490143382
195,1484.27,8.015899780410875
196,1494.55,7.979926794495985
197,1504.91,7.702642773671251
198,1511.86,7.328586115878597
199,1515.3500000000001,7.467686717936674
200,1525.85,7.469762386019714
201,1536.43,7.02628701919291
202,1543.52,7.066604050308031
203,1554.22,6.945132131116463
204,1564.99,7.060089556378781
205,1575.84,7.198225946731256
206,1586.7600000000002,7.238525681537617
207,1594.09,7.234543607923206
208,1605.1399999999999,7.208272411001073
209,1616.26,7.161175558532826
210,1623.7199999999998,7.0348725531899206
211,1634.98,7.186716389629446
212,1646.31,7.160047570522861
213,1653.91,7.008505254087727
214,1659.58691,7.079460312740155
215,1665.37,7.159085592290611
216,1673.0600000000002,6.944463253058078
217,1676.92,7.176579060673479
218,1684.66,7.198502312213167
219,1696.3400000000001,6.987569916603807
220,1704.17,6.872867031533492
221,1715.98,6.675908771931905
222,1723.8999999999999,6.645864750251585
223,1735.85,6.778854944812215
224,1743.8600000000001,6.6797507865218915
225,1755.95,6.775086435244738
226,1764.05,6.599586140344411
227,1776.28,6.523283243229473
228,1784.48,6.572730129873587
229,1796.8500000000001,6.682136686920866
230,1805.14,6.6862254369549765
231,1813.48,6.347385777761307
232,1826.05,6.442544697897468
233,1834.47,6.311137583939351
234,1842.94,6.054278060753453
235,1855.7199999999998,6.004447662132939
236,1864.2800000000002,6.057830002337036
237,1872.89,6.2564139333133575
238,1885.8700000000001,5.9268558977817225
239,1894.58,5.7440850103024825
240,1903.32,5.9542760772865755
241,1905.46072,5.921665502054423
242,1916.51,5.762109341318164
243,1925.3600000000001,5.674056389941239
244,1934.2500000000002,5.800189433134362
245,1943.1699999999998,5.865915222255023
246,1956.64,5.611698143718617
247,1965.6699999999998,5.841754667906909
248,1974.7500000000002,5.930125435307758
249,1983.8600000000001,5.728415948636145
250,1993.02,5.6544747051770905
251,2006.84,5.733519329128606
252,2016.1000000000001,5.652156572094671
253,2025.4,5.768619809630784
254,2034.75,5.534146290379458
255,2044.15,5.59724201434069
256,2053.58,5.481407484229459
257,2063.06,5.490232197330787
258,2072.58,5.646874905002163
259,2077.36,5.400675756122876
260,2086.95,5.516269204291836
261,2096.58,5.353092647030843
262,2106.26,5.408142332982409
263,2115.98,5.410786013504025
264,2125.75,5.425764937238201
265,2135.56,5.314860855542424
266,2145.42,5.241071017059205
267,2155.32,5.331237173146036
268,2165.27,5.279805572445426
269,2175.2599999999998,5.240308966314865
270,2185.3,5.148559603396861
271,2187.7616199999998,5.164592307744796
272,2195.3900000000003,5.219643435999086
273,2205.52,5.169314279745246
274,2215.7,5.084971544240401
275,2225.9300000000003,5.002353229484547
276,2236.21,5.054786335477689
277,2246.5299999999997,5.011035578070025
278,2256.9,4.916890241411355
279,2267.31,4.949921041351882
280,2272.54,4.9583226516966405
281,2283.03,4.969674724835556
282,2293.57,4.820685218723465
283,2304.1600000000003,4.841665133360369
284,2314.79,4.744567184596468
285,2325.48,4.326558940731359
286,2336.21,4.597930833465445
287,2346.99,4.570948146948526
288,2352.4,4.627898871989663
289,2363.26,4.530340458671133
290,2374.17,4.522941466101598
291,2385.13,4.442363894281056
292,2396.14,4.4881717432095085
293,2407.2,4.402664012886954
294,2412.75,4.4179347160252735
295,2423.88,4.444352974751311
296,2435.07,4.353997938376141
297,2446.31,4.3990133227499655
298,2457.6,4.3714041278727835
299,2463.27,4.338153240808689
300,2474.64,4.277308319129897
301,2486.06,4.283062818200099
302,2497.54,4.100146022169093
303,2503.2900000000004,4.265372408303389
304,2511.88643,4.155290122814295
305,2514.8500000000004,4.118451607496089
306,2520.6499999999996,4.179987164487134
307,2526.46,4.118050756921264
308,2532.28,4.111125384798482
309,2543.97,4.056849817768361
310,2555.71,4.1102124279536785
311,2567.51,4.073385250797525
312,2573.43,4.116560233105624
313,2585.31,4.088531339494175
314,2597.2400000000002,4.060446623098164
315,2603.2300000000005,4.012656853507878
316,2615.24,3.9804944206565738
317,2627.31,3.9882702004637958
318,2633.37,3.998949678975127
319,2645.52,4.048529742327053
320,2657.7400000000002,4.0525650537805955
321,2663.86,3.9356327449504542
322,2676.1600000000003,3.9658043399487006
323,2682.33,3.953814208334
324,2694.71,3.8722420868769505
325,2707.1499999999996,3.866153178078429
326,2713.39,3.819525294565344
327,2725.9100000000003,3.7960236693115257
328,2732.2000000000003,3.8274599630138813
329,2744.81,3.689953656747856
330,2757.48,3.687173563140359
331,2763.83,3.7044430695012416
332,2776.5899999999997,3.731344294881537
333,2782.9900000000002,3.6774369784578593
334,2795.84,3.503764522825946
335,2802.2799999999997,3.553825348174622
336,2815.22,3.6515332115305004
337,2828.21,3.6527402521018186
338,2834.7299999999996,3.574916360995198
339,2847.81,3.551362720554309
340,2854.38,3.515588006663128
341,2867.5499999999997,3.572610685210031
342,2874.1699999999996,3.5565591485342907
343,2884.0315,3.538726639385602
344,2887.4300000000003,3.533675784479424
345,2894.09,3.519736539440249
346,2907.45,3.5532900749172183
347,2927.6000000000004,3.4987896984098024
348,2947.8900000000003,3.4449659113460083
349,2968.33,3.4312499701146644
350,2988.9,3.401538361938112
351,3009.62,3.36782859959401
352,3030.48,3.353787426693529
353,3051.4900000000002,3.323845099625499
354,3072.64,3.2978033620010905
355,3086.82,3.266378921362125
356,3108.22,3.2479155934584676
357,3129.77,3.202883111387261
358,3151.46,3.176753218759676
359,3173.31,3.146827428353372
360,3187.95,3.0832737816005897
361,3210.0499999999997,3.082273400915037
362,3232.3,3.0204788660619357
363,3247.2200000000003,3.0431563981963947
364,3269.73,3.0419505294528753
365,3292.39,3.0043965065418066
366,3307.59,2.977178217563507
367,3311.31121,2.988052949522761
368,3322.86,3.0244112228684292
369,3330.52,3.026879763908668
370,3338.1899999999996,2.9569998200155387
371,3345.8900000000003,2.9843384213223056
372,3353.6,2.964997537695705
373,3361.33,2.938866684202369
374,3369.08,2.909501860842297
375,3376.85,2.8601140676154895
376,3384.63,2.903083789455314
377,3392.44,2.944019056495035
378,3400.2599999999998,2.9826228386013884
379,3408.1,2.884864650841006
380,3415.95,2.8903449781472554
381,3423.83,2.945806850653402
382,3431.72,2.93358623822618
383,3439.63,2.924919655932223
384,3447.56,2.8325551037715297
385,3455.5099999999998,2.8344145817441015
386,3463.4700000000003,2.7824905747833046
387,3471.46,2.8312221130224042
388,3479.4599999999996,2.775831166328137
389,3487.48,2.7939942497671337
390,3495.5199999999995,2.8092483633393948
391,3503.58,2.800829507044919
392,3511.65,2.778847165817077
393,3519.75,2.7805183697891307
394,3527.8599999999997,2.742178088827817
395,3536.0000000000005,2.7871563530663988
396,3544.1499999999996,2.802579132371614
397,3552.3199999999997,2.8113219418100925
398,3560.51,2.792271781381836
399,3568.71,2.7198841360202115
400,3576.94,2.6694660358584836
401,3585.1899999999996,2.62360096583002
402,3593.4500000000003,2.6591934108681885
403,3601.73,2.725666886039621
404,3610.04,2.6776489064109508
405,3618.36,2.6986494418489118
406,3626.7,2.747190007420138
407,3635.06,2.688156603124628
408,3643.44,2.7503432289623824
409,3651.84,2.6645068849334015
410,3659.1800000000003,2.5582379438414105
411,3661.86,2.3215179816988307
412,3664.54,2.5091870195562507
413,3667.23,2.7607415724803035
414,3669.9100000000003,2.3127146103377236
415,3672.6,2.5192081632617764
416,3675.28,2.5322992011191965
417,3677.97,2.634054754043249
418,3680.6499999999996,2.7368247919006694
419,3683.3300000000004,2.6591258297580893
420,3686.02,2.5568543826821424
421,3688.7,2.558832420539562
422,3691.39,2.4156679734636146
423,3694.0699999999997,2.491322011321035
424,3696.76,2.7155395642450877
425,3699.44,2.762301602102508
426,3702.13,2.47567315502656
427,3704.81,2.5973331928839807
428,3707.49,2.3152172307414007
429,3710.1800000000003,2.510597783665453
430,3712.86,2.5272448215228733
431,3715.55,2.790467374446926
432,3718.23,2.569749412304346
433,3720.9199999999996,3.051665965228399
434,3723.6000000000004,3.6511700030858187
435,3726.28,5.25058904094324
436,3728.97,6.944659593867292
437,3731.65,6.989987631724712
438,3734.3399999999997,5.787780184648764
439,3737.02,3.7433802225061847
440,3739.71,3.257499775430237
441,3742.39,2.8987648132876576
442,3745.08,2.59146636621171
443,3747.7599999999998,3.0590624040691305
444,3750.44,2.7318864419265507
445,3753.13,2.552048994850603
446,3755.81,2.4577920327080234
447,3758.5,2.9787155856320755
448,3761.1800000000003,3.033478623489496
449,3763.8700000000003,2.808968176413548
450,3766.55,2.8328392142709684
451,3769.23,2.5227752521283886
452,3771.92,2.7579948050524417
453,3774.6000000000004,2.7864208429098616
454,3777.29,2.566578395833914
455,3779.9700000000003,2.6731264336913343
456,3782.66,2.803996986615387
457,3785.3399999999997,2.9054340244728074
458,3788.03,2.7321525773968593
459,3790.71,2.70846161525428
460,3793.39,2.8024526531117004
461,3796.08,2.6031682060357526
462,3798.7599999999998,2.751277243893173
463,3801.4500000000003,2.7565757968172253
464,3801.8939600000003,2.7743183000437885
465,3804.13,2.86403554259147
466,3806.82,2.845313019119867
467,3809.5,2.7981563897875636
468,3812.1899999999996,3.0385798663159607
469,3814.8700000000003,3.0027582369836567
470,3817.55,3.060504607651353
471,3820.24,3.2547000841797504
472,3822.92,2.7795974548474467
473,3825.6099999999997,2.8892259313758437
474,3828.29,2.73627730204354
475,3830.98,2.891467778571937
476,3833.66,2.6537301492396335
477,3836.3399999999997,2.58290251990733
478,3839.0299999999997,2.501061996435727
479,3841.71,2.4920203671034233
480,3844.4,2.26471684363182
481,3847.08,2.893982214299516
482,3849.77,2.9624946908279135
483,3852.45,2.95612106149561
484,3855.1400000000003,3.1447595380240063
485,3857.82,3.0848239086917033
486,3860.5,2.8947592793593993
487,3863.19,2.986385755887796
488,3865.8700000000003,3.1540351265554927
489,3868.56,3.3816786030838895
490,3871.2400000000002,3.249733973751586
491,3873.93,3.334691450279983
492,3876.6099999999997,3.1096228209476795
493,3879.2900000000004,2.879442191615376
494,3881.98,2.786932668143773
495,3884.66,3.0914890388114693
496,3887.35,2.9678645153398664
497,3890.0299999999997,2.5756618860075626
498,3892.7200000000003,2.727852362535959
499,3895.4,2.8813887332036563
500,3898.09,2.829995209732053
501,3900.77,2.8280665803997493
502,3903.45,2.6770069510674457
503,3906.1400000000003,2.9127644275958424
504,3908.82,3.240990798263539
505,3911.51,2.996572274791936
506,3914.19,3.109436645459632
507,3916.8799999999997,3.1768371219880294
508,3919.5600000000004,2.999440492655726
509,3922.2400000000002,3.0565208633234224
510,3924.93,3.0955843398518192
511,3927.61,2.8670697105195155
512,3930.2999999999997,2.8629051870479127
513,3932.98,3.035000557715609
514,3935.67,2.8928180342440055
515,3938.35,2.7306454049117024
516,3941.04,2.916172881440099
517,3943.72,3.0983802521077957
518,3946.4,3.2053556227754925
519,3949.09,2.932710099303889
520,3951.77,2.9642304699715853
521,3954.46,3.2243229464999823
522,3957.1400000000003,2.997365317167678
523,3959.83,2.8611837936960756
524,3962.51,2.9800491643637717
525,3965.19,2.7106395350314685
526,3967.8799999999997,2.8987240115598656
527,3970.5600000000004,2.824785382227562
528,3973.25,2.7582798587559587
529,3975.93,2.732570229423655
530,3978.62,2.495597705952052
531,3981.2999999999997,2.7414790766197483
532,3983.9900000000002,2.830105553148145
533,3986.67,2.8912959238158416
534,3989.35,3.063613294483538
535,3992.04,3.243694771011935
536,3994.72,3.223543141679632
537,3997.4100000000003,3.145590618208028
538,4000.09,3.0527609888757246
539,4002.78,3.2875164654041216
540,4005.46,3.165794836071818
541,4008.1499999999996,3.0489493126002154
542,4010.8300000000004,3.1535896832679113
543,4013.51,3.420921053935608
544,4016.2,3.279625530464005
545,4018.88,3.363709901131701
546,4021.5699999999997,3.2133023776600984
547,4024.2499999999995,3.1024707483277947
548,4026.94,3.0876382248561915
549,4029.62,3.178833595523888
550,4032.2999999999997,3.1909069661915845
551,4034.99,3.1185114427199814
552,4037.67,2.9344478133876777
553,4040.36,3.0751912899160745
554,4043.04,3.113601660583771
555,4045.73,3.047095137112168
556,4048.41,2.9773805077798645
557,4051.1000000000004,3.023777984308261
558,4053.78,3.184649354975958
559,4056.46,3.322072725643654
560,4059.15,3.0976562021720513
561,4061.8300000000004,3.1402895728397473
562,4064.52,3.195911049368144
563,4067.2000000000003,3.174202420035841
564,4069.89,3.1333658965642375
565,4072.5699999999997,3.116991267231934
566,4075.2500000000005,3.1560686378996303
567,4077.94,3.1452361144280276
568,4080.62,3.2402094850957237
569,4083.31,3.201595961624121
570,4085.99,3.1431053322918174
571,4088.6800000000003,3.251288808820214
572,4091.36,3.1492351794879108
573,4094.05,3.0398346560163074
574,4096.7300000000005,3.0362400266840037
575,4099.41,3.2016673973517005
576,4102.1,3.1750548738800974
577,4104.78,3.003548244547794
578,4107.469999999999,3.0204977210761905
579,4110.150000000001,3.0463510917438867
580,4112.84,3.1968735682722835
581,4115.5199999999995,3.0398139389399805
582,4118.2,3.119896309607677
583,4120.889999999999,3.0767267861360743
584,4123.57,3.09746815680377
585,4126.26,3.3112206333321668
586,4128.94,3.0805960039998634
587,4131.63,3.04176048052826
588,4134.3099999999995,3.0585008511959573
589,4137.0,3.133346327724354
590,4139.68,3.21854069839205
591,4142.36,3.240727069059747
592,4145.05,3.129992545588143
593,4147.7300000000005,3.13162091625584
594,4150.42,3.3361503927842366
595,4153.1,3.224651763451933
596,4155.79,3.25660323998033
597,4158.47,3.2138916106480266
598,4161.150000000001,3.2623039813157226
599,4163.84,3.3351494578441194
600,4166.52,3.236207828511816
601,4169.21,3.1370303050402137
