,lambda (Angstroms),Total Flux (erg/s/cm^2/Angstrom)
0,100.07000000000001,0.6491540646981144
1,101.93,0.647349213467009
2,104.07,0.6452721887949738
3,104.712855,0.6446483757446095
4,106.0,0.6380846088731574
5,107.97,0.6280388957070608
6,109.98,0.6177913844289926
7,114.11,0.5967316740184347
8,118.11999999999999,0.5762838967117915
9,120.22644299999999,0.5655691950775354
10,120.87,0.5628260672435229
11,125.12,0.5446639670507638
12,126.86,0.5372284142513989
13,128.03,0.532228830464757
14,131.01,0.519493389869293
15,131.92000000000002,0.5156133159463492
16,134.07,0.5064250020173064
17,136.87,0.494471675659018
18,138.038426,0.48947889011311946
19,140.06,0.4833059033669508
20,142.98999999999998,0.47447988559202675
21,147.0,0.4624507638464821
22,151.12,0.4498954405104113
23,154.99,0.4381108562073545
24,158.489319,0.4274595215114717
25,158.97000000000003,0.42635484253580097
26,161.92999999999998,0.4195514284421254
27,166.08,0.41001643256078935
28,169.95,0.40112259498831493
29,173.11,0.39386339068830967
30,177.14000000000001,0.3846022288107715
31,180.02,0.3779851189196276
32,181.970086,0.37350621027277114
33,182.1,0.3732789983584623
34,185.92000000000002,0.36659875067007736
35,191.12,0.35750101594086225
36,193.78,0.35285792896360996
37,197.84,0.3457567515246459
38,201.98000000000002,0.33851752340215535
39,204.79000000000002,0.33360876676829104
40,208.929613,0.3263318089999825
41,210.04999999999998,0.32485246224203085
42,215.93,0.31719388924276115
43,219.95000000000002,0.3119317855901993
44,223.01000000000002,0.3079104414069059
45,227.14999999999998,0.30249411657068553
46,229.77999999999997,0.29981036529550203
47,234.04999999999998,0.2957281985103181
48,239.88329199999998,0.2891111460298016
49,240.06,0.2889644159819696
50,246.22000000000003,0.28242175496354466
51,251.95,0.27688039796263975
52,257.23,0.2705344683754184
53,260.21,0.2683044953470246
54,263.83,0.26489167664139174
55,268.73,0.259887546581281
56,273.73,0.25475690554035174
57,275.42287,0.2530119302909717
58,278.82,0.2503170262722272
59,284.0,0.24628154490939616
60,289.95,0.24137037869533348
61,296.02,0.236647311997962
62,300.83,0.2326733028753331
63,307.83000000000004,0.22726546968231814
64,316.227766,0.22075933718743854
65,317.92,0.21978397970591113
66,328.33,0.21362142919931731
67,338.31,0.20766677231595454
68,347.78999999999996,0.20199667448286046
69,356.71000000000004,0.19673184006606728
70,363.078055,0.19301150693065744
71,365.86,0.1917951873390423
72,375.25,0.18757246252943222
73,384.87,0.183090193083378
74,394.75000000000006,0.17884864078743046
75,404.87,0.17438182178388903
76,414.3,0.17014840568967998
77,416.86938299999997,0.16897701103786325
78,422.0,0.1671695312201981
79,429.85,0.16442920483331636
80,440.88,0.16069045249353225
81,451.15000000000003,0.15714426531859274
82,459.53000000000003,0.15419967960622727
83,470.24,0.1505209546516409
84,478.630092,0.1476699260626779
85,480.08000000000004,0.14728932219204477
86,490.14000000000004,0.14453021431913674
87,500.40000000000003,0.14188063883444124
88,506.19,0.140282206973195
89,512.0600000000001,0.13895719806723372
90,520.38,0.1367202764168764
91,530.05,0.13409346288695387
92,539.9,0.13135499050642263
93,549.5408739999999,0.1287736214192282
94,549.94,0.12869112643635738
95,560.17,0.12674306948455127
96,570.5799999999999,0.12469143811717082
97,579.85,0.12276909271509426
98,590.63,0.1205989462712555
99,600.23,0.11854852977395938
100,609.98,0.11629965459701806
101,619.89,0.11465634949512178
102,629.97,0.11256917722296086
103,630.957344,0.11237524163280797
104,640.1999999999999,0.11093606037113347
105,650.6,0.10923069164648991
106,658.14,0.10795722444612332
107,665.76,0.10680337514018257
108,675.0200000000001,0.10532880016997108
109,684.41,0.1037150864032016
110,695.5300000000001,0.10201922072839037
111,705.21,0.10034864495391443
112,716.67,0.09863679458041298
113,724.43596,0.09739711541210438
114,726.6400000000001,0.09713372987279956
115,735.05,0.09612334330895908
116,745.28,0.09487082767422801
117,755.6400000000001,0.09362355696300474
118,764.39,0.092416934429877
119,775.03,0.09129918086159367
120,785.81,0.08995726836478028
121,794.9100000000001,0.0889094870103274
122,804.11,0.08782587713549596
123,815.3000000000001,0.08650056070513028
124,824.74,0.08538202438139018
125,831.763771,0.08445051959179109
126,834.2900000000001,0.08418922277286765
127,845.9,0.08326914160641503
128,855.69,0.0823794849794063
129,865.6,0.08150890371243423
130,875.62,0.0806184527754958
131,885.76,0.07971110019859401
132,896.02,0.07879737598172888
133,904.31,0.07804112285426185
134,914.7800000000001,0.07715641726746089
135,925.3699999999999,0.07720703704069662
136,933.94,0.0774854167533151
137,944.75,0.07756104918661805
138,954.992586,0.07725911743446373
139,955.69,0.07723986055586292
140,964.53,0.07685508669085116
141,975.7,0.07319167816911118
142,984.73,0.07442564546084687
143,996.1299999999999,0.07332322386569597
144,1005.35,0.07339181931417917
145,1014.65,0.07253163230234551
146,1024.04,0.0697210075226554
147,1035.9,0.06995101078068261
148,1045.48,0.07071637815773998
149,1055.16,0.06970368845940128
150,1064.92,0.06807718030074578
151,1074.77,0.06768827337423379
152,1084.72,0.06591948237232574
153,1094.76,0.06603706460256126
154,1096.4782,0.06584889670545395
155,1104.88,0.0650575019541234
156,1115.11,0.06420348990634397
157,1125.43,0.06298645298717642
158,1135.8400000000001,0.06295216219662081
159,1143.71,0.06209347599857349
160,1154.3,0.06141931646524169
161,1164.98,0.06065678406052181
162,1175.76,0.05863822268759293
163,1183.8999999999999,0.05910559687538135
164,1194.86,0.0575259637596763
165,1205.92,0.05610064467576225
166,1214.27,0.05457473283031178
167,1225.51,0.05523080500362157
168,1234.01,0.05546093470585761
169,1245.42,0.05485881223321211
170,1254.06,0.05410577257995559
171,1258.92541,0.053636396279925565
172,1265.66,0.05312052100140323
173,1274.43,0.05322742496780067
174,1286.2199999999998,0.05271464487473635
175,1295.1399999999999,0.051555538076590995
176,1304.12,0.051092623972628516
177,1316.18,0.05105446450338713
178,1325.3100000000002,0.050396529634881844
179,1334.49,0.0495747918448623
180,1343.75,0.04954036698041993
181,1356.1799999999998,0.048799355291972976
182,1365.5800000000002,0.04798197204729064
183,1375.04,0.0475542654967912
184,1384.58,0.04707379587186892
185,1394.17,0.04591971732543236
186,1403.8400000000001,0.04544258870457298
187,1413.5700000000002,0.04534213677789648
188,1423.37,0.04481379016110003
189,1436.54,0.04419097703424191
190,1443.17,0.04395519424145001
191,1445.43977,0.043843188267388075
192,1446.5,0.043806666296324716
193,1456.52,0.04334330145140479
194,1466.62,0.042777392501934616
195,1473.3899999999999,0.04252733577936896
196,1483.6,0.04219263756114217
197,1493.8799999999999,0.04181327162643391
198,1504.24,0.04129231258717538
199,1511.18,0.04076840926744042
200,1518.16,0.040648123395430336
201,1525.17,0.040353721359213904
202,1535.7399999999998,0.039627363170510965
203,1546.3799999999999,0.03924762526532654
204,1553.52,0.03890350118421592
205,1564.2900000000002,0.03865757823413732
206,1575.1299999999999,0.038414903567577256
207,1586.05,0.03810271279646692
208,1593.3700000000001,0.03787222973011822
209,1604.42,0.037406167914113726
210,1615.54,0.03699523238162774
211,1626.7400000000002,0.036500185744591504
212,1634.2400000000002,0.03635822169300473
213,1645.5700000000002,0.035961046011074325
214,1653.1699999999998,0.03556324407879974
215,1659.58691,0.03542233762322226
216,1664.63,0.03536363498962475
217,1672.31,0.03493093429189734
218,1676.1699999999998,0.03513449753496664
219,1683.9,0.03497658181707173
220,1695.5700000000002,0.034541588709978116
221,1703.3999999999999,0.03426557595174822
222,1715.21,0.03387699998818562
223,1723.1299999999999,0.03366694439365423
224,1735.07,0.03351491277765614
225,1743.08,0.033262640346823254
226,1755.16,0.03310424087435617
227,1763.2600000000002,0.032705351607221794
228,1775.48,0.03244245627828573
229,1783.68,0.03229637297081636
230,1796.0400000000002,0.0321662247854113
231,1804.3300000000002,0.03193186864164044
232,1816.8400000000001,0.031438417395732894
233,1825.23,0.03128765321162704
234,1833.65,0.031001175415420683
235,1846.36,0.03043587708884315
236,1854.8899999999999,0.030317462048268313
237,1863.45,0.030238488395592955
238,1876.36,0.03004140398834545
239,1885.02,0.029668920295335112
240,1893.7300000000002,0.02945274258215727
241,1905.46072,0.029241660532257623
242,1906.85,0.02922561519490568
243,1915.65,0.02902032281385509
244,1924.5,0.028725870640866714
245,1933.38,0.028432450192715675
246,1946.78,0.028596161953388648
247,1955.77,0.02831730716297447
248,1964.79,0.028443882097397618
249,1973.8600000000001,0.028236094239882978
250,1982.97,0.02808857234881811
251,1996.7199999999998,0.027825310565926575
252,2005.94,0.027648935332598573
253,2015.19,0.027492141824107905
254,2024.5,0.027203114765291886
255,2033.8400000000001,0.02720972043131319
256,2043.23,0.027226039305396715
257,2052.66,0.026870269145930013
258,2066.8900000000003,0.026605180960435702
259,2071.65,0.02682642096795835
260,2076.43,0.027782829458705874
261,2086.01,0.028236284923425798
262,2095.64,0.027717929596207946
263,2105.31,0.027422860235439862
264,2115.0299999999997,0.02765602308273399
265,2124.79,0.027088607896477886
266,2134.6,0.026695786918283997
267,2144.46,0.027305786148152315
268,2154.35,0.027130992102857965
269,2164.3,0.02644154050723826
270,2174.29,0.02629617987806834
271,2184.3199999999997,0.026934746215348193
272,2187.7616199999998,0.0268864311189179
273,2194.41,0.026831108619062398
274,2204.54,0.026551695368209373
275,2214.71,0.025492693774806084
276,2224.93,0.025870723253214982
277,2235.2,0.02698561480343605
278,2245.52,0.02657809042546929
279,2255.8900000000003,0.025306404119314705
280,2266.3,0.02494526647060987
281,2276.7599999999998,0.02515270189371721
282,2287.27,0.02632164338863673
283,2292.54,0.02533357975764014
284,2303.12,0.026122374153096702
285,2313.75,0.02523074062036544
286,2324.4300000000003,0.024133785159446353
287,2335.16,0.023718149770339453
288,2345.94,0.022619019453044717
289,2356.77,0.024412386207562163
290,2367.65,0.022579176033891785
291,2373.1,0.023261191861419034
292,2384.06,0.021849664002648136
293,2395.06,0.02223077080132698
294,2406.12,0.022080150086180445
295,2417.22,0.02239424402848364
296,2422.7999999999997,0.02439892624272255
297,2433.98,0.024271416499925223
298,2445.21,0.025153840828940083
299,2456.5,0.025374754644129555
300,2462.16,0.024414528173267946
301,2473.5299999999997,0.023589448303356898
302,2484.95,0.021591747505258024
303,2496.42,0.02208125477897133
304,2502.17,0.02414829903737164
305,2511.88643,0.021317634273749504
306,2513.72,0.020789054115935943
307,2519.5099999999998,0.02019150537882444
308,2525.3199999999997,0.020372659438821356
309,2536.9799999999996,0.021798810153032033
310,2542.83,0.021986563807245795
311,2554.5699999999997,0.025287995709890168
312,2566.3599999999997,0.0232145451053056
313,2572.27,0.02478316215084463
314,2584.15,0.023820472633247963
315,2596.0699999999997,0.023051575709868145
316,2602.06,0.022183951943840867
317,2614.07,0.02158029610744895
318,2626.1400000000003,0.0231817806623823
319,2632.1899999999996,0.027804787287680304
320,2644.34,0.031594339031047344
321,2656.54,0.03745358526718545
322,2662.6699999999996,0.02978017608091714
323,2674.96,0.03147169040404314
324,2687.31,0.033888470118494426
325,2693.5,0.02887850632355138
326,2705.93,0.03188938322643635
327,2712.17,0.027363263924264362
328,2724.69,0.024878631914137236
329,2737.27,0.02730074929533538
330,2743.58,0.022210106283042874
331,2756.24,0.024562415852674713
332,2762.5899999999997,0.027375564434599056
333,2775.34,0.02810315009121879
334,2788.1600000000003,0.022808467037718008
335,2794.58,0.018637029909521832
336,2807.48,0.019224813044454746
337,2813.9500000000003,0.026227239409029622
338,2826.94,0.03137411663095044
339,2833.46,0.030258362488296383
340,2846.54,0.025740197797205107
341,2853.1,0.02095932624876789
342,2866.27,0.029943250644664514
343,2872.8799999999997,0.035624774588998355
344,2884.0315,0.03390388745712704
345,2886.14,0.03358402494843018
346,2892.79,0.03799090847656564
347,2912.8399999999997,0.046493589790718416
348,2933.0299999999997,0.042248310126516156
349,2953.3599999999997,0.03992602948395885
350,2967.0,0.04103857702136752
351,2987.5600000000004,0.041405339057226924
352,3008.27,0.04139295718770593
353,3029.1200000000003,0.04337962433982989
354,3050.12,0.04479327758657346
355,3071.26,0.04760846985496196
356,3092.55,0.04660331821797008
357,3106.83,0.052074738425755704
358,3128.36,0.04898158654015517
359,3150.0499999999997,0.048835257822148884
360,3171.88,0.052724958125787535
361,3186.52,0.04733493296066019
362,3208.61,0.05108322716163949
363,3230.85,0.04501150745723838
364,3253.2499999999995,0.058515380920431515
365,3268.26,0.06650472745536584
366,3290.92,0.0654778648158996
367,3311.31121,0.0622374087351612
368,3313.7299999999996,0.06185746789426225
369,3321.3700000000003,0.05861231465893809
370,3329.02,0.0648415668513164
371,3336.7000000000003,0.06459925532680205
372,3344.39,0.06094432922999017
373,3352.1,0.0571134839885832
374,3359.83,0.06685601960258114
375,3367.5699999999997,0.06198169064428154
376,3375.34,0.04854584796908929
377,3383.12,0.052980320721599514
378,3390.91,0.06376620890181219
379,3398.73,0.06163805336513222
380,3406.5699999999997,0.06524341868385716
381,3414.42,0.06353118943028457
382,3422.29,0.07005879103211689
383,3430.18,0.06562908348935412
384,3438.0899999999997,0.06716040680199625
385,3446.0099999999998,0.04787025554234084
386,3453.9599999999996,0.06861066056579279
387,3461.92,0.058262101016947204
388,3469.9,0.061879842323506525
389,3477.9,0.05509966448547076
390,3485.92,0.0625916075028399
391,3493.9500000000003,0.056435635947911504
392,3502.0099999999998,0.06212024067609047
393,3510.08,0.06785678083197189
394,3518.17,0.060605191843258216
395,3526.2799999999997,0.05621350370994946
396,3534.41,0.06774189643204562
397,3542.56,0.07575979000954668
398,3550.7300000000005,0.07341229444245263
399,3558.9100000000003,0.06802278430306108
400,3567.11,0.06456058501907441
401,3575.34,0.056511452018195116
402,3583.58,0.04867083444501828
403,3591.84,0.04955379772724634
404,3600.12,0.07376139186487933
405,3608.42,0.06213357685791722
406,3616.74,0.06635758270636002
407,3625.07,0.06521230398250527
408,3633.4300000000003,0.0683407815417579
409,3641.81,0.07867514995641543
410,3650.2000000000003,0.06384567379877543
411,3658.6200000000003,0.08532166392424277
412,3667.05,0.08482281947741259
413,3675.5,0.08658286588598732
414,3683.98,0.0719768885776694
415,3692.47,0.07535828669705394
416,3700.98,0.0840380356718434
417,3709.5099999999998,0.06167001550203776
418,3718.07,0.09160962161533949
419,3726.64,0.06399221315634367
420,3735.23,0.07019477555275276
421,3743.84,0.07542832880456676
422,3752.47,0.04840549291178568
423,3761.12,0.07077491787440951
424,3769.79,0.06749557369243825
425,3778.48,0.08199908036587189
426,3787.1899999999996,0.09237095789471046
427,3795.92,0.07281688627895393
428,3801.8939600000003,0.07312327139292993
429,3804.67,0.07326923418714226
430,3813.44,0.08480605151908527
431,3822.23,0.06570867556102132
432,3831.04,0.050956646312950396
433,3839.8700000000003,0.05020075377487251
434,3848.73,0.07264194630178415
435,3857.6,0.07164870718369232
436,3866.4900000000002,0.07597950477559351
437,3875.4,0.06166266907748772
438,3884.34,0.06647400844437149
439,3893.29,0.06328326616625177
440,3895.09,0.07675375006562433
441,3899.15,0.08355342219420914
442,3903.2099999999996,0.08449631432279392
443,3907.27,0.08994377645137872
444,3911.33,0.08504905857996352
445,3915.3900000000003,0.0856571907085483
446,3919.45,0.07786926283713311
447,3923.51,0.0665030649657179
448,3927.57,0.0579516370943027
449,3931.6400000000003,0.048262127577884006
450,3935.7,0.0492829497064688
451,3939.7599999999998,0.0551338018350536
452,3943.82,0.07387845396363839
453,3947.8799999999997,0.07870222609222319
454,3951.94,0.08065920822080798
455,3956.0,0.07941425034939278
456,3960.0600000000004,0.07064187247797758
457,3964.12,0.06193447460656237
458,3968.18,0.05460495673514717
459,3972.2400000000002,0.05974072886373197
460,3976.2999999999997,0.06833813099231677
461,3980.36,0.08824964312090156
462,3984.42,0.09647979524948636
463,3988.48,0.10299333737807115
464,3992.54,0.10962754950665594
465,3996.6000000000004,0.11009600163524073
466,4000.66,0.10867867376382553
467,4004.72,0.11114600589241033
468,4008.78,0.11567085802099512
469,4012.8399999999997,0.11774431014957992
470,4016.9,0.11600576227816473
471,4020.96,0.11706901440674952
472,4025.0200000000004,0.1131878665353343
473,4029.08,0.1153107186639191
474,4033.14,0.11278557079250391
475,4037.2000000000003,0.10659346292108869
476,4041.2599999999998,0.10984417504967349
477,4045.32,0.1133125271782583
478,4049.38,0.11204797930684308
479,4053.4399999999996,0.11029313143542788
480,4057.5,0.11385208356401268
481,4061.56,0.11216873569259747
482,4065.62,0.10882778782118226
483,4069.68,0.10894783994976706
484,4073.7400000000002,0.10900019207835186
485,4077.7999999999997,0.11415884420693666
486,4081.86,0.12155319633552145
487,4085.92,0.12364024846410625
488,4089.9799999999996,0.11824180059269104
489,4094.04,0.11533575272127583
490,4098.1,0.11253760484986063
491,4102.16,0.10856925697844542
492,4106.22,0.10706091910703024
493,4110.28,0.11509606123561501
494,4114.34,0.11439441336419981
495,4118.4,0.11510926549278462
496,4122.46,0.1170891176213694
497,4126.52,0.1127469697499542
498,4130.58,0.11319532187853901
499,4134.64,0.1153538740071238
500,4138.7,0.11177832613570858
501,4142.76,0.11224347826429339
502,4146.82,0.11202603039287819
503,4150.88,0.10853498252146297
504,4154.94,0.11521483465004777
505,4159.0,0.11187048677863257
506,4163.06,0.11593003890721736
507,4167.12,0.11591409103580216
508,4171.18,0.11349294316438696
509,4175.24,0.11100629529297176
510,4179.3,0.11289834742155654
511,4183.36,0.11319769955014135
512,4187.42,0.11433185167872614
513,4191.4800000000005,0.11503100380731093
514,4195.54,0.11363695593589573
515,4199.6,0.11339950806448053
516,4203.66,0.11286356019306533
517,4207.719999999999,0.11542841232165013
518,4211.78,0.11726146445023491
519,4215.84,0.11683271657881972
520,4219.9,0.11369276870740451
521,4223.96,0.1137808208359893
522,4228.02,0.1100464729645741
523,4232.08,0.1083139250931589
524,4236.14,0.10991017722174368
525,4240.2,0.11150642935032848
526,4244.26,0.11310218147891328
527,4248.32,0.11469843360749808
528,4252.38,0.11494578573608287
529,4256.4400000000005,0.11812443786466767
530,4260.5,0.11533918999325246
531,4264.56,0.11264824212183726
532,4268.62,0.11253759425042205
533,4272.679999999999,0.11271024637900685
534,4276.74,0.11222619850759165
535,4280.8,0.11190105063617643
536,4284.86,0.11121550276476123
537,4288.92,0.10905765489334604
538,4292.9800000000005,0.10130542702193082
539,4297.04,0.09152865915051563
540,4301.1,0.09552974127910042
541,4305.17,0.09464550176268173
542,4309.23,0.10278463389126653
543,4313.29,0.10846613601985133
544,4317.349999999999,0.11336788814843611
545,4321.41,0.12426014027702091
546,4325.47,0.1277572924056057
547,4329.53,0.1238865445341905
548,4333.59,0.12648389666277532
549,4337.650000000001,0.1247805487913601
550,4341.71,0.12462810091994489
551,4345.7699999999995,0.12311375304852969
552,4349.83,0.12521980517711448
553,4353.89,0.13058325730569928
554,4357.95,0.13048930943428408
555,4362.01,0.1347113615628689
556,4365.15832,0.1330859073100285
557,4366.070000000001,0.13261606596433956
558,4370.13,0.12952531353421598
559,4374.19,0.12032126110409237
560,4378.25,0.11952910867396879
561,4382.3099999999995,0.11739075624384519
562,4386.37,0.12051190381372161
563,4390.43,0.119492151383598
564,4394.49,0.12639299895347442
565,4398.55,0.12334834652335082
566,4402.610000000001,0.12731139409322723
567,4406.67,0.12965204166310365
568,4410.73,0.12958468923298005
569,4414.79,0.13226383680285647
570,4418.849999999999,0.13024898437273286
571,4422.91,0.13355873194260928
572,4426.97,0.13521397951248568
573,4431.030000000001,0.1379869270823621
574,4435.09,0.1400127746522385
575,4439.15,0.13834302222211492
