,lambda (Angstroms),Total Flux (erg/s/cm^2/Angstrom)
0,100.07000000000001,3.2457523117985714
1,101.93,3.2367239599990447
2,104.07,3.2263360260708684
3,104.712855,3.223215619763562
4,106.0,3.1903941003017873
5,107.97,3.140160395415304
6,109.98,3.0889088925849633
7,114.11,2.983597199532174
8,118.11999999999999,2.8813454390789577
9,120.22644299999999,2.827659309097765
10,120.87,2.8139092618976145
11,125.12,2.723058328693819
12,126.86,2.6858631124969943
13,128.03,2.6608527205637844
14,131.01,2.5971495805864646
15,131.92000000000002,2.5777055447717454
16,134.07,2.5317452329665318
17,136.87,2.4719027930950896
18,138.038426,2.44692611992572
19,140.06,2.416039134434754
20,142.98999999999998,2.3713934947601336
21,147.0,2.3103416140324105
22,151.12,2.2474187677520567
23,154.99,2.1883229422367725
24,158.489319,2.1348919886035445
25,158.97000000000003,2.1293446538790044
26,161.92999999999998,2.0951836762106266
27,166.08,2.047292636803947
28,169.95,2.002630633341574
29,173.11,1.9661653814415483
30,177.14000000000001,1.9196572664538576
31,180.02,1.886421986598138
32,181.970086,1.8639195638563024
33,182.1,1.8627763173923115
34,185.92000000000002,1.8291609281503867
35,191.12,1.7833975557043114
36,193.78,1.7599985848180497
37,197.84,1.7242700056232294
38,201.98000000000002,1.6878392890107765
39,204.79000000000002,1.6631169858414552
40,208.929613,1.626651268352761
41,210.04999999999998,1.619232631210154
42,215.93,1.5804035542138057
43,219.95000000000002,1.5538310039509962
44,223.01000000000002,1.5335882750345293
45,227.14999999999998,1.5062253708534274
46,229.77999999999997,1.48959971047751
47,234.04999999999998,1.4628818205515906
48,239.88329199999998,1.4253418681387398
49,240.06,1.4244732719098478
50,246.22000000000003,1.3927665228177235
51,251.95,1.3638176618131987
52,257.23,1.335902513877092
53,260.21,1.321499004735123
54,263.83,1.3032981992069588
55,268.73,1.278277180906405
56,273.73,1.2527211437017585
57,275.42287,1.2440606603716442
58,278.82,1.230715359361136
59,284.0,1.2104399765469809
60,289.95,1.1868748694766673
61,296.02,1.1631216479898099
62,300.83,1.1440677303766655
63,307.83000000000004,1.1167140844115908
64,316.227766,1.08387998043963
65,317.92,1.0789420465295556
66,328.33,1.0484031859965866
67,338.31,1.0190791175797727
68,347.78999999999996,0.9912104204143023
69,356.71000000000004,0.9650582963303362
70,363.078055,0.9464263702126969
71,365.86,0.9403315526952114
72,375.25,0.919642256647161
73,384.87,0.8982900814168899
74,394.75000000000006,0.8767226799371521
75,404.87,0.8545091409194451
76,414.3,0.8337390084483999
77,416.86938299999997,0.8280618706434055
78,422.0,0.8193835721009903
79,429.85,0.8061306841665817
80,440.88,0.7876207784676612
81,451.15000000000003,0.7703212145929637
82,459.53000000000003,0.7561543020311363
83,470.24,0.7381329612582044
84,478.630092,0.7240460908170869
85,480.08000000000004,0.7221721509602239
86,490.14000000000004,0.7090517235956837
87,500.40000000000003,0.6958348381722063
88,506.19,0.6882729828659749
89,512.0600000000001,0.6809021543361686
90,520.38,0.6700960300843819
91,530.05,0.6575095784347693
92,539.9,0.6446260765321131
93,549.5408739999999,0.632115067714047
94,549.94,0.631718980181787
95,560.17,0.6217332314227563
96,570.5799999999999,0.6115024825858542
97,579.85,0.6022967155754713
98,590.63,0.5916567433562775
99,600.23,0.5820636248697969
100,609.98,0.5721541929850903
101,619.89,0.5627246194756088
102,629.97,0.5527176101148044
103,630.957344,0.5517479201962338
104,640.1999999999999,0.5445519018556674
105,650.6,0.5363688382324495
106,658.14,0.5303990422306166
107,665.76,0.5244990357009128
108,675.0200000000001,0.5172568208498554
109,684.41,0.5097944960160079
110,695.5300000000001,0.5011724796419518
111,705.21,0.49347266476957213
112,716.67,0.4846228929020649
113,724.43596,0.47854614455351285
114,726.6400000000001,0.47726374136399774
115,735.05,0.47236506854479543
116,745.28,0.46638280637114005
117,755.6400000000001,0.46034568481502364
118,764.39,0.455093580149385
119,775.03,0.4490565203079683
120,785.81,0.44273057382390135
121,794.9100000000001,0.43747549105163697
122,804.11,0.4321383456774797
123,815.3000000000001,0.4256394355256514
124,824.74,0.4201564019069509
125,831.763771,0.4159775211078262
126,834.2900000000001,0.4148431898643382
127,845.9,0.4099108320320751
128,855.69,0.40563786889703146
129,865.6,0.4013425105621712
130,875.62,0.39698926787747896
131,885.76,0.39257765299297
132,896.02,0.3881181959086444
133,904.31,0.3844970182713092
134,914.7800000000001,0.37999400633730446
135,925.3699999999999,0.3763848492034831
136,933.94,0.3737015397665755
137,944.75,0.37004136593309017
138,954.992586,0.36619971938288615
139,955.69,0.3659446507793146
140,964.53,0.36257086945425576
141,975.7,0.35513062684555585
142,984.73,0.3533113433042344
143,996.1299999999999,0.3483543193284799
144,1005.35,0.34530542057089575
145,1014.65,0.34130068951172754
146,1024.04,0.335315089613277
147,1035.9,0.331534953903413
148,1045.48,0.3290611027886999
149,1055.16,0.3247753822970064
150,1064.92,0.31984879350372886
151,1074.77,0.31612937487116893
152,1084.72,0.3109962598616287
153,1094.76,0.30771908701280626
154,1096.4782,0.30694995614987847
155,1104.88,0.30383261777061693
156,1115.11,0.3001465455317198
157,1125.43,0.2960725329358821
158,1135.8400000000001,0.29315635098310405
159,1143.71,0.2901189439928674
160,1154.3,0.28651306232620843
161,1164.98,0.28279389230260904
162,1175.76,0.27779100943796464
163,1183.8999999999999,0.2760049163769067
164,1194.86,0.2713911307983815
165,1205.92,0.2669039753788112
166,1214.27,0.2630664601515589
167,1225.51,0.2606108650181078
168,1234.01,0.25848786552928804
169,1245.42,0.25472701316606056
170,1254.06,0.2515820868997779
171,1258.92541,0.24976577668240024
172,1265.66,0.24792080500701613
173,1274.43,0.24629691683900332
174,1286.2199999999998,0.24345733637368175
175,1295.1399999999999,0.24053783438295495
176,1304.12,0.23830268386314257
177,1316.18,0.23588443851693566
178,1325.3100000000002,0.2334246641744092
179,1334.49,0.23079121922431148
180,1343.75,0.2289292989020996
181,1356.1799999999998,0.22573518045986488
182,1365.5800000000002,0.22306267223645315
183,1375.04,0.22076799948395595
184,1384.58,0.21840477535934458
185,1394.17,0.21535807462716178
186,1403.8400000000001,0.2129725355228649
187,1413.5700000000002,0.2109518318894824
188,1423.37,0.20848941880550012
189,1436.54,0.20526745717120953
190,1443.17,0.20372321920725003
191,1445.43977,0.20316326567755297
192,1446.5,0.20298069148162354
193,1456.52,0.20113701925702393
194,1466.62,0.19917978250967308
195,1473.3899999999999,0.19799712289684476
196,1483.6,0.19625594380571085
197,1493.8799999999999,0.19446045413216953
198,1504.24,0.1925123509358769
199,1511.18,0.1910324263372021
200,1518.16,0.18995060897715169
201,1525.17,0.1886905427960695
202,1535.7399999999998,0.18650811185255484
203,1546.3799999999999,0.18466265832663267
204,1553.52,0.1833349619210796
205,1564.2900000000002,0.1816054151706866
206,1575.1299999999999,0.17986947383788626
207,1586.05,0.17805299598233457
208,1593.3700000000001,0.17681414465059112
209,1604.42,0.17482588757056863
210,1615.54,0.1728831139081387
211,1626.7400000000002,0.1708452087229575
212,1634.2400000000002,0.16967008046502366
213,1645.5700000000002,0.1677121380553716
214,1653.1699999999998,0.1662673963939987
215,1659.58691,0.16524252704144113
216,1664.63,0.16469725894812373
217,1672.31,0.1635235794594867
218,1676.1699999999998,0.16335472367483317
219,1683.9,0.16245100508535865
220,1695.5700000000002,0.16089007154989055
221,1703.3999999999999,0.1598586077587411
222,1715.21,0.1583305839409281
223,1723.1299999999999,0.15735639396827114
224,1735.07,0.15605237188828072
225,1743.08,0.15502728173411626
226,1755.16,0.15370338437178085
227,1763.2600000000002,0.15252299403610897
228,1775.48,0.15108109339142864
229,1783.68,0.15014386085408177
230,1796.0400000000002,0.1488211999270565
231,1804.3300000000002,0.1477870112082022
232,1816.8400000000001,0.14608657497866445
233,1825.23,0.1451263300581352
234,1833.65,0.1440274770771034
235,1846.36,0.14223589744421575
236,1854.8899999999999,0.14129449424134155
237,1863.45,0.14038963797796478
238,1876.36,0.13894697594172725
239,1885.02,0.13773896147667555
240,1893.7300000000002,0.13668242891078636
241,1905.46072,0.13533954806894666
242,1906.85,0.13522527597452838
243,1915.65,0.13439779406927543
244,1924.5,0.13347761720433357
245,1933.38,0.13255635096357837
246,1946.78,0.13177263776694323
247,1955.77,0.13085815981487234
248,1964.79,0.13034699048698808
249,1973.8600000000001,0.1294979231994149
250,1982.97,0.12870629374409054
251,1996.7199999999998,0.12747086082963288
252,2005.94,0.12664260066299285
253,2015.19,0.12583180112053952
254,2024.5,0.12488452582645941
255,2033.8400000000001,0.12423076215656595
256,2043.23,0.12358317652698357
257,2052.66,0.12256067372965006
258,2066.8900000000003,0.12128947680217853
259,2071.65,0.12117416883979173
260,2076.43,0.12179261529352937
261,2086.01,0.12156873261712899
262,2095.64,0.12036950398103974
263,2105.31,0.11939073317719931
264,2115.0299999999997,0.11893665941366996
265,2124.79,0.11767917948238941
266,2134.6,0.11659275859141996
267,2144.46,0.11650562274076157
268,2154.35,0.11563157251428981
269,2164.3,0.1142386225361913
270,2174.29,0.1133869353903417
271,2184.3199999999997,0.11331634707674094
272,2187.7616199999998,0.11302469789959642
273,2194.41,0.11265135509531198
274,2204.54,0.11188738084104684
275,2214.71,0.11034190487403041
276,2224.93,0.1102310682660749
277,2235.2,0.11085470201718023
278,2245.52,0.10995352812734645
279,2255.8900000000003,0.10818580059657353
280,2266.3,0.10732670835304935
281,2276.7599999999998,0.10703379746858606
282,2287.27,0.10770000094318363
283,2292.54,0.10645985078820068
284,2303.12,0.1067425587654835
285,2313.75,0.10534244710182719
286,2324.4300000000003,0.10373462179723177
287,2335.16,0.10280572485169724
288,2345.94,0.10119094126522357
289,2356.77,0.10246626303781081
290,2367.65,0.10011261616945892
291,2373.1,0.10053393530709516
292,2384.06,0.09859814401324069
293,2395.06,0.09845307400663492
294,2406.12,0.09777340643090221
295,2417.22,0.0975565401424182
296,2422.7999999999997,0.09929430721361274
297,2433.98,0.09863201049962612
298,2445.21,0.09897725614470042
299,2456.5,0.09865812122064777
300,2462.16,0.09742715286633971
301,2473.5299999999997,0.0960581975167845
302,2484.95,0.09351422952629013
303,2496.42,0.09345507789485664
304,2502.17,0.09524707518685818
305,2511.88643,0.091951632232675
306,2513.72,0.0913577025796797
307,2519.5099999999998,0.09055379489412219
308,2525.3199999999997,0.09052787719410677
309,2536.9799999999996,0.09153845876516017
310,2542.83,0.09151771503622898
311,2554.5699999999997,0.09440072654945085
312,2566.3599999999997,0.091907073526528
313,2572.27,0.09326505475422314
314,2584.15,0.09187895516623981
315,2596.0699999999997,0.09068522254934072
316,2602.06,0.08960411171920435
317,2614.07,0.08857241253724475
318,2626.1400000000003,0.08974371531191151
319,2632.1899999999996,0.09415109643840153
320,2644.34,0.09750761515523673
321,2656.54,0.10293204633592726
322,2662.6699999999996,0.09504016040458568
323,2674.96,0.09629365202021573
324,2687.31,0.09827027059247212
325,2693.5,0.0930396916177569
326,2705.93,0.09560755613218175
327,2712.17,0.0908590396213218
328,2724.69,0.08792818757068617
329,2737.27,0.0899019464766769
330,2743.58,0.08458641141521436
331,2756.24,0.08648751126337355
332,2762.5899999999997,0.08907434217299527
333,2775.34,0.08934751045609393
334,2788.1600000000003,0.08359591518859004
335,2794.58,0.07919566554760916
336,2807.48,0.07932368522227372
337,2813.9500000000003,0.08609551704514812
338,2826.94,0.09077942315475221
339,2833.46,0.0894312924414819
340,2846.54,0.08444694898602552
341,2853.1,0.07943227524383943
342,2866.27,0.08794681322332255
343,2872.8799999999997,0.09339275294499177
344,2884.0315,0.09127441990403654
345,2886.14,0.09090148474215087
346,2892.79,0.09514098238282818
347,2912.8399999999997,0.10313898895359208
348,2933.0299999999997,0.09838551063258076
349,2953.3599999999997,0.09555150741979422
350,2967.0,0.09632072510683759
351,2987.5600000000004,0.09616997528613462
352,3008.27,0.09563630593852966
353,3029.1200000000003,0.09709816169914945
354,3050.12,0.09798322793286729
355,3071.26,0.10026630927480984
356,3092.55,0.09872527108985041
357,3106.83,0.10383725212877852
358,3128.36,0.10020217270077586
359,3150.0499999999997,0.0995098891107444
360,3171.88,0.10285011062893769
361,3186.52,0.09709158480330096
362,3208.61,0.10028385580819744
363,3230.85,0.0936523372861919
364,3253.2499999999995,0.10659238460215757
365,3268.26,0.11420391727682917
366,3290.92,0.112606684079498
367,3311.31121,0.10885296472324146
368,3313.7299999999996,0.10842989947131125
369,3321.3700000000003,0.10504853329469044
370,3329.02,0.11114139425658194
371,3336.7000000000003,0.11076215663401026
372,3344.39,0.10697012614995086
373,3352.1,0.10300181994291599
374,3359.83,0.1126065380129057
375,3367.5699999999997,0.10759421322140769
376,3375.34,0.09401983984544647
377,3383.12,0.09831560360799757
378,3390.91,0.10896260450906092
379,3398.73,0.10669502682566111
380,3406.5699999999997,0.11016061341928585
381,3414.42,0.10830842715142286
382,3422.29,0.11469571516058444
383,3430.18,0.11012533744677055
384,3438.0899999999997,0.11151563400998124
385,3446.0099999999998,0.09208427771170419
386,3453.9599999999996,0.11268294282896398
387,3461.92,0.10219246508473603
388,3469.9,0.10566793161753263
389,3477.9,0.0987451224273538
390,3485.92,0.10609407751419953
391,3493.9500000000003,0.0997949397395575
392,3502.0099999999998,0.10533584338045235
393,3510.08,0.11092850415985943
394,3518.17,0.10353267921629108
395,3526.2799999999997,0.09899639854974729
396,3534.41,0.11037984216022806
397,3542.56,0.11825243004773336
398,3550.7300000000005,0.1157592722122632
399,3558.9100000000003,0.11022392151530536
400,3567.11,0.10661552509537206
401,3575.34,0.09841966009097558
402,3583.58,0.09043213222509139
403,3591.84,0.09116782863623171
404,3600.12,0.11522779932439664
405,3608.42,0.10345200428958609
406,3616.74,0.10752767353180011
407,3625.07,0.10623387991252638
408,3633.4300000000003,0.1092133077087895
409,3641.81,0.11939826978207717
410,3650.2000000000003,0.1044192089938771
411,3658.6200000000003,0.1257450796212139
412,3667.05,0.12509593738706293
413,3675.5,0.12670532942993656
414,3683.98,0.111948162888347
415,3692.47,0.1151781934852697
416,3700.98,0.12370621835921695
417,3709.5099999999998,0.10118611751018877
418,3718.07,0.13097310807669743
419,3726.64,0.10320290578171834
420,3735.23,0.10925231776376382
421,3743.84,0.11433236402283384
422,3752.47,0.08715566455892843
423,3761.12,0.10937086937204757
424,3769.79,0.10593694846219125
425,3778.48,0.12028552182935948
426,3787.1899999999996,0.13050210947355229
427,3795.92,0.11079239139476962
428,3801.8939600000003,0.11099226725968954
429,3804.67,0.11110309093571127
430,3813.44,0.12252889759542636
431,3822.23,0.10332025780510659
432,3831.04,0.08845671156475199
433,3839.8700000000003,0.0875890488743625
434,3848.73,0.10991809150892075
435,3857.6,0.10881257591846157
436,3866.4900000000002,0.11303084387796752
437,3875.4,0.09860122538743861
438,3884.34,0.10329940222185742
439,3893.29,0.09999537083125881
440,3895.09,0.11344307032812165
441,3899.15,0.12019135097104564
442,3903.2099999999996,0.12108285161396962
443,3907.27,0.12647892225689358
444,3911.33,0.12153281289981757
445,3915.3900000000003,0.12208955354274154
446,3919.45,0.11425023418566554
447,3923.51,0.1028326448285895
448,3927.57,0.09422982547151348
449,3931.6400000000003,0.08448879788942003
450,3935.7,0.08545822853234401
451,3939.7599999999998,0.091257689175268
452,3943.82,0.10995094981819196
453,3947.8799999999997,0.11472333046111594
454,3951.94,0.11662892110403993
455,3956.0,0.1153325717469639
456,3960.0600000000004,0.10650880238988789
457,3964.12,0.09775001303281186
458,3968.18,0.09036910367573583
459,3972.2400000000002,0.09545348431865983
460,3976.2999999999997,0.10399949496158381
461,3980.36,0.12385961560450778
462,3984.42,0.13203837624743175
463,3988.48,0.13850052689035575
464,3992.54,0.14508334753327973
465,3996.6000000000004,0.1455004081762037
466,4000.66,0.14403168881912767
467,4004.72,0.14644762946205164
468,4008.78,0.15092109010497562
469,4012.8399999999997,0.1529431507478996
470,4016.9,0.1511532113908236
471,4020.96,0.15216507203374757
472,4025.0200000000004,0.14823253267667152
473,4029.08,0.15030399331959554
474,4033.14,0.14772745396251952
475,4037.2000000000003,0.14148395460544347
476,4041.2599999999998,0.14468327524836747
477,4045.32,0.14810023589129145
478,4049.38,0.14678429653421543
479,4053.4399999999996,0.1449780571771394
480,4057.5,0.14848561782006336
481,4061.56,0.14675087846298734
482,4065.62,0.14335853910591134
483,4069.68,0.14342719974883533
484,4073.7400000000002,0.1434281603917593
485,4077.7999999999997,0.14853542103468328
486,4081.86,0.15587838167760726
487,4085.92,0.15791404232053124
488,4089.9799999999996,0.1524642029634552
489,4094.04,0.14950676360637918
490,4098.1,0.14665722424930316
491,4102.16,0.14263748489222713
492,4106.22,0.14107775553515112
493,4110.28,0.1490615061780751
494,4114.34,0.14830846682099907
495,4118.4,0.14897192746392307
496,4122.46,0.15090038810684703
497,4126.52,0.14650684874977102
498,4130.58,0.146903809392695
499,4134.64,0.14901097003561897
500,4138.7,0.14538403067854294
501,4142.76,0.14579779132146692
502,4146.82,0.14552895196439092
503,4150.88,0.14198651260731487
504,4154.94,0.14861497325023887
505,4159.0,0.14521923389316285
506,4163.06,0.1492273945360868
507,4167.12,0.14916005517901082
508,4171.18,0.1466875158219348
509,4175.24,0.14414947646485876
510,4179.3,0.14599013710778275
511,4183.36,0.14623809775070673
512,4187.42,0.14732085839363068
513,4191.4800000000005,0.14796861903655467
514,4195.54,0.14652317967947867
515,4199.6,0.14623434032240262
516,4203.66,0.14564700096532662
517,4207.719999999999,0.1481604616082506
518,4211.78,0.1499421222511746
519,4215.84,0.14946198289409857
520,4219.9,0.14627064353702252
521,4223.96,0.1463073041799465
522,4228.02,0.14252156482287048
523,4232.08,0.1407376254657945
524,4236.14,0.14228248610871844
525,4240.2,0.14382734675164244
526,4244.26,0.1453717073945664
527,4248.32,0.14691656803749037
528,4252.38,0.14711252868041436
529,4256.4400000000005,0.15023978932333834
530,4260.5,0.1474031499662623
531,4264.56,0.14466081060918629
532,4268.62,0.14449877125211028
533,4272.679999999999,0.14462003189503425
534,4276.74,0.14408459253795824
535,4280.8,0.1437080531808822
536,4284.86,0.1429711138238062
537,4288.92,0.14076187446673016
538,4292.9800000000005,0.13295825510965414
539,4297.04,0.12313009575257813
540,4301.1,0.1270797863955021
541,4305.17,0.12614402881340867
542,4309.23,0.13423176945633264
543,4313.29,0.13986188009925662
544,4317.349999999999,0.1447122407421806
545,4321.41,0.15555310138510456
546,4325.47,0.15899886202802854
547,4329.53,0.15507672267095252
548,4333.59,0.15762268331387652
549,4337.650000000001,0.15586794395680048
550,4341.71,0.15566410459972446
551,4345.7699999999995,0.15409836524264844
552,4349.83,0.15615302588557242
553,4353.89,0.1614650865284964
554,4357.95,0.1613197471714204
555,4362.01,0.16549040781434438
556,4365.15832,0.16382510212255433
557,4366.070000000001,0.1633471298216978
558,4370.13,0.16022016767107986
559,4374.19,0.1509799055204619
560,4378.25,0.15015154336984393
561,4382.3099999999995,0.14797698121922598
562,4386.37,0.15106191906860802
563,4390.43,0.15000595691799007
564,4394.49,0.15687059476737208
565,4398.55,0.15378973261675413
566,4402.610000000001,0.15771657046613619
567,4406.67,0.16002100831551822
568,4410.73,0.15991744616490028
569,4414.79,0.1625603840142823
570,4418.849999999999,0.16050932186366434
571,4422.91,0.16378285971304637
572,4426.97,0.1654018975624284
573,4431.030000000001,0.16813863541181046
574,4435.09,0.17012827326119248
575,4439.15,0.16842231111057454
576,4443.21,0.17112324895995656
577,4447.2699999999995,0.1710293868093386
578,4451.33,0.17230012465872066
579,4455.39,0.1660274625081027
580,4459.45,0.16416220035748474
581,4463.51,0.16491943820686678
582,4467.57,0.1714920760562488
