,lambda (Angstroms),Total Flux (erg/s/cm^2/Angstrom)
0,101.98,3.172301843872557
1,104.11,3.1621720026993447
2,104.712855,3.1593056662811323
3,106.05,3.1258896725841328
4,108.02000000000001,3.0766606744449354
5,110.03,3.026442251998851
6,113.9,2.929740042112509
7,117.9,2.829790316633783
8,120.22644299999999,2.77189864548958
9,120.92,2.757441436489578
10,124.88000000000001,2.6745501973792387
11,126.91,2.6320451041163637
12,128.09,2.6073467114344955
13,131.07,2.5449472690752004
14,131.98,2.5259922596849456
15,134.12,2.4811829620551165
16,136.93,2.422492871872022
17,138.038426,2.3992888035814115
18,140.12,2.3681535570937347
19,143.06,2.3259765545720916
20,147.06,2.2700831959848218
21,150.84,2.213791793599852
22,155.06,2.1510145108102825
23,158.489319,2.1000580046459385
24,159.04000000000002,2.093887816623268
25,162.0,2.0606949860157906
26,166.15,2.014288434468144
27,170.02,1.9708937507887727
28,173.18,1.935489579275384
29,176.80999999999997,1.8948021364831062
30,180.10000000000002,1.8578596815308752
31,181.970086,1.8369062786494164
32,182.18,1.8351178786349283
33,185.99999999999997,1.8025503871509945
34,191.20999999999998,1.758074243294634
35,193.87,1.7355385504812137
36,197.93,1.7008365451344145
37,202.07,1.665576968499994
38,204.88,1.6416397532722828
39,208.929613,1.6065828812512286
40,210.14000000000001,1.5986999151730863
41,216.03,1.5616697715863816
42,220.04,1.5361399478541766
43,223.1,1.5164064634101497
44,227.25,1.4900252686249504
45,229.88000000000002,1.4808127967008358
46,234.16,1.4683025802235696
47,239.88329199999998,1.4401288296828865
48,240.16,1.4391789556397407
49,245.76000000000002,1.407603056742275
50,252.06,1.3785150092326264
51,256.75,1.3466216305309988
52,259.71999999999997,1.3380455867050218
53,263.94,1.3190536339287173
54,268.84999999999997,1.2938256530918322
55,273.85,1.2680569072905234
56,275.42287,1.2599569541063984
57,278.94,1.2459380490598893
58,284.12,1.2256298078598777
59,290.07,1.200170406076081
60,296.15,1.1766191039339826
61,300.96000000000004,1.1568115906768288
62,307.97,1.129700652894574
63,316.227766,1.0979042516691855
64,318.06,1.0926305408198278
65,327.72,1.063818755375885
66,337.68,1.0337309497007643
67,347.94,1.002847713794465
68,356.87000000000006,0.9763997045797227
69,363.078055,0.9583684990349639
70,366.02000000000004,0.9519430836699758
71,375.40999999999997,0.9305745057543161
72,385.03999999999996,0.9074688752401731
73,394.92,0.8866083966026097
74,405.05,0.8643314598416264
75,413.53000000000003,0.8450449946952158
76,416.86938299999997,0.8373952839635304
77,422.19,0.8279087748763699
78,430.04,0.8141039930769176
79,441.07,0.7953648978224005
80,451.34000000000003,0.7774559965382758
81,459.74,0.7625397721286706
82,470.44,0.7441220704402451
83,478.630092,0.730266098933391
84,480.29,0.7280867559878584
85,490.35,0.7141013265507781
86,499.46999999999997,0.7024354945561286
87,506.42,0.6927497188913464
88,512.28,0.6863229758991704
89,519.41,0.6766591079581781
90,530.28,0.6619064182781518
91,540.14,0.6480237091479716
92,549.5408739999999,0.6353811615362447
93,550.18,0.6347129132911106
94,560.41,0.6251242116418548
95,569.52,0.6163105372797123
96,580.11,0.6053508250738847
97,589.53,0.5958715621769163
98,600.49,0.5841035830101672
99,610.25,0.572388592365325
100,620.1700000000001,0.5648584292508954
101,630.24,0.5544026000712274
102,630.957344,0.5537095646419534
103,640.4799999999999,0.5464095213482925
104,649.39,0.5389867199161306
105,658.43,0.5314244922677869
106,664.52,0.5269730726020332
107,675.3199999999999,0.518503175411534
108,684.71,0.5103105541042389
109,694.24,0.5032491453333633
110,705.52,0.4935337882677308
111,715.33,0.4865309645696941
112,724.43596,0.47929400408454426
113,725.28,0.4787891948067229
114,735.37,0.47282141537485484
115,745.6,0.46656477129279256
116,754.24,0.46135502145222373
117,764.73,0.4541202453055147
118,775.37,0.44882991389074023
119,784.35,0.4430984470425564
120,795.26,0.4369646589452642
121,804.47,0.4316089258860467
122,815.66,0.4250659204883657
123,825.1,0.41954060321811465
124,831.763771,0.4150259522580237
125,834.66,0.41347807453679475
126,844.3199999999999,0.40993438413294014
127,854.1,0.40552602183586994
128,865.9799999999999,0.40039517440752714
129,876.01,0.3960091741662578
130,884.11,0.39238510637420587
131,894.35,0.38789656881980933
132,904.7099999999999,0.3832677073721972
133,915.1800000000001,0.37950339818913736
134,925.78,0.3820569829550941
135,934.35,0.3864794297479477
136,945.1700000000001,0.3912253610430092
137,953.9100000000001,0.3946729371538074
138,954.992586,0.39447668691075977
139,964.96,0.3927609660493735
140,973.89,0.3629031180720874
141,985.1600000000001,0.3769333791130713
142,994.28,0.37356570990222593
143,1005.79,0.3797692062271349
144,1015.1,0.3752686857827302
145,1024.49,0.3509982037663006
146,1033.97,0.35737132748134287
147,1045.94,0.3727327997671084
148,1055.6200000000001,0.36693357955208816
149,1065.3899999999999,0.3528693450685401
150,1075.25,0.3548052063164638
151,1085.2,0.34064617329585944
152,1095.24,0.347821076006727
153,1096.4782,0.3470086076013277
154,1105.37,0.3418417319237667
155,1115.6000000000001,0.336255920626854
156,1125.92,0.32770352277894216
157,1133.73,0.33431530652000885
158,1144.22,0.32676619740909835
159,1154.8,0.32473667174718873
160,1165.49,0.32145017585628005
161,1176.27,0.3031075334143721
162,1184.43,0.3128011027904417
163,1195.39,0.2973514172465353
164,1203.67,0.286726324554606
165,1214.81,0.2756443359087012
166,1226.05,0.2863847488727971
167,1234.55,0.2955835457228697
168,1245.97,0.29484178558496715
169,1254.61,0.289653526689041
170,1258.92541,0.2862542120405276
171,1266.22,0.2812185377651869
172,1274.99,0.2882056844274079
173,1283.83,0.2876417851906957
174,1295.7099999999998,0.27438227834316853
175,1304.69,0.27181815730858977
176,1313.7299999999998,0.2783642483606398
177,1325.89,0.2730012479173795
178,1335.08,0.2654610291860011
179,1344.34,0.27014144455568945
180,1353.65,0.2661754999975683
181,1366.1799999999998,0.25814345408851813
182,1375.6499999999999,0.2571839017614067
183,1385.18,0.25488016152092396
184,1394.79,0.24531377739594612
185,1404.4499999999998,0.24350556334315884
186,1414.1899999999998,0.24408413540587637
187,1423.99,0.24209763955522254
188,1433.8600000000001,0.23971101780563547
189,1440.48,0.2397752813636632
190,1445.43977,0.23887616799409153
191,1447.13,0.23869318208197512
192,1453.8100000000002,0.23607845339110245
193,1463.8899999999999,0.2311919286599653
194,1474.03,0.22939226723399986
195,1484.25,0.2281183235482635
196,1494.54,0.22656394538522756
197,1504.9,0.22259810274489208
198,1511.8500000000001,0.21750725392729253
199,1515.33,0.2189067956272571
200,1525.84,0.2161648662498511
201,1536.41,0.20978677017761693
202,1543.4999999999998,0.20978369240541825
203,1554.2,0.2066452151610563
204,1564.98,0.20587436565692344
205,1575.82,0.20587208945796243
206,1586.75,0.20525367321675902
207,1594.07,0.2044110564477189
208,1605.12,0.20168946681685915
209,1616.25,0.19965629492622847
210,1623.7099999999998,0.19675274920258923
211,1634.96,0.19665338392230214
212,1646.3,0.19496949859977278
213,1653.89,0.19151480170400575
214,1659.58691,0.1916720868355945
215,1665.36,0.19212341225668259
216,1673.0500000000002,0.18768174002805593
217,1676.9,0.19099227286547954
218,1684.64,0.1910301501542221
219,1696.3200000000002,0.1875436314116527
220,1704.15,0.1853561798316597
221,1715.96,0.18219421383425005
222,1723.88,0.1809184733855215
223,1735.83,0.18125163803674543
224,1743.8400000000001,0.1795243487192813
225,1755.93,0.17967624401913884
226,1764.04,0.17630528373641302
227,1776.27,0.17513564968490414
228,1784.46,0.1746518626299689
229,1796.8300000000002,0.1748415992270936
230,1805.13,0.17356618911037047
231,1813.46,0.16999217270406883
232,1826.03,0.16904586737067012
233,1834.46,0.16691163999910677
234,1842.93,0.16358172424143871
235,1855.7,0.1620720669775165
236,1864.27,0.16173050025458677
237,1872.8700000000001,0.16256874724207843
238,1885.8500000000001,0.15874892595110665
239,1894.5600000000002,0.15664745987681042
240,1903.3,0.15705359751293577
241,1905.46072,0.15661067488978714
242,1916.4999999999998,0.15469641056339262
243,1925.3400000000001,0.15323026646741617
244,1934.23,0.153099721069992
245,1943.1599999999999,0.15347148063140956
246,1956.63,0.1504620680213641
247,1965.6599999999999,0.151895004979886
248,1974.73,0.1516769068972496
249,1983.8500000000001,0.14951853751316538
250,1993.0,0.1480087893482125
251,2006.82,0.14746776762803224
252,2016.0800000000002,0.14583472059989408
253,2025.3899999999999,0.1458008122703081
254,2034.7299999999998,0.14381165515985345
255,2044.13,0.14387612048766138
256,2053.56,0.14138681703460063
257,2063.04,0.140789842280092
258,2072.56,0.14189474248442518
259,2077.34,0.14222070006601256
260,2086.93,0.1434627064483188
261,2096.56,0.1408699077894667
262,2106.2400000000002,0.14009468782916676
263,2115.96,0.1401522128277086
264,2125.73,0.1388522665248026
265,2135.54,0.13643899518073832
266,2145.4,0.13727751253522621
267,2155.3,0.13694186484855583
268,2165.25,0.13460515586043764
269,2175.24,0.1334916518311612
270,2185.28,0.13401809650043686
271,2187.7616199999998,0.1339321211242495
272,2195.37,0.1338817114364274
273,2205.5,0.1326978353871704
274,2215.68,0.12938476900203352
275,2225.9100000000003,0.1294389522810168
276,2236.1800000000003,0.13243270129129617
277,2246.5099999999998,0.1306208338985198
278,2256.88,0.1270283022370395
279,2267.29,0.12600969630685532
280,2272.52,0.12670722317382332
281,2283.01,0.1295512287062314
282,2293.55,0.12577617390275964
283,2304.13,0.12723921483058398
284,2314.77,0.12409913935535254
285,2325.45,0.1187483496114172
286,2336.19,0.11974059346442603
287,2346.97,0.11670761304873102
288,2352.38,0.12105030070653153
289,2363.2400000000002,0.11612786175342873
290,2374.15,0.11707923246444611
291,2385.11,0.11322027283958362
292,2396.12,0.1142818328788413
293,2407.18,0.11319894258221913
294,2412.72,0.11369077136673209
295,2423.86,0.11806569253270213
296,2435.05,0.11710322336279236
297,2446.29,0.11948007385700272
298,2457.58,0.11962691401533326
299,2463.25,0.1164108339265586
300,2474.62,0.11387614554748136
301,2486.04,0.10873103683252427
302,2497.51,0.10858397778168735
303,2503.2700000000004,0.11435436308832894
304,2511.88643,0.10800055568755251
305,2514.83,0.1058739256054884
306,2520.62,0.10495801380934908
307,2526.4300000000003,0.1046154186736721
308,2532.26,0.10824603019845759
309,2543.94,0.10793934990849087
310,2555.69,0.11857303293014251
311,2567.4799999999996,0.11176147927271896
312,2573.4,0.1170141707695851
313,2585.2799999999997,0.11392082708424227
314,2597.2099999999996,0.11148183005005538
315,2603.2,0.10881540485853991
316,2615.22,0.10681469779643374
317,2627.29,0.11115647738548357
318,2633.35,0.12642469550558644
319,2645.5,0.13744913173648576
320,2657.7099999999996,0.15993660794877232
321,2663.84,0.13069094938049353
322,2676.13,0.1359446022346296
323,2682.3,0.1449490969872756
324,2694.68,0.1269143998134924
325,2707.12,0.13748996262109633
326,2713.36,0.12213048068536067
327,2725.8900000000003,0.11188074346504537
328,2732.17,0.1202802948502345
329,2744.78,0.10540768427176872
330,2757.4500000000003,0.1120281636746901
331,2763.81,0.12080652170172877
332,2776.56,0.12247982774649971
333,2782.96,0.10695874909446315
334,2795.8100000000004,0.09384284844154599
335,2802.2599999999998,0.09606385644066542
336,2815.19,0.1158846024295978
337,2828.1800000000003,0.13055922839991735
338,2834.7,0.12578952971065513
339,2847.79,0.10980122898328659
340,2854.35,0.09710863361494913
341,2867.5299999999997,0.12238933285966136
342,2874.14,0.14429306414247983
343,2884.0315,0.13948458700554756
344,2887.4100000000003,0.13788556140988104
345,2894.06,0.15638106956151387
346,2907.42,0.1885255155022378
347,2927.5699999999997,0.1715574020819974
348,2947.8700000000003,0.1612160227554028
349,2968.2999999999997,0.16380704430996798
350,2988.8799999999997,0.164464489958179
351,3009.5899999999997,0.16178383648754974
352,3030.46,0.1705326387168094
353,3051.4599999999996,0.17376741182722882
354,3072.61,0.18772385903129407
355,3086.79,0.1827916566839487
356,3108.19,0.2077343940440904
357,3129.74,0.1933987054978779
358,3151.4300000000003,0.19509449943906823
359,3173.28,0.20955455908014745
360,3187.92,0.1864229706199827
361,3210.02,0.19873502041713836
362,3232.27,0.17495734430793988
363,3247.1899999999996,0.22855582082258072
364,3269.7,0.2592425264757017
365,3292.3599999999997,0.25523230622246856
366,3307.56,0.23815014771191495
367,3311.31121,0.23582471262661125
368,3322.83,0.22878764557703685
369,3330.49,0.24258902006380934
370,3338.16,0.21545137610996407
371,3345.86,0.2443400768342654
372,3353.57,0.22918855911794894
373,3361.2999999999997,0.21893970452039693
374,3369.05,0.22330281304160932
375,3376.8199999999997,0.20116638468158612
376,3384.6,0.21065593788094517
377,3392.3999999999996,0.2435587541990686
378,3400.23,0.26056181519533866
379,3408.06,0.2388686761916087
380,3415.92,0.2287807818660254
381,3423.8,0.2681330506592065
382,3431.69,0.25878550101176984
383,3439.6,0.2493842144830976
384,3447.5299999999997,0.19031969107318977
385,3455.48,0.23636933078204636
386,3463.44,0.20033365205028514
387,3471.42,0.24587433643728834
388,3479.43,0.1946319655024382
389,3487.4500000000003,0.22220347612697022
390,3495.49,0.2092771498702667
391,3503.55,0.2630841867323276
392,3511.62,0.25480200515377066
393,3519.7200000000003,0.2495344682533604
394,3527.83,0.19084611291233236
395,3535.96,0.2455158206900687
396,3544.1099999999997,0.2654167915865695
397,3552.29,0.27117400716121687
398,3560.47,0.25212382273586426
399,3568.6800000000003,0.2028239829886583
400,3576.91,0.21721100636021676
401,3585.1499999999996,0.1677492112911574
402,3593.42,0.2222224609002447
403,3601.7,0.28336669206871423
404,3610.01,0.22497946791533033
405,3618.3300000000004,0.26442092532132866
406,3626.67,0.27222584584609144
407,3630.14,0.2827401469517181
408,3632.89,0.26798027578182576
409,3635.64,0.24492940461193338
410,3638.38,0.25838885188265875
411,3641.13,0.2526954807127664
412,3643.88,0.265089409542874
413,3646.62,0.2632945568135994
414,3649.37,0.24101398564370707
415,3652.12,0.2549662144738147
416,3654.87,0.2846567433039223
417,3657.61,0.3119897905746477
418,3660.3599999999997,0.3175293194047554
419,3663.11,0.3224352482348629
420,3665.85,0.3275963955055884
421,3668.6000000000004,0.329512224335696
422,3671.35,0.2944529531658036
423,3674.0899999999997,0.32138570043652903
424,3676.84,0.28632882926663666
425,3679.5899999999997,0.29681965809674427
426,3682.33,0.2832903053674697
427,3685.08,0.26198273419757734
428,3687.8300000000004,0.2821329630276849
429,3690.57,0.28693921029841035
430,3693.3199999999997,0.305761639128518
431,3696.07,0.30635996795862563
432,3698.8199999999997,0.3140025967887332
433,3701.56,0.31173924405945863
434,3704.31,0.28889607288956626
435,3707.06,0.2791686017196739
436,3709.7999999999997,0.2804982489903993
437,3712.55,0.28900497782050694
438,3715.3,0.27876070665061453
439,3718.0400000000004,0.29408275392134
440,3720.79,0.2737962827514476
441,3723.54,0.2705633115815552
442,3726.28,0.2741658588522806
443,3729.0299999999997,0.26592328768238827
444,3731.78,0.25126991651249586
445,3734.5299999999997,0.23622894534260347
446,3737.27,0.23452009261332887
447,3740.02,0.2306968214434365
448,3742.7700000000004,0.2492431502735441
449,3745.51,0.22673839754426955
450,3748.2599999999998,0.22663742637437717
451,3751.01,0.2516934552044848
452,3753.75,0.2468452024752102
453,3756.5,0.2664102313053178
454,3759.25,0.2666309601354254
455,3761.9900000000002,0.2678035074061509
456,3764.74,0.2725068362362585
457,3767.49,0.27328766506636615
458,3770.23,0.2851382123370915
459,3772.98,0.28585064116719916
460,3775.73,0.3068243699973068
461,3778.48,0.3160127988274144
462,3781.2200000000003,0.3122289460981398
463,3783.97,0.31455037492824744
464,3786.7200000000003,0.318138703758355
465,3789.46,0.2916305510290805
466,3792.2099999999996,0.2758519798591881
467,3794.96,0.2666086086892957
468,3797.7,0.26234065596002115
469,3800.4500000000003,0.2689039847901287
470,3801.8939600000003,0.27109419845613725
471,3803.2,0.27308348794344695
472,3805.94,0.2723347942886241
473,3808.69,0.28333724554746986
474,3811.44,0.2697198968063156
475,3814.18,0.26740020315149277
476,3816.93,0.2657126544103385
477,3819.68,0.2446227056691842
478,3822.43,0.22907205692802993
479,3825.17,0.2257234632732071
480,3827.92,0.21280551453205285
481,3830.67,0.19944676579089854
482,3833.41,0.19332337213607573
483,3836.1600000000003,0.19541152339492146
484,3838.91,0.20562097465376716
485,3841.6499999999996,0.2188036809989444
486,3844.4,0.23765133225779012
487,3847.1499999999996,0.24507078351663583
488,3849.8900000000003,0.24274848986181302
489,3852.64,0.23841304112065873
490,3855.3900000000003,0.23710819237950445
491,3858.13,0.23518359872468164
492,3860.8799999999997,0.23096474998352734
493,3863.63,0.24244110124237306
494,3866.3799999999997,0.2582047525012188
495,3869.12,0.248088058846396
496,3871.87,0.2487774101052417
497,3874.62,0.24628156136408744
498,3877.36,0.2500584677092646
499,3880.11,0.24759551896811033
500,3882.86,0.254318170226956
501,3885.6000000000004,0.2576440765721333
502,3888.35,0.26164022783097896
503,3891.1,0.2813061790898247
504,3893.84,0.30216708543500187
505,3896.5899999999997,0.3060516366938476
506,3899.34,0.3197171879526933
507,3902.0899999999997,0.32522343921153907
508,3904.8300000000004,0.3199112455567162
509,3907.58,0.32597499681556197
510,3910.3300000000004,0.3372585480744077
511,3913.07,0.3472262544195849
512,3915.8199999999997,0.3419885056784306
513,3918.57,0.3191399569372763
514,3921.31,0.30655536328245353
515,3924.06,0.2810005145412992
516,3926.81,0.2571106658001449
517,3929.55,0.2267324721453221
518,3932.3,0.19608202340416783
519,3935.0499999999997,0.18805217466301355
520,3937.79,0.20741518100819076
521,3940.54,0.22957463226703648
522,3943.29,0.2512171835258822
523,3946.04,0.2696111347847279
524,3948.78,0.3069907411299051
525,3951.5299999999997,0.3244318923887508
526,3954.28,0.3306476436475966
527,3957.02,0.3331654499927737
528,3959.7700000000004,0.30459010125161945
529,3962.52,0.27133215251046516
530,3965.2599999999998,0.24057655885564236
531,3968.01,0.22100441011448807
532,3970.7599999999998,0.2226085613733338
533,3973.5,0.24776426771851098
534,3976.25,0.2868099189773567
535,3978.9999999999995,0.33231697023620244
536,3981.74,0.3677508765813796
537,3984.49,0.3859267278402253
538,3987.2400000000002,0.40027627909907104
539,3989.99,0.4137643303579168
540,3992.73,0.424239036703094
541,3995.48,0.4292129879619397
542,3998.23,0.4344149392207854
543,4000.97,0.4390362455659626
544,4003.7200000000003,0.44403559682480837
545,4006.47,0.45395064808365404
546,4009.2100000000005,0.4447113544288312
547,4011.96,0.4481396056876769
548,4014.71,0.45851075694652266
549,4017.4500000000003,0.4701512632916999
550,4020.2,0.4801930145505456
551,4022.9500000000003,0.4748537658093913
552,4025.69,0.47047967215456854
553,4028.4399999999996,0.4603513234134142
554,4031.19,0.43998577467225997
555,4033.9399999999996,0.43631902593110566
556,4036.6800000000003,0.45208973227628285
557,4039.43,0.4563794835351285
558,4042.1800000000003,0.46023843479397425
559,4044.92,0.4356434411391515
560,4047.67,0.4581014923979972
561,4050.42,0.45139404365684294
562,4053.1600000000003,0.43782155000202005
563,4055.91,0.45280470126086586
564,4058.66,0.44325915251971154
565,4061.4,0.4293065588648887
566,4064.15,0.43600361012373445
567,4066.9,0.4390771613825802
568,4069.65,0.43429541264142585
569,4072.3900000000003,0.4329366189866031
570,4075.14,0.4368462702454488
571,4077.8900000000003,0.44458222150429455
572,4080.63,0.45548772784947167
573,4083.3799999999997,0.4660869791083175
574,4086.13,0.4857324303671632
575,4088.87,0.4852606367123403
576,4091.6200000000003,0.48688968797118604
577,4094.37,0.46563723923003175
578,4097.11,0.462555445575209
579,4099.860000000001,0.4301283968340547
580,4102.61,0.4296037480929004
581,4105.349999999999,0.4332113544380776
582,4108.1,0.44368400569692334
583,4110.849999999999,0.45428325695576904
584,4113.59,0.45763776330094624
585,4116.34,0.4559473145597919
586,4119.09,0.46307516581863767
