,lambda (Angstroms),Total Flux (erg/s/cm^2/Angstrom)
0,100.00999999999999,48.37398132689537
1,102.11,48.222058804157875
2,104.01,48.08460509311241
3,104.712855,48.03375770991602
4,105.94,47.56742695148094
5,107.91,46.818801814185086
6,109.92,46.05497616651205
7,114.03999999999999,44.48932359517895
8,118.05,42.96547242753143
9,120.22644299999999,42.13839631712105
10,121.08000000000001,41.86645237069073
11,125.03999999999999,40.60479318621263
12,127.08000000000001,39.9548475458279
13,127.96,39.67447883840743
14,130.94,38.725048442596524
15,132.15,38.339541470761105
16,133.98999999999998,37.75331599202714
17,137.10999999999999,36.759281486751725
18,138.038426,36.46348421755982
19,139.98,36.021328318574845
20,142.91,35.35407756724194
21,146.91,34.44315511318527
22,151.03,33.50490490831522
23,154.9,32.623587383192906
24,158.489319,31.80618953520763
25,158.88,31.73892656563342
26,161.82999999999998,31.231029445658184
27,165.98000000000002,30.516530131997413
28,169.85,29.85023802954604
29,173.01,29.30618557804309
30,177.04000000000002,28.61234656797608
31,179.91,28.118223039916906
32,181.970086,27.76354117643786
33,182.0,27.7596120296079
34,185.81,27.259175855889374
35,191.01,26.576165894386754
36,194.11999999999998,26.167673459684373
37,198.17999999999998,25.634400416248155
38,201.87,25.149726284762878
39,205.14999999999998,24.7189047978493
40,208.929613,24.22246011395539
41,209.93,24.12367260972665
42,215.81,23.5430274741579
43,219.82000000000002,23.147043290798628
44,222.88,22.844870748644293
45,227.02,22.43604937582277
46,230.18,22.12400719195254
47,233.92,21.75469705349757
48,239.88329199999998,21.165836503571377
49,239.92,21.16304319671082
50,246.07,20.695048263561574
51,251.80999999999997,20.258258637842953
52,257.08000000000004,19.857222938636486
53,260.05,19.631224253109583
54,264.28,19.30934030889006
55,269.19,18.935708724472924
56,274.2,18.554467561133194
57,275.42287,18.46141203848649
58,279.3,18.234987582552527
59,283.83,17.970436676295616
60,289.78000000000003,17.622953123331648
61,295.85,17.26846766778512
62,301.34999999999997,16.94726691750079
63,307.66,16.57876684191912
64,316.227766,16.078414201433212
65,317.73,16.012889456070663
66,328.14000000000004,15.558821754204258
67,338.12,15.123509838929454
68,348.39000000000004,14.675547996902171
69,357.33,14.28560076424659
70,363.078055,14.03488261771536
71,365.65,13.950870871418173
72,375.03000000000003,13.644471698053326
73,384.65,13.330226252959534
74,395.43,12.97810348069247
75,404.64,12.677262244831466
76,414.06,12.369555503195128
77,416.86938299999997,12.277785946625231
78,421.76,12.155789530131484
79,429.59999999999997,11.960221664937281
80,440.61999999999995,11.685333006763031
81,450.88000000000005,11.429395908138726
82,460.33,11.193664199621606
83,469.96000000000004,10.953445134358445
84,478.630092,10.737172578385533
85,479.81,10.714536809627072
86,489.85,10.521916076864374
87,500.11,10.325085900849505
88,505.90000000000003,10.214007793385559
89,511.76,10.101656200214105
90,520.0699999999999,9.942236741479842
91,529.74,9.756725838813974
92,539.59,9.567743060414514
93,549.5408739999999,9.376894421407995
94,549.62,9.37573687941138
95,559.84,9.226219425985802
96,570.25,9.07391739108734
97,579.52,8.938239137826178
98,590.29,8.780704800136991
99,599.88,8.640373583795183
100,609.63,8.497726300213051
101,619.53,8.352982727368119
102,629.6,8.205672745505343
103,630.957344,8.18581104793092
104,639.8299999999999,8.082894300777347
105,650.23,7.962359863974092
106,657.76,7.875079044873274
107,665.37,7.7868622019201235
108,674.63,7.679458967012611
109,685.5899999999999,7.552303228243028
110,695.1300000000001,7.441996572852348
111,704.8,7.329754902701632
112,716.2499999999999,7.197251450836511
113,724.43596,7.102365479582157
114,726.21,7.087106553213026
115,734.62,7.014794457574511
116,744.8399999999999,6.9270999454133175
117,755.21,6.838002658976762
118,765.71,6.747751255701564
119,774.58,6.67170839301861
120,785.3499999999999,6.579258665847764
121,794.45,6.501098389142591
122,805.5,6.4061632198577385
123,814.83,6.326016065130347
124,824.26,6.245295072219383
125,831.763771,6.180119315621991
126,835.7299999999999,6.154295782222085
127,845.4000000000001,6.093250869791903
128,855.1899999999999,6.030446923442217
129,865.1,5.967151285173023
130,875.11,5.9032420978042435
131,885.2500000000001,5.838641737105996
132,895.5,5.773131119898204
133,905.87,5.706435897770905
134,914.2500000000001,5.657241860225411
135,924.8399999999999,5.669637522079019
136,935.55,5.71771202701312
137,944.2,5.864240532398739
138,954.992586,5.980631772788581
139,955.14,5.982242039044266
140,963.9699999999999,5.996418453854139
141,975.13,5.354387850986436
142,984.1600000000001,5.74762336925746
143,995.5500000000001,5.733501112370082
144,1004.77,6.003273679929203
145,1014.06,5.929079846699725
146,1025.8,5.332218985869364
147,1035.3,5.506192850274098
148,1044.8799999999999,6.094660428063292
149,1054.54,6.0150781192369465
150,1064.3,5.670768452141178
151,1074.1499999999999,5.826876912602927
152,1084.0900000000001,5.493750900622194
153,1094.12,5.786707216198982
154,1096.4782,5.7613867062167
155,1104.24,5.6869074971903055
156,1114.46,5.5825902222441535
157,1124.77,5.404225819632137
158,1135.1799999999998,5.692161719613603
159,1145.68,5.504332491929201
160,1156.28,5.554090566838282
161,1164.3,5.563499634835528
162,1175.07,5.043756024153529
163,1185.95,5.4249991463243585
164,1194.1699999999998,4.915080219508571
165,1205.22,4.572704556088319
166,1216.37,4.324819195261551
167,1224.8,4.786031103892074
168,1236.13,5.274054187733571
169,1244.7,5.3927389199949705
170,1256.22,5.2518485787640845
171,1258.92541,5.164300068659434
172,1264.9299999999998,4.978879049442132
173,1273.69,5.394612477769705
174,1285.48,5.453950653566749
175,1294.3899999999999,4.9783506337492485
176,1306.3700000000001,4.921421308562527
177,1315.4199999999998,5.310581603809623
178,1324.54,5.195563556589015
179,1333.7199999999998,4.933665930110377
180,1346.06,5.237868129375475
181,1355.3899999999999,5.145274054751762
182,1364.79,4.896785637660345
183,1374.25,4.964634641310899
184,1383.77,4.951839065703423
185,1396.5800000000002,4.6707063941139495
186,1406.26,4.7048746071517265
187,1416.01,4.7002604777218
188,1425.82,4.726861769033844
189,1435.7,4.676472717878185
190,1442.33,4.759238709865835
191,1445.43977,4.780431700130671
192,1445.66,4.782177061608088
193,1455.68,4.700324584885026
194,1465.7700000000002,4.528462480081062
195,1475.93,4.503642747196201
196,1486.16,4.516220386230438
197,1496.46,4.525612397183777
198,1503.37,4.409205539483541
199,1510.31,4.201787698320063
200,1517.28,4.297401873693341
201,1524.28,4.227514065603376
202,1534.8500000000001,3.9949612253875304
203,1545.48,4.1185274182452
204,1556.2,4.00985466071314
205,1563.38,4.015459951843719
206,1574.22,4.084803260458688
207,1585.1299999999999,4.13611194099276
208,1596.1200000000001,4.143967332291515
209,1603.48,4.099222722642639
210,1614.6,4.08174951893401
211,1625.79,3.9600256871444817
212,1633.3,4.047373160179392
213,1644.62,4.043919733382478
214,1656.02,3.8818350173502507
215,1659.58691,3.9428081121179406
216,1663.66,4.01556548328637
217,1671.3400000000001,3.813076470860275
218,1675.19,3.998550991974799
219,1686.8,4.05347771928379
220,1694.59,3.9329950074609683
221,1706.3400000000001,3.8406851173559415
222,1714.2099999999998,3.7410546241536817
223,1726.1000000000001,3.7095971166346375
224,1734.06,3.798280869380509
225,1746.0800000000002,3.738396717119877
226,1754.1399999999999,3.8315337431414513
227,1766.3000000000002,3.6665269734668025
228,1774.4499999999998,3.690686245436508
229,1786.75,3.695371858347842
230,1795.0,3.7901614035932485
231,1803.29,3.7660190581489363
232,1815.79,3.6013802176116743
233,1824.1699999999998,3.625546118115494
234,1836.8100000000002,3.534212660164214
235,1845.29,3.3941408339437356
236,1853.81,3.3801591170335383
237,1866.66,3.398900232961232
238,1875.27,3.508558761999166
239,1883.93,3.3641994276749507
240,1896.99,3.2817321174816194
241,1905.46072,3.347661528805266
242,1905.75,3.350051968535015
243,1914.5400000000002,3.2807809427870307
244,1923.38,3.2431620636502645
245,1936.71,3.2632965502008195
246,1945.6499999999999,3.3087409642864882
247,1954.6299999999999,3.2023836956611307
248,1968.1799999999998,3.3137654273010426
249,1977.2600000000002,3.342523451898119
250,1981.82,3.2520466228411444
251,1995.5600000000002,3.188370111603682
252,2004.77,3.2174149173899242
253,2014.02,3.1502200404651406
254,2023.3200000000002,3.207048310151574
255,2032.66,3.1117918971269813
256,2046.75,3.142947412168041
257,2056.2,3.0700831216881266
258,2065.69,3.0580091484971863
259,2075.2200000000003,3.1383204925952195
260,2080.0099999999998,3.0576977379498453
261,2084.8,3.103911983304471
262,2094.42,3.0122817913026956
263,2104.09,3.005723745912138
264,2113.8,3.005090017810554
265,2123.56,3.010516436320188
266,2133.36,2.895419172118795
267,2143.21,2.91377405452862
268,2153.1,2.947676254227419
269,2163.04,2.890518600537435
270,2173.0299999999997,2.8629280934586685
271,2183.06,2.824180903668876
272,2187.7616199999998,2.8432470361189943
273,2193.13,2.867304000942611
274,2203.25,2.820673470258731
275,2213.4300000000003,2.7479054759541945
276,2223.64,2.6963347498393304
277,2233.91,2.7616685601038116
278,2244.2200000000003,2.6958457279545214
279,2254.58,2.636724342788019
280,2264.98,2.6595463152077463
281,2275.44,2.6832638240068185
282,2285.94,2.7079206903921196
283,2296.49,2.636042003760209
284,2307.09,2.6307317641110846
285,2312.41,2.573279323079637
286,2323.08,2.331092009206415
287,2333.81,2.4848976317125375
288,2344.58,2.4468738118048896
289,2355.4,2.521129638880029
290,2366.27,2.4280070129379556
291,2377.19,2.4518834339786686
292,2382.67,2.3776740232921405
293,2393.67,2.4346657595053136
294,2404.72,2.3850501427012745
295,2415.8199999999997,2.4015577728800217
296,2426.97,2.4548444500415565
297,2432.57,2.4074025121137166
298,2443.7999999999997,2.461948904447711
299,2455.07,2.4385466543679346
300,2466.41,2.4226080300640604
301,2477.79,2.3753897633464156
302,2483.5,2.402347808780708
303,2494.97,2.3319203466320806
304,2506.48,2.4351482420696824
305,2511.88643,2.321926159444761
306,2512.26,2.314187667758724
307,2518.05,2.3414606966940994
308,2523.86,2.294245347318371
309,2535.51,2.3017097311002575
310,2547.2099999999996,2.279404819104385
311,2553.08,2.3468907347953447
312,2564.8700000000003,2.3165171703995027
313,2576.71,2.3716874102259013
314,2582.65,2.3559887518279963
315,2594.5699999999997,2.337258878409979
316,2606.54,2.294356809214201
317,2612.55,2.279215676727432
318,2624.61,2.3189398551316858
319,2636.73,2.3479011986026275
320,2642.8,2.4356112311825457
321,2655.0,2.454688461409072
322,2667.26,2.334536856702285
323,2673.4,2.3842584151933397
324,2685.74,2.3779086972421366
325,2691.94,2.3216474207998794
326,2704.36,2.34675858960426
327,2716.8399999999997,2.285512923475329
328,2723.11,2.279690172944207
329,2735.68,2.3278837544153075
330,2741.98,2.1794090864175297
331,2754.64,2.196323915488662
332,2767.35,2.2287295487820336
333,2773.73,2.2738137675398398
334,2786.54,2.2111330092776917
335,2792.96,2.0119322714132895
336,2805.85,2.0680453999067248
337,2812.3199999999997,2.2458702662645624
338,2825.3,2.2924166423580297
339,2831.81,2.2435515520936593
340,2844.89,2.2081605366316066
341,2858.02,2.163426325391793
342,2864.61,2.263962121883006
343,2877.83,2.259890158243225
344,2884.0315,2.2515936548567446
345,2884.4599999999996,2.2511039691881116
346,2897.7799999999997,2.24409643600153
347,2911.15,2.3362224586213047
348,2931.33,2.2835663820668595
349,2951.65,2.2601726617702123
350,2972.11,2.273631297731364
351,2992.71,2.2700722899503147
352,3013.46,2.2781229495883353
353,3027.37,2.2767367749167624
354,3048.3500000000004,2.2702325912640235
355,3069.48,2.269617075030355
356,3090.76,2.271983226215756
357,3112.18,2.2654107336589564
358,3126.55,2.2460458724058645
359,3148.22,2.245329158880848
360,3170.04,2.2416251127749014
361,3192.01,2.173027734088025
362,3206.75,2.212353385801973
363,3228.97,2.14991778614688
364,3251.3599999999997,2.2197534762333992
365,3266.37,2.2585905293016735
366,3289.0099999999998,2.2423609984199766
367,3311.31121,2.232564553896357
368,3311.81,2.23241366330133
369,3319.44,2.2374695988767606
370,3327.0899999999997,2.2457408920814843
371,3334.7599999999998,2.286555542915502
372,3342.4500000000003,2.208612551378812
373,3350.15,2.27104523865677
374,3357.8799999999997,2.224867962378667
375,3365.62,2.140829364915211
376,3373.38,2.115915125081049
377,3381.15,2.189749564061533
378,3388.95,2.2583820394859573
379,3396.7599999999998,2.1996151937250286
380,3404.59,2.2429057055933925
381,3412.44,2.1814255750910503
382,3420.3,2.230702123403355
383,3428.19,2.2229967081595996
384,3436.09,2.2281739717304907
385,3444.01,2.106436592930675
386,3451.95,2.245145571760154
387,3459.91,2.189190908218925
388,3467.8900000000003,2.1811906023069896
389,3475.88,2.2043609752097013
390,3483.89,2.1830497057417064
391,3491.92,2.2095687939030046
392,3499.97,2.1137862396935967
393,3508.04,2.1763430431134814
394,3516.13,2.11832220416266
395,3524.23,2.1655330440264855
396,3532.36,2.2015979203342506
397,3540.4999999999995,2.228822475456663
398,3548.6600000000003,2.2600473882083683
399,3556.84,2.214422658589367
400,3565.04,2.228701286599659
401,3573.2599999999998,2.1114862722392447
402,3581.5000000000005,2.1000226155081236
403,3589.54,1.9125853824840688
404,3592.22,2.112609304809384
405,3594.8999999999996,2.063971227134699
406,3597.5699999999997,2.012229470645367
407,3600.25,2.0560013929706824
408,3602.92,2.0835866364813507
409,3605.6,2.212812558806666
410,3608.27,2.140452802317334
411,3610.95,2.0584937246426493
412,3613.6200000000003,1.9727519681533172
413,3616.3,2.031014890478632
414,3618.9700000000003,2.0645451339893004
415,3621.65,2.2303050563146156
416,3624.33,2.2528449786399305
417,3627.0,2.274734222150599
418,3629.6800000000003,2.308916144475914
419,3632.35,2.2724943879865824
420,3635.03,2.2081883103118973
421,3637.7,2.2765645538225656
422,3640.3799999999997,2.300479476147881
423,3643.0499999999997,1.785592719658549
424,3645.73,1.9022496419838637
425,3648.4,2.0899798854945324
426,3651.08,1.9970408078198472
427,3653.7599999999998,2.1900757301451623
428,3656.43,2.298644973655831
429,3659.1099999999997,2.130087895981146
430,3661.78,2.319524139491814
431,3664.46,2.197322061817129
432,3667.13,2.1917193053277972
433,3669.81,2.3436332276531124
434,3672.48,2.2021314711637805
435,3675.1600000000003,2.018571393489095
436,3677.8300000000004,2.062071636999764
437,3680.51,2.198600559325079
438,3683.19,1.980974481650394
439,3685.86,2.097342725161062
440,3688.54,2.1887266474863774
441,3691.2099999999996,2.255363890997046
442,3693.8900000000003,2.0862768133223604
443,3696.56,2.1291480568330288
444,3699.24,2.1230219791583442
445,3701.91,2.282747222669012
446,3704.5899999999997,2.1504761449943275
447,3707.26,2.0495643885049954
448,3709.94,2.1017163108303105
449,3712.62,2.3953092331556256
450,3715.29,2.838426476666294
451,3717.97,3.746229398991609
452,3720.64,5.582295642502277
453,3723.32,8.233959564827591
454,3725.9900000000002,10.87805580833826
455,3728.67,11.669575730663576
456,3731.34,9.804782974174245
457,3734.02,6.708627896499559
458,3736.6899999999996,4.072240140010227
459,3739.3700000000003,2.908265062335542
460,3742.05,2.3440659846608574
461,3744.7200000000003,2.1324622281715255
462,3747.4,2.1059491504968406
463,3750.0699999999997,2.0176903940075093
464,3752.7500000000005,2.071084316332824
465,3755.42,2.1762245598434924
466,3758.1,2.276021482168807
467,3760.77,2.323513725679476
468,3763.45,2.209144648004791
469,3766.12,2.328825891515459
470,3768.7999999999997,2.314616813840774
471,3771.48,2.272618736166089
472,3774.15,2.3788529796767577
473,3776.83,2.3246499020020726
474,3779.5,2.375918145512741
475,3782.18,2.4694210678380557
476,3784.8500000000004,2.4786413113487242
477,3787.53,2.404879233674039
478,3790.2000000000003,2.5020384771847075
479,3792.88,2.3049303995100225
480,3795.5499999999997,2.152679643020691
481,3798.23,2.1471655653460058
482,3800.9100000000003,2.241464487671321
483,3801.8939600000003,2.282585629351012
484,3803.58,2.3532101377521157
485,3806.26,2.45223820911775
486,3808.93,2.4342246384260497
487,3811.61,2.383574709791684
488,3814.2799999999997,2.382122139099984
489,3816.9599999999996,2.352769210465618
490,3819.63,2.412326639773918
491,3822.31,2.2696307111395524
492,3824.98,2.315410140447852
493,3827.66,2.096484211813486
494,3830.3399999999997,2.0242392831791207
495,3833.01,2.02336471248742
496,3835.69,2.0951177838530546
497,3838.36,1.9371462131613544
498,3841.04,1.9537682845269884
499,3843.71,2.2519847138352884
500,3846.39,2.3669287852009226
501,3849.0600000000004,2.3689532145092222
502,3851.7400000000002,2.4789442858748565
503,3854.41,2.4682177151831564
504,3857.09,2.5689347865487906
505,3859.77,2.658058857914425
506,3862.4399999999996,2.9239002872227244
507,3865.1200000000003,3.346726358588359
508,3867.79,3.608926787896659
509,3870.47,3.562911859262293
510,3873.14,3.261708288570593
511,3875.8199999999997,2.969762359936227
512,3878.49,2.665410789244527
513,3881.17,2.559943860610161
514,3883.84,2.4660812899184608
515,3886.52,2.536657361284095
516,3889.2,2.5199564326497295
517,3891.87,2.519166861958029
518,3894.55,2.385214933323663
519,3897.2200000000003,2.3778003626319633
520,3899.9,2.4916004339975975
521,3902.57,2.4876638633058974
522,3905.25,2.4341979346715314
523,3907.9199999999996,2.4716633639798316
524,3910.6000000000004,2.563934435345465
525,3913.27,2.7456468646537653
526,3915.9500000000003,2.6989709360193994
527,3918.63,2.6577600073850336
528,3921.2999999999997,2.5289534366933335
529,3923.9800000000005,2.522024508058968
530,3926.6499999999996,2.468735937367268
531,3929.33,2.247392008732902
532,3932.0,2.126699438041202
533,3934.68,2.1303375094068357
534,3937.35,2.1363359387151357
535,3940.0299999999997,2.19586701008077
536,3942.7000000000003,2.2938454393890697
537,3945.38,2.433017510754704
538,3948.06,2.472127582120338
539,3950.73,2.438878011428638
540,3953.41,2.4781540827942723
541,3956.08,2.573914512102572
542,3958.76,2.528729583468206
543,3961.4300000000003,2.584247012776506
544,3964.11,2.5776480841421403
545,3966.7799999999997,2.61594251345044
546,3969.46,2.5293545848160743
547,3972.1299999999997,2.523431014124374
548,3974.81,2.3982560854900083
549,3977.4900000000002,2.3873521568556426
550,3980.16,2.4642325861639423
551,3982.84,2.5558406575295765
552,3985.5099999999998,2.6097020868378764
553,3988.1899999999996,2.780803158203511
554,3990.86,2.7391075875118105
555,3993.54,2.7750706588774445
556,3996.21,2.7595420881857446
557,3998.89,2.7337331595513787
558,4001.56,2.8776865888596785
559,4004.2400000000002,2.8412776602253125
560,4006.92,2.750052731590947
561,4009.59,2.7883471608992467
562,4012.27,2.802615232264881
563,4014.94,3.009831661573181
564,4017.62,2.8237117329388153
565,4020.2900000000004,2.8691281622471148
566,4022.9700000000003,2.7976102336127493
567,4025.64,2.925830662921049
568,4028.32,2.810591734286683
569,4030.99,2.9648131635949833
570,4033.6699999999996,2.8200962349606176
571,4036.3500000000004,2.8042233063262514
572,4039.02,2.8683527356345513
573,4041.7,2.9462148070001857
574,4044.37,2.975069236308485
575,4047.0499999999997,2.74738230767412
576,4049.72,2.8285697369824194
577,4052.4,2.8913608083480535
578,4055.07,2.8026332376563534
579,4057.75,2.6885543090219874
580,4060.42,2.795576738330287
581,4063.1,2.8769158096959218
582,4065.7799999999997,3.017046881061556
583,4068.4500000000003,2.914574310369855
584,4071.13,3.02208038173549
585,4073.8,2.9896598110437895
586,4076.48,2.838648882409424
587,4079.15,2.780724311717724
588,4081.8300000000004,2.846166383083358
589,4084.5,2.811260812391658
590,4087.1800000000003,2.841758883757292
591,4089.85,2.772241313065592
592,4092.5299999999997,2.8171473844312263
593,4095.21,2.6348374557968604
594,4097.88,2.8130718851051597
595,4100.5599999999995,2.9700949564707946
596,4103.23,2.9651653857790943
597,4105.91,2.7869954571447284
598,4108.58,2.6608388864530284
599,4111.26,2.5924689578186624
600,4113.93,2.700649387126962
