,lambda (Angstroms),Total Flux (erg/s/cm^2/Angstrom)
0,102.01,91.32220609969735
1,103.91,91.06193743673637
2,104.712855,90.95195954799526
3,106.08,89.96822429598438
4,108.06,88.54350654625985
5,110.06,87.10439780222198
6,113.93,84.319722359471
7,117.94000000000001,81.43430941246476
8,120.22644299999999,79.78909235344513
9,120.96000000000001,79.34655980866847
10,124.92,76.95760930982482
11,126.95,75.73297050174695
12,128.13,75.02111163380276
13,131.10999999999999,73.22336626511611
14,132.02,72.67439220159395
15,133.86,71.56437534400882
16,136.98,69.68217573110147
17,138.038426,69.04365942315704
18,139.85,68.26249611416559
19,143.1,66.8611194589442
20,147.11,65.1321111415799
21,150.89,63.502176060544386
22,155.11,61.68251680677033
23,158.489319,60.22536613068432
24,159.09,60.02955033596716
25,162.05,59.064622349538645
26,165.82,57.83565635140536
27,170.07999999999998,56.44694680651366
28,172.84,55.547231940564075
29,176.87,54.23351244251816
30,180.16,53.16101945285438
31,181.82,52.619895581489054
32,181.970086,52.57097011421753
33,186.06,51.55385161710673
34,190.82999999999998,50.36761784337811
35,193.93,49.596698106570635
36,197.99,48.58703461222405
37,202.14,47.55500142047695
38,204.95,46.85621334571565
39,208.929613,45.86651121784798
40,210.21,45.627120674946816
41,216.1,44.52603228501436
42,220.10999999999999,43.77636990812996
43,223.18,43.202413018769576
44,226.79999999999998,42.52569287847493
45,229.95999999999998,41.93592480867077
46,234.23,41.13970740772652
47,239.88329199999998,40.08403492262249
48,240.24,40.03272467493687
49,245.84,39.225743907647576
50,252.14000000000001,38.31867976444711
51,256.83,37.64199959984233
52,259.81,37.21367819882052
53,264.03,36.60617019275609
54,268.94,35.89893143057921
55,273.94,35.178673878213765
56,275.42287,34.96507025174835
57,279.03000000000003,34.56633785196664
58,284.21999999999997,33.992635937817084
59,290.17,33.334506496323854
60,296.24,32.66366007267109
61,301.06,32.13075648209674
62,308.07,31.35594057136102
63,316.227766,30.45425453883026
64,318.15999999999997,30.29476266175039
65,327.83,29.496405890130745
66,337.79,28.673984219806897
67,348.05999999999995,27.825912231902695
68,356.98,27.089371433138762
69,363.078055,26.58585968836092
70,366.14,26.396541846482233
71,374.67,25.86902773461501
72,385.17,25.219322050804248
73,395.05,24.60864443658993
74,405.18,23.98224720157059
75,413.67,23.457102369032174
76,416.86938299999997,23.259176228749233
77,422.33,23.001187761446847
78,430.18,22.630359092073853
79,441.21,22.10945474765549
80,451.49,21.623761642540277
81,459.88,21.227371709669015
82,469.51,20.772436520616537
83,478.630092,20.341662446304454
84,480.45,20.27555181399706
85,490.51,19.909847147557933
86,499.63,19.57860715400675
87,506.58000000000004,19.3259398892501
88,512.45,19.11311111504556
89,519.5799999999999,18.854033331863555
90,530.46,18.45859124482004
91,540.3199999999999,18.100027692186863
92,549.5408739999999,17.764998521729623
93,550.36,17.742293679843744
94,560.59,17.458964611850888
95,569.7,17.20665109638511
96,580.3,16.912656942110985
97,589.7199999999999,16.651699882463607
98,600.6899999999999,16.347353921908216
99,610.45,16.075869771029396
100,620.37,15.802207633218142
101,630.45,15.522704230474446
102,630.957344,15.508645286207214
103,640.69,15.29484772064781
104,649.6,15.099099316848832
105,658.6400000000001,14.900393854273887
106,664.74,14.76655651709389
107,675.5400000000001,14.52920947339816
108,684.93,14.322518235657153
109,694.4599999999999,14.113828253849714
110,705.75,13.86528474092149
111,715.5699999999999,13.650155605690742
112,724.43596,13.45537472905607
113,725.5200000000001,13.437696413897582
114,735.61,13.273176679318777
115,745.85,13.106450162174378
116,754.48,12.965849170567333
117,764.98,12.794085600975908
118,775.62,12.62148829698993
119,784.6,12.4751007393965
120,795.52,12.297275336621423
121,804.73,12.147283631094085
122,815.92,11.964887487700942
123,825.37,11.811289236068658
124,831.763771,11.705890254248976
125,834.93,11.666735094542782
126,844.5999999999999,11.550643353795968
127,854.38,11.431490168418115
128,864.27,11.311439468409224
129,874.2800000000001,11.189944916984652
130,884.4000000000001,11.067303120929044
131,894.64,10.942907063457756
132,905.0,10.816372454570788
133,915.48,10.695734234268143
134,923.95,10.70213556767812
135,934.6500000000001,10.726004608113394
136,945.47,10.864917587132991
137,954.22,11.023347600573052
138,954.992586,11.016917828956988
139,965.27,10.934091168669191
140,974.2,10.090178271561042
141,985.48,10.466326001529698
142,994.6,10.46403099384478
143,1006.1199999999999,10.795334794663834
144,1015.43,10.678734276402148
145,1024.82,9.886104548423926
146,1034.31,10.018381483300036
147,1043.8799999999999,10.791266008459615
148,1055.96,10.620599441262923
149,1065.73,10.070533792131165
150,1075.6000000000001,10.249557505853737
151,1085.55,9.736157109859777
152,1095.5900000000001,10.118272340434713
153,1096.4782,10.102586727859162
154,1105.73,9.959198965839757
155,1115.96,9.759525730998016
156,1126.29,9.489639022697412
157,1134.09,9.890911092906057
158,1144.5900000000001,9.597695379725383
159,1155.18,9.641121840431735
160,1165.87,9.588784827679225
161,1173.95,8.88804577220305
162,1184.81,9.35180775457047
163,1195.77,8.581866263479025
164,1204.06,8.14400081373924
165,1215.2,7.88322547042184
166,1223.63,8.410859757839644
167,1234.95,9.027143962296291
168,1246.3799999999999,9.12507904594819
169,1255.02,8.901625739102379
170,1258.92541,8.711565957913264
171,1263.72,8.491675746268946
172,1275.4099999999999,9.036965291546178
173,1284.25,9.113319019540253
174,1296.13,8.388883952636359
175,1305.12,8.29084851311902
176,1314.16,8.819273017764544
177,1326.32,8.616687838172682
178,1335.52,8.212974564139365
179,1344.7700000000002,8.65947923426891
180,1354.1000000000001,8.509892015059034
181,1363.48,8.140091740012023
182,1376.1000000000001,8.191775446718495
183,1385.6399999999999,8.149576392992643
184,1395.24,7.7972756722622245
185,1404.91,7.803008673359813
186,1414.65,7.752705396285411
187,1424.4599999999998,7.7795188410390175
188,1434.3300000000002,7.678717618788054
189,1440.95,7.7743090259510375
190,1445.43977,7.779833518243461
191,1447.6,7.787032781255377
192,1454.28,7.6708980508571845
193,1464.3600000000001,7.4201309187593125
194,1474.51,7.375218660744095
195,1484.74,7.387738687394768
196,1495.03,7.387940177544857
197,1505.39,7.203410541777601
198,1512.3400000000001,6.912765897126787
199,1515.83,7.051917190676235
200,1526.33,6.9172173030742865
201,1533.38,6.6213197642558335
202,1544.0100000000002,6.785202214235956
203,1554.71,6.626995538298733
204,1565.49,6.588766147027399
205,1576.34,6.650933629838718
206,1583.6100000000001,6.730828123851463
207,1594.59,6.7147459442448545
208,1605.64,6.6319906387208984
209,1616.77,6.594496617862833
210,1624.2400000000002,6.429752323540303
211,1635.5,6.511835640264309
212,1646.83,6.490442831070967
213,1654.43,6.279273874330509
214,1659.58691,6.340286791229718
215,1665.8999999999999,6.42416950245973
216,1673.5900000000001,6.13488245592958
217,1677.45,6.3891173857596995
218,1685.19,6.482836182880197
219,1696.8700000000001,6.301571659671854
220,1704.7,6.183627175363522
221,1716.52,6.026072214376997
222,1724.4399999999998,5.995317448639833
223,1736.3999999999999,6.087913049875126
224,1744.41,6.01636900270913
225,1756.5,6.12436019743611
226,1764.6100000000001,5.9006168375714125
227,1776.8400000000001,5.914079594520211
228,1785.04,5.922398953226684
229,1793.28,6.056278186853675
230,1805.72,5.996099287135198
231,1814.0500000000002,5.787443239333358
232,1826.62,5.793223933106572
233,1835.06,5.67636654133616
234,1843.53,5.484267055756137
235,1856.3,5.4443121241319465
236,1864.8700000000001,5.476479325853221
237,1873.4799999999998,5.617314402495018
238,1886.47,5.4140747829336835
239,1895.1699999999998,5.319182578146648
240,1903.92,5.38831621701026
241,1905.46072,5.374866632938219
242,1917.12,5.283689235353398
243,1925.9699999999998,5.236517495545105
244,1934.86,5.254054000980615
245,1943.79,5.31791875165993
246,1952.76,5.18400674758305
247,1966.3,5.332544762610814
248,1975.37,5.358788371643445
249,1984.4899999999998,5.2319502872308306
250,1993.6499999999999,5.151881448062021
251,2002.85,5.182358854137015
252,2016.74,5.071919015048067
253,2026.0500000000002,5.136052095543523
254,2035.4,5.021734421282783
255,2044.79,5.081570992265849
256,2054.23,4.974784869803669
257,2063.71,4.947332992585293
258,2073.2400000000002,5.057930421921673
259,2078.02,4.994881728556291
260,2082.81,5.074396096501859
261,2097.25,4.927590629515219
262,2106.93,4.899646978515866
263,2116.65,4.902356572760317
264,2126.42,4.893663473559523
265,2136.2400000000002,4.722927680913484
266,2146.1,4.77534713351125
267,2156.0,4.8199048313528206
268,2165.9500000000003,4.7222018357491455
269,2175.9500000000003,4.682338146700227
270,2186.0,4.649803764206063
271,2187.7616199999998,4.659308107890603
272,2196.09,4.710959676521967
273,2206.2200000000003,4.636647102599631
274,2216.41,4.503658295268081
275,2226.64,4.441770998997055
276,2236.91,4.573459213786553
277,2247.2400000000002,4.472031195166835
278,2252.42,4.357350377504673
279,2262.82,4.375868253240872
280,2273.26,4.4161066400375955
281,2283.75,4.473275665659974
282,2294.29,4.344867330108008
283,2304.88,4.343610633381696
284,2315.52,4.22479957548104
285,2326.21,3.848450156406037
286,2336.9500000000003,4.035179376156689
287,2342.34,3.9587212415622774
288,2353.15,4.102517355668846
289,2364.01,3.91579310860107
290,2374.92,3.9579415003589498
291,2385.88,3.809738530942483
292,2396.9,3.891756328116802
293,2402.42,3.825271854469093
294,2413.51,3.854693545999329
295,2424.65,3.96913687635522
296,2435.84,3.901602845536766
297,2447.09,3.9832355813090974
298,2452.73,3.9639166408429602
299,2464.05,3.909927270971208
300,2475.42,3.8241225399251113
301,2486.85,3.7984765754698
302,2492.58,3.734401784889841
303,2504.09,3.9097948425555775
304,2511.88643,3.727699647324795
305,2515.64,3.6416448173955867
306,2527.26,3.595075029032274
307,2533.08,3.6431375636041787
308,2544.77,3.6144587765157867
309,2556.52,3.777780561948754
310,2562.41,3.677610097795578
311,2574.24,3.7795623132570255
312,2586.12,3.720691672486273
313,2592.09,3.673892638361576
314,2604.05,3.592133427619303
315,2616.0699999999997,3.5460577893983913
316,2622.1,3.646594327795054
317,2634.2,3.788598119602621
318,2646.3599999999997,3.9952434839315476
319,2652.46,4.161214023603131
320,2664.71,3.7926282467140977
321,2677.01,3.897967613592863
322,2683.18,3.927497154539367
323,2695.5600000000004,3.755575951446612
324,2708.0,3.8571903208752185
325,2714.2500000000005,3.667077291850201
326,2726.77,3.598967091307287
327,2733.06,3.7132257772965094
328,2745.68,3.3665878642891953
329,2752.0,3.4390898365390976
330,2764.71,3.5335697823138226
331,2777.4700000000003,3.6007558718563475
332,2783.87,3.4004102741347304
333,2796.72,3.0517200224592953
334,2803.1699999999996,3.1296477685054773
335,2816.11,3.5043775756120814
336,2822.6,3.7062698366725044
337,2835.63,3.6381535025611482
338,2842.1600000000003,3.51925347863581
339,2855.28,3.3246540033064944
340,2861.8700000000003,3.6957035519025156
341,2875.07,3.79173050660168
342,2881.7,3.707762770211942
343,2884.0315,3.7157439053074577
344,2895.0,3.757341598869462
345,2908.3700000000003,4.058794285098957
346,2928.5299999999997,3.8890225920837467
347,2948.83,3.8133176025892626
348,2969.27,3.880693316615507
349,2989.85,3.874451734162479
350,3010.57,3.904298855230178
351,3031.44,3.907223801498658
352,3052.45,3.910337451287864
353,3066.54,3.953832898481102
354,3087.8,3.9623315902716087
355,3109.2,4.016089985582843
356,3130.76,3.9353003277749083
357,3152.46,3.914366373487702
358,3167.01,3.9649054179633305
359,3188.96,3.746215505677424
360,3211.0699999999997,3.8821115402723483
361,3233.32,3.635929278388
362,3248.2499999999995,3.9732749467056045
363,3270.7599999999998,4.159046848502609
364,3293.44,4.0915628188604956
365,3308.64,4.048852772539503
366,3311.31121,4.044298211748914
367,3323.91,4.02607922713256
368,3331.5699999999997,4.08747110808117
369,3339.2500000000005,3.850570411695441
370,3346.9500000000003,4.239862137975376
371,3354.67,4.009478286920972
372,3362.3999999999996,3.7536751471993997
373,3370.15,3.843920430143489
374,3377.9199999999996,4.048422135753241
375,3385.71,3.9272552640286547
376,3393.51,4.1113581036369
377,3401.3300000000004,4.342319365910806
378,3409.17,3.981151050850376
379,3417.0299999999997,3.883523158455608
380,3424.91,4.213206688726501
381,3432.81,4.325554641663057
382,3440.72,4.118037305932445
383,3448.6499999999996,3.7928743928674935
384,3456.6000000000004,3.9525299024682043
385,3464.57,3.740710834734578
386,3472.56,4.1066901896666135
387,3480.56,3.7752412559314803
388,3488.58,3.957232744862009
389,3496.63,3.874545367791031
390,3504.6899999999996,4.136859702052885
391,3512.77,4.0019674589804
392,3520.86,4.179804927240746
393,3528.98,3.674794529499586
394,3537.1200000000003,4.119196554424088
395,3545.27,4.19275329068142
396,3553.44,4.262340449604416
397,3561.63,4.131636031193072
398,3569.84,3.737210035447392
399,3575.2400000000002,3.117353155176177
400,3577.92,4.096738792374907
401,3580.59,2.9948617182408066
402,3583.2599999999998,3.487574644106706
403,3585.94,3.8043852813054366
404,3588.6099999999997,3.6083812071713357
405,3591.28,4.3923911330372345
406,3593.96,3.547793770235965
407,3596.63,3.1614176961018643
408,3599.3,4.272148621967764
409,3601.97,4.2596695478336635
410,3604.6499999999996,4.181885185032394
411,3607.32,3.883315110898293
412,3609.9900000000002,3.4173500367641916
413,3612.67,3.1507196739629224
414,3615.34,3.779811599828821
415,3618.0099999999998,3.7521145256947204
416,3620.68,4.02633545156062
417,3623.36,3.66520008875935
418,3626.03,3.97731201462525
419,3628.7000000000003,4.459708940491149
420,3631.38,4.4718605776898785
421,3634.0499999999997,3.7770245035557783
422,3636.72,4.282552429421678
423,3639.3900000000003,3.9961563552875767
424,3642.07,3.825392992486307
425,3644.7400000000002,4.440791918352206
426,3647.41,3.9188268442181053
427,3650.0899999999997,4.268809481416836
428,3652.7599999999998,4.5873134072827355
429,3655.4300000000003,4.401506333148634
430,3658.1000000000004,3.8617352590145337
431,3660.78,3.9683898962132638
432,3663.45,4.205479822079163
433,3666.12,4.6102667479450625
434,3668.7999999999997,4.847789385143793
435,3671.47,4.388523311009692
436,3674.1400000000003,4.138649236875591
437,3676.81,4.670505162741491
438,3679.4900000000002,4.36749979994022
439,3682.16,3.73201172580612
440,3684.83,3.7449446516720197
441,3687.5099999999998,3.43829028887075
442,3690.1800000000003,3.710683214736649
443,3692.85,3.8989241406025483
444,3695.53,3.9186857778012785
445,3698.2,4.307189703667178
446,3700.87,4.667541629533077
447,3703.54,4.559952555398977
448,3706.2200000000003,4.256187192597706
449,3708.8900000000003,4.026096118463606
450,3711.56,4.194402044329506
451,3714.24,4.252206681528236
452,3716.91,3.986659607394135
453,3719.58,4.457642533260034
454,3722.2499999999995,4.553513459125933
455,3724.9300000000003,5.355000096324663
456,3727.6,6.195012022190563
457,3730.27,6.474257948056462
458,3732.95,6.350356585255193
459,3735.62,5.440650511121091
460,3738.2900000000004,5.230953436986991
461,3740.96,4.52987836285289
462,3743.64,4.374331000051621
463,3746.31,3.94915092591752
464,3748.98,3.7580168517834194
465,3751.66,4.1020654889821495
466,3754.3300000000004,4.2428274148480485
467,3757.0,4.578070340713948
468,3759.67,5.0221212665798465
469,3762.35,4.287085903778578
470,3765.02,4.232910829644476
471,3767.69,4.659612755510376
472,3770.37,4.270779392709106
473,3773.0399999999995,4.5029993185750055
474,3775.71,4.440911244440905
475,3778.38,4.278082170306804
476,3781.06,4.247167807505535
477,3783.73,5.161440733371434
478,3786.3999999999996,5.429272659237332
479,3789.0800000000004,5.002544296436063
480,3791.75,4.536582222301963
481,3794.42,4.366449148167861
482,3797.1,3.9964877853665923
483,3799.77,4.719930711232491
484,3801.8939600000003,4.539195975090944
485,3802.44,4.492831229378386
486,3805.1099999999997,4.195660136761372
487,3807.79,4.734220579378002
488,3810.46,4.620271486760988
489,3813.13,4.278971394143974
490,3815.81,4.440743836760604
491,3818.48,4.45751274414359
492,3821.1499999999996,4.356041651526576
493,3823.82,4.3610925589095615
494,3826.5,4.054773001526192
495,3829.17,3.872190908909177
496,3831.84,3.760218816292163
497,3834.52,3.4675962589087925
498,3837.1899999999996,3.4554511662917786
499,3839.86,3.984444073674764
500,3842.53,4.15810598105775
501,3845.21,3.83169942367438
502,3847.88,3.7494013310573653
503,3850.5499999999997,4.062152238440351
504,3853.2300000000005,4.401971681056981
505,3855.9,4.607591588439967
506,3858.57,4.630447495822953
507,3861.2400000000002,4.385169403205939
508,3863.92,4.630182845822569
509,3866.5899999999997,4.977630753205554
510,3869.2599999999998,4.79398466058854
511,3871.9399999999996,4.27963910320517
512,3874.61,4.518281010588156
513,3877.28,4.510701917971142
514,3879.95,4.286880825354128
515,3882.63,4.667786267970758
516,3885.2999999999997,4.449596175353744
517,3887.9700000000003,4.020794082736729
518,3890.65,4.635594525353359
519,3893.32,4.805757432736344
520,3895.99,4.857984340119331
521,3898.67,5.077276782735961
522,3901.3399999999997,5.117482690118946
523,3904.0099999999998,5.081295597501932
524,3906.6800000000003,5.116783504884918
525,3909.36,5.061397947501548
526,3912.03,5.6555238548845335
527,3914.7,5.256550762267519
528,3917.3799999999997,5.175447204884149
529,3920.0499999999997,5.322937112267135
530,3922.7200000000003,4.835853019650121
531,3925.3900000000003,4.840599927033106
532,3928.07,4.660279369649737
533,3930.74,4.110650277032722
534,3933.41,4.096375184415708
535,3936.0899999999997,3.902209627032338
536,3938.76,3.647649534415324
537,3941.4300000000003,4.081532441798309
538,3944.1,4.683570349181295
539,3946.7799999999997,5.0796927917979255
540,3949.45,5.100267699180911
541,3952.12,5.373910606563896
542,3954.8,5.254003049180527
543,3957.4700000000003,5.238207956563512
544,3960.14,5.366371863946498
545,3962.81,4.620738771329484
546,3965.49,3.8516512139461136
547,3968.16,3.8615711213291
548,3970.8300000000004,3.6983150287120856
549,3973.51,3.884286471328715
550,3976.1800000000003,4.243298378711701
551,3978.85,4.2698062860946875
552,3981.52,4.9108031934776735
553,3984.2,5.080487636094302
554,3986.8700000000003,4.788491543477289
555,3989.54,5.145680450860274
556,3992.2200000000003,5.198948893476904
557,3994.89,5.553245800859891
558,3997.56,5.704996708242875
559,4000.24,5.855047150859506
560,4002.91,5.754339058242492
561,4005.5800000000004,5.779325965625477
562,4008.25,6.089493873008463
563,4010.93,6.027867315625094
564,4013.6,6.122704223008078
565,4016.27,5.949256130391065
566,4018.95,5.703800573007696
567,4021.6200000000003,5.98124948039068
568,4024.29,6.078978387773666
569,4026.96,6.057706295156652
570,4029.64,5.743771737773282
571,4032.31,6.075394645156268
572,4034.98,5.999491552539254
573,4037.6600000000003,5.740187995155883
574,4040.33,5.9289169025388695
575,4043.0,5.974145809921855
576,4045.67,5.67149971730484
577,4048.35,5.678200159921471
578,4051.02,5.921866067304457
579,4053.6899999999996,5.788743974687442
580,4056.3700000000003,5.735791417304073
581,4059.04,5.709648324687057
582,4061.71,5.876313232070045
583,4064.38,5.716561139453029
584,4067.06,5.971915582069659
585,4069.7299999999996,5.834076489452645
586,4072.4,6.023872396835631
587,4075.08,5.877483839452261
588,4077.75,6.157214746835247
589,4080.42,6.016484654218232
590,4083.0899999999997,6.255585561601219
591,4085.7700000000004,6.368656004217848
592,4088.44,6.210424911600834
593,4091.11,5.911886818983819
594,4093.79,6.00882826160045
595,4096.46,5.9020331689834356
596,4099.13,5.988196076366422
597,4101.81,5.597261518983051
598,4104.48,5.558031426366037
599,4107.15,5.812654333749023
600,4109.82,5.841295241132009
601,4112.5,5.8732556837486385
602,4115.17,6.181596591131624
603,4117.84,6.06004049851461
604,4120.5199999999995,6.1353709411312405
605,4123.19,6.0030098485142265
606,4125.86,5.614689755897212
607,4128.530000000001,5.944791663280197
