,lambda (Angstroms),Total Flux (erg/s/cm^2/Angstrom)
0,100.00999999999999,6.064154368269393
1,102.10000000000001,6.04520020013611
2,104.0,6.02796914069598
3,104.712855,6.0215042888506165
4,105.93,5.963521626664079
5,107.89999999999999,5.8696743240704485
6,109.91000000000001,5.773921699033265
7,114.03,5.577652438785275
8,118.04,5.386623546914073
9,120.22644299999999,5.282470840723504
10,121.07,5.248781628064113
11,125.03,5.090623490507217
12,127.07,5.009147887786695
13,127.95,4.974002031389607
14,130.93,4.854983947924924
15,132.14,4.806660562018929
16,133.98,4.733173295208654
17,137.1,4.6085686950107965
18,138.038426,4.571089481041612
19,139.97,4.515949007574681
20,142.9,4.432372003924435
21,146.9,4.318355884510787
22,151.02,4.20076496370573
23,154.89,4.090317023032776
24,158.489319,3.9875975627650577
25,158.86,3.979600740578239
26,161.82,3.9157442258676913
27,165.97,3.8262228453569564
28,169.84,3.7427374725580296
29,172.98999999999998,3.674786809975183
30,177.01999999999998,3.587852299283794
31,179.89999999999998,3.5257276568194764
32,181.970086,3.481074925970881
33,181.98,3.480911808596428
34,185.79,3.418226333999342
35,191.0,3.332506297320387
36,194.1,3.2815091843962496
37,198.17000000000002,3.2145450191668155
38,201.85000000000002,3.154012224685903
39,205.13,3.1000499586855255
40,208.929613,3.0375096233541967
41,209.91,3.025379208902264
42,215.79000000000002,2.9527286345742354
43,219.79999999999998,2.903157854430802
44,222.86,2.865311163456012
45,227.00000000000003,2.814140471784237
46,230.16,2.7757389386338005
47,233.9,2.7309153556646124
48,239.88329199999998,2.657712121960558
49,239.9,2.6575551515286566
50,246.04999999999998,2.5987189530512422
51,251.78,2.5443688331722853
52,257.06,2.4933450597916753
53,260.03,2.465605811702583
54,264.26,2.425506277818117
55,269.17,2.378689067536148
56,274.17,2.3310134035545103
57,275.42287,2.3190669842267213
58,279.27,2.290918009739562
59,283.81,2.257702075112869
60,289.75,2.21401961117398
61,295.82,2.1696869999418156
62,301.32,2.129388438072474
63,308.34,2.0780696882356047
64,316.227766,2.0204152910676556
65,317.71,2.0123276707683746
66,328.12,1.9554036985023815
67,338.09,1.900852175570397
68,348.36,1.8446387781379519
69,357.29999999999995,1.7957095466242168
70,363.078055,1.7641064486341769
71,365.61999999999995,1.7536936028184715
72,375.0,1.7152167770963926
73,384.62,1.675622755353706
74,395.39,1.6315806473039418
75,404.6,1.5938338268881267
76,414.03000000000003,1.555134881370088
77,416.86938299999997,1.5434740960218891
78,421.72,1.5282481222718667
79,429.56,1.5036515129283243
80,440.58,1.469121244764314
81,450.85,1.4369000151523006
82,460.29,1.407285893697831
83,469.92,1.3770891849301885
84,478.630092,1.349795303059366
85,479.76,1.3470705518593418
86,489.80999999999995,1.3227685988033817
87,500.07000000000005,1.2980494676059535
88,505.86,1.2840401798483407
89,511.71000000000004,1.270044909621737
90,520.03,1.2499674085883452
91,529.7,1.2266039775026598
92,539.54,1.2027962935881678
93,549.5408739999999,1.1786595253765597
94,549.58,1.1785874130083334
95,559.79,1.1598394603227171
96,570.2,1.1407172841476663
97,579.47,1.1235997175623904
98,590.24,1.1037966373063581
99,599.83,1.0860634575379875
100,609.5799999999999,1.0678265941780698
101,619.48,1.0499502009510762
102,629.55,1.0313832524080637
103,630.957344,1.0287967340594828
104,639.78,1.0159368357003877
105,650.1700000000001,1.0007498345729298
106,657.6999999999999,0.9897128236547627
107,665.3100000000001,0.9786501377587128
108,674.57,0.9651401723188419
109,685.53,0.949067389348973
110,695.07,0.9352083669865139
111,704.7399999999999,0.9210072396599965
112,716.19,0.9043904878255985
113,724.43596,0.8923528191297596
114,726.15,0.8904931015455276
115,734.56,0.8813766810618342
116,744.78,0.8702813632552534
117,755.14,0.8590463754513221
118,765.64,0.8475044816500403
119,774.5100000000001,0.8380467406036242
120,785.29,0.8263293918076418
121,794.38,0.8165017106225321
122,805.4300000000001,0.8045446434745166
123,814.7600000000001,0.7944318018653777
124,824.19,0.7842247118295599
125,831.763771,0.7759471875204995
126,835.66,0.772751200047774
127,845.3299999999999,0.765015566407337
128,855.12,0.7570743641777735
129,865.02,0.7490609945748443
130,875.04,0.7409550223827885
131,885.17,0.7327490218173671
132,895.42,0.724450452662819
133,905.7900000000001,0.7160406989191446
134,914.17,0.7095269121118165
135,924.76,0.7026103356214104
136,935.46,0.6959945347576383
137,944.12,0.6917888069090153
138,954.992586,0.6853630480762642
139,955.0500000000001,0.6853301169422555
140,963.89,0.6791634779625068
141,975.05,0.6627189339201991
142,984.0699999999999,0.6612377918752516
143,995.4699999999999,0.6526592324126794
144,1004.6800000000001,0.6492090724100222
145,1013.98,0.6416157323747659
146,1025.72,0.6256352235668188
147,1035.21,0.6213953275738529
148,1044.79,0.6210471175482878
149,1054.45,0.6130282953826344
150,1064.21,0.6018314442918709
151,1074.06,0.596313600168508
152,1084.0,0.5850604130125459
153,1094.03,0.5812050328239844
154,1096.4782,0.5791123581004622
155,1104.15,0.573652575191972
156,1114.37,0.5663095962836757
157,1124.68,0.5580596344104333
158,1135.08,0.5548106295722455
159,1145.59,0.5465425322213457
160,1156.18,0.540564426679383
161,1164.2,0.5356417580253188
162,1174.97,0.5235991965534645
163,1185.84,0.5210223673427815
164,1194.06,0.5110258432110598
165,1205.11,0.501089850070485
166,1216.26,0.49155437219108145
167,1224.69,0.4913267108078194
168,1236.03,0.48905492722464133
169,1244.59,0.4848847607809019
170,1256.11,0.4765290612678321
171,1258.92541,0.47397971299108893
172,1264.8200000000002,0.4697362941172048
173,1273.58,0.46977892451109576
174,1285.3700000000001,0.4651737401097228
175,1294.28,0.45677091105830353
176,1306.25,0.4510479013225586
177,1315.3100000000002,0.4506754128258292
178,1324.42,0.44555545118066325
179,1333.6100000000001,0.4391385904979985
180,1345.9499999999998,0.43655433146382217
181,1355.27,0.4315844185952219
182,1364.67,0.42522323668912304
183,1374.13,0.4216153130049001
184,1383.6499999999999,0.4173050575425534
185,1396.46,0.4089690629130717
186,1406.1399999999999,0.4048759393757275
187,1415.8799999999999,0.4010100540602592
188,1425.7,0.39687767970729204
189,1435.58,0.392216133576201
190,1442.2099999999998,0.38997264209349514
191,1445.43977,0.3887440209928469
192,1445.53,0.38872225481335193
193,1455.55,0.38493165312160693
194,1465.64,0.3803340032843107
195,1475.8,0.3770315253014636
196,1486.0300000000002,0.3740495891730651
197,1496.33,0.3709457548991157
198,1506.7,0.3666894824796151
199,1513.66,0.36280185543624727
200,1517.1499999999999,0.3625875950366276
201,1524.1499999999999,0.3599041704815162
202,1534.71,0.354727477381234
203,1545.3500000000001,0.3524045092574648
204,1556.06,0.34826018298814454
205,1563.25,0.3461665677522517
206,1574.08,0.34363142894770093
207,1584.99,0.3408273251196631
208,1595.9799999999998,0.3376425762681385
209,1603.3500000000001,0.33492093722939975
210,1614.46,0.33134707584264456
211,1625.6499999999999,0.3268640994324024
212,1633.1499999999999,0.32536631098049745
213,1644.48,0.322137768279153
214,1655.8700000000001,0.3170548143101933
215,1659.58691,0.3165802054146247
216,1663.52,0.3164570744397277
217,1671.1999999999998,0.31275476115877787
218,1678.91,0.3152420487243868
219,1686.66,0.3142309340854076
220,1694.44,0.31078784029298706
221,1706.1899999999998,0.3078230051951798
222,1714.07,0.3065444208912885
223,1725.95,0.30408559612856934
224,1733.9099999999999,0.3041887974155016
225,1745.93,0.3007590699367234
226,1753.99,0.3012900407121849
227,1766.1499999999999,0.29554863051734775
228,1774.3,0.29546107383248565
229,1786.6000000000001,0.29281566092158945
230,1794.8500000000001,0.2945016337252566
231,1803.13,0.2910864273754826
232,1815.63,0.2877176934416451
233,1824.01,0.2856488465804004
234,1836.6499999999999,0.2815390899305039
235,1845.13,0.27749179255778844
236,1853.65,0.2774164329804848
237,1866.5,0.2767621122564997
238,1875.1100000000001,0.2749625452188724
239,1883.77,0.2724563529255098
240,1896.83,0.27063929812743626
241,1905.46072,0.2685525974116722
242,1905.5800000000002,0.2685309387581772
243,1914.3799999999999,0.26731885371320613
244,1923.2099999999998,0.2643671954464908
245,1936.54,0.25840027391814246
246,1945.48,0.26389644383836497
247,1954.46,0.2621016894629285
248,1968.01,0.26312732430845587
249,1977.09,0.26081362919387213
250,1986.22,0.25988722870971454
251,1995.3899999999999,0.258080153929898
252,2004.6,0.2554278948544226
253,2013.8500000000001,0.25340748148328807
254,2023.1499999999999,0.25076037274258
255,2037.17,0.2510105971141146
256,2046.5700000000002,0.2517432276342591
257,2056.02,0.24865584278482988
258,2065.51,0.24610027363974168
259,2075.04,0.24852699019899457
260,2079.83,0.2551830157938342
261,2084.62,0.25725130138867375
262,2094.24,0.25288746828269393
263,2103.91,0.24878934980714043
264,2113.62,0.24910627703592797
265,2123.38,0.2463631488951418
266,2133.1800000000003,0.24035200645869664
267,2143.0299999999997,0.24474817865267787
268,2152.92,0.24387277655100004
269,2162.85,0.23844082015366336
270,2172.84,0.23725350731283815
271,2182.87,0.23952825017635404
272,2187.7616199999998,0.23953775583652284
273,2192.94,0.23982436608307833
274,2203.07,0.23675348294451262
275,2213.23,0.22926982871076856
276,2223.45,0.22929073228666777
277,2233.71,0.23646134773566244
278,2244.02,0.23261038802602646
279,2254.38,0.22488759315775983
280,2264.79,0.22343852313086263
281,2275.2400000000002,0.22564479497706086
282,2285.74,0.23055664166462855
283,2296.29,0.22417499319356554
284,2306.89,0.22729843956387194
285,2317.54,0.22175610077554767
286,2322.88,0.21080111583379635
287,2333.6,0.2107234878233892
288,2344.38,0.20346693762262533
289,2355.2000000000003,0.21459274929495692
290,2366.07,0.2022886558086579
291,2376.99,0.20617192716372829
292,2382.47,0.19680774377781118
293,2393.4700000000003,0.19945118887907248
294,2404.5099999999998,0.1978411258534294
295,2415.61,0.1994904506374294
296,2426.76,0.20990594026279885
297,2432.36,0.20896586249616828
298,2443.58,0.21293956289945484
299,2454.86,0.21312103111238462
300,2466.19,0.2083746441666838
301,2477.58,0.20342860503062624
302,2483.29,0.19696852991500827
303,2494.75,0.19672007155686783
304,2506.27,0.2082620410083706
305,2511.88643,0.1892943082651649
306,2512.04,0.1887800465823418
307,2517.84,0.18494085220662718
308,2523.64,0.18523321783091262
309,2535.29,0.19034679766245138
310,2546.9900000000002,0.19087636607695815
311,2552.86,0.20521812571739872
312,2564.65,0.19559350358124783
313,2576.48,0.20230639231147135
314,2582.42,0.19851473596806707
315,2594.34,0.19432087414763297
316,2606.3199999999997,0.1894022786267604
317,2612.33,0.1859979262995113
318,2624.38,0.19482968479479387
319,2636.5,0.2118598173062317
320,2642.58,0.23048377899513775
321,2654.77,0.2511010255227307
322,2667.03,0.21714969606647883
323,2673.17,0.2261374240549464
324,2685.5099999999998,0.2325458663314433
325,2697.91,0.21437713490750177
326,2704.13,0.22665242462871815
327,2716.6099999999997,0.2079868949375254
328,2722.87,0.20057877552511622
329,2735.44,0.20959766528326573
330,2748.07,0.1823884613409769
331,2754.4,0.19169851594472287
332,2767.1200000000003,0.20174838145177634
333,2773.5,0.2069848346384903
334,2786.2999999999997,0.18448811187829262
335,2792.7200000000003,0.16117449593138086
336,2805.61,0.16435369262052554
337,2812.08,0.19867107525658184
338,2825.06,0.2211020913950688
339,2838.1,0.21745820383311742
340,2844.64,0.20368503048532882
341,2857.77,0.18376456237271976
342,2864.36,0.2199039676078992
343,2877.58,0.23661885894463253
344,2884.0315,0.22884248172806754
345,2884.21,0.2286316892173902
346,2897.5299999999997,0.2402028802435094
347,2910.9,0.27389510230951636
348,2931.08,0.2565704380082464
349,2951.4,0.24847874461866248
350,2971.85,0.25558030993278685
351,2992.45,0.2565559583665748
352,3013.2,0.2584684899200262
353,3027.11,0.26364947121682175
354,3048.09,0.2670811835537572
355,3069.22,0.2776177790103562
356,3090.4900000000002,0.27723734537864103
357,3111.91,0.29272159486658944
358,3133.48,0.28198882747420134
359,3147.95,0.28313439241774074
360,3169.77,0.29381033022479175
361,3191.7400000000002,0.2698853511515063
362,3206.4700000000003,0.2859506335024624
363,3228.7,0.2593505718365937
364,3251.08,0.30681119329038853
365,3273.61,0.33452759786384684
366,3288.72,0.3297165441179505
367,3311.31121,0.3207414271471852
368,3311.52,0.32066205798616504
369,3319.15,0.310885788102578
370,3326.81,0.3087803691893045
371,3334.47,0.335624150276031
372,3342.1600000000003,0.31581908233307104
373,3349.87,0.33150178170365346
374,3357.5899999999997,0.33701506473100706
375,3365.3300000000004,0.281609815071903
376,3373.09,0.2704188327263414
377,3380.86,0.33209123403755086
378,3388.65,0.32977560266230277
379,3396.47,0.2988075222573682
380,3404.3,0.3492232255092048
381,3412.1400000000003,0.31454851241781256
382,3420.01,0.32776475029673396
383,3427.8900000000003,0.32192897183242647
384,3435.8,0.3314282443384326
385,3443.7200000000003,0.27657650050120985
386,3451.66,0.3267744239775295
387,3459.61,0.3270429311106203
388,3467.5899999999997,0.3211802892140247
389,3475.58,0.3260270309742002
390,3483.5899999999997,0.32474804004791813
391,3491.62,0.32501191643517846
392,3499.6699999999996,0.29277266013598113
393,3507.74,0.3477989711503261
394,3515.83,0.3078702494782135
395,3523.9300000000003,0.33294331146287204
396,3532.0499999999997,0.326864040761073
397,3540.2,0.3531652210295875
398,3548.3599999999997,0.36490418495487315
399,3556.5400000000004,0.33627121619370115
400,3564.7400000000002,0.34895191474607157
401,3572.95,0.2877319969552132
402,3581.19,0.30150683013466834
403,3589.4500000000003,0.2523551306276658
404,3597.72,0.33174421477743454
405,3606.01,0.33751476624074556
406,3614.33,0.31453966867437017
407,3622.66,0.28741555476476593
408,3630.4599999999996,0.36656130704628903
409,3633.2,0.3400276290015933
410,3635.95,0.33265563461366876
411,3638.69,0.32498045656897295
412,3641.44,0.3505468621810484
413,3644.1800000000003,0.36832468413635266
414,3646.92,0.30945530609165695
415,3649.67,0.3615682117037323
416,3652.41,0.35183003365903665
417,3655.16,0.3589330392711121
418,3657.9,0.3812135612264163
419,3660.64,0.4249352831817205
420,3663.3900000000003,0.378221088793796
421,3666.13,0.3953558107491003
422,3668.8700000000003,0.34945363270440455
423,3671.62,0.33718833831648
424,3674.3599999999997,0.3649243602717842
425,3677.11,0.3752197658838597
426,3679.85,0.3662916878391639
427,3682.59,0.3408776097944682
428,3685.3399999999997,0.36608651540654363
429,3688.0800000000004,0.36735473736184787
430,3690.83,0.3859169429739233
431,3693.5699999999997,0.36517236492922756
432,3696.31,0.4065831868845318
433,3699.06,0.4175692924966073
434,3701.8,0.3961101144519115
435,3704.54,0.3566403364072158
436,3707.29,0.3719386420192912
437,3710.03,0.3564589639745955
438,3712.7799999999997,0.3667783695866709
439,3715.52,0.3858902915419752
440,3718.2599999999998,0.41424591349727946
441,3721.01,0.38137311910935484
442,3723.75,0.3779243410646591
443,3726.5,0.3738781466767345
444,3729.24,0.37266876863203885
445,3731.9799999999996,0.3695534905873431
446,3734.73,0.32227009619941854
447,3737.47,0.3206104181547228
448,3740.21,0.35189134011002704
449,3742.96,0.35189514572210245
450,3745.7000000000003,0.34420576767740674
451,3748.45,0.3319642732894822
452,3751.1899999999996,0.33306569524478646
453,3753.93,0.35794291720009075
454,3756.68,0.3597573228121661
455,3759.42,0.38763634476747033
456,3762.17,0.3791350503795458
457,3764.9100000000003,0.38264267233485005
458,3767.65,0.3871509942901543
459,3770.3999999999996,0.35947179990222977
460,3773.14,0.397976121857534
461,3775.8799999999997,0.41556354381283833
462,3778.63,0.4239052494249137
463,3781.37,0.415834871380218
464,3784.1200000000003,0.3915146769922934
465,3786.86,0.4292327989475977
466,3789.6000000000004,0.3968625209029019
467,3792.35,0.4029172265149774
468,3795.0899999999997,0.35413254847028164
469,3797.84,0.3611641540823571
470,3800.58,0.39757197603766137
471,3801.8939600000003,0.38740687550495523
472,3803.32,0.37639191770245606
473,3806.0699999999997,0.39839403009772056
474,3808.8100000000004,0.39385863808427496
475,3811.55,0.3827241460708294
476,3814.2999999999997,0.3615343584660939
477,3817.04,0.3778921664526483
478,3819.79,0.37440317884791274
479,3822.53,0.3505231868344672
480,3825.27,0.3344571948210216
481,3828.02,0.2911999072162861
482,3830.76,0.30320021520284046
483,3833.5099999999998,0.31631162759810494
484,3836.25,0.2842028355846594
485,3838.99,0.30185644357121383
486,3841.7400000000002,0.3348747559664783
487,3844.48,0.3364141639530327
488,3847.2200000000003,0.37099687193958714
489,3849.97,0.3944045843348516
490,3852.7099999999996,0.36430659232140605
491,3855.46,0.3838311047166705
492,3858.2,0.3871575127032249
493,3860.94,0.36723212068977934
494,3863.69,0.3515218330850438
495,3866.4300000000003,0.38943974107159823
496,3869.18,0.3871418534668627
497,3871.9199999999996,0.3929220614534171
498,3874.66,0.35977476943997155
499,3877.41,0.361098081835236
500,3880.15,0.3553953898217905
501,3882.89,0.3643677978083449
502,3885.6400000000003,0.34124841020360935
503,3888.38,0.3773558181901638
504,3891.1299999999997,0.3704839305854282
505,3893.87,0.38124303857198266
506,3896.6099999999997,0.42130524655853707
507,3899.36,0.40988295895380156
508,3902.1,0.40844466694035597
509,3904.8500000000004,0.42742107933562046
510,3907.59,0.41959808732217485
511,3910.3300000000004,0.44079219530872926
512,3913.08,0.41874460770399374
513,3915.8199999999997,0.4367939156905482
514,3918.56,0.4306385236771026
515,3921.31,0.4128077360723671
516,3924.05,0.3777307440589215
517,3926.7999999999997,0.342437556454186
518,3929.5400000000004,0.32294106444074033
519,3932.28,0.2934932724272948
520,3935.0299999999997,0.27357118482255927
521,3937.77,0.2781194928091137
522,3940.52,0.29917850520437816
523,3943.26,0.35083761319093254
524,3946.0,0.37670092117748705
525,3948.7499999999995,0.4001323335727515
526,3951.49,0.4242328415593059
527,3954.23,0.4260583495458603
528,3956.98,0.4168754619411248
529,3959.72,0.4074325699276792
530,3962.4700000000003,0.37216308232294365
531,3965.21,0.3206287903094981
532,3967.9500000000003,0.2960552982960525
533,3970.7,0.283956810691317
534,3973.4399999999996,0.30318281867787145
535,3976.19,0.3425023310731359
536,3978.93,0.38880603905969036
537,3981.67,0.4451157470462447
538,3984.42,0.48288875944150916
539,3987.1600000000003,0.4882878674280636
540,3989.9,0.497355875414618
541,3992.6499999999996,0.5163797878098825
542,3995.39,0.5223744957964369
543,3998.14,0.5358951081917014
544,4000.88,0.5409846161782559
545,4003.62,0.5297551241648103
546,4006.3700000000003,0.5365812365600747
547,4009.11,0.5391693445466291
548,4011.8599999999997,0.5507124569418936
549,4014.6,0.554682364928448
550,4017.3399999999997,0.5671333729150024
551,4020.09,0.5574021853102669
552,4022.83,0.5580843932968214
553,4025.57,0.5687011012833758
554,4028.32,0.5567066136786403
555,4031.0600000000004,0.5432854216651947
556,4033.81,0.5357936340604591
557,4036.5499999999997,0.5438849420470135
558,4039.29,0.5605288500335679
559,4042.04,0.5555623624288325
560,4044.78,0.5282758704153869
561,4047.5299999999997,0.5337916828106514
562,4050.2700000000004,0.5421450907972057
563,4053.01,0.5362996987837602
564,4055.7599999999998,0.5438405111790247
565,4058.5,0.5475007191655791
566,4061.24,0.5356756271521336
567,4063.9900000000002,0.5336632395473979
568,4066.73,0.5312722475339524
569,4069.4799999999996,0.5365736599292168
570,4072.22,0.5306091679157713
571,4074.96,0.5224289759023257
572,4077.71,0.5416671882975902
573,4080.45,0.5481861962841446
574,4083.2000000000003,0.5489611086794091
575,4085.94,0.5653668166659636
576,4088.6800000000003,0.5830114246525179
577,4091.43,0.5766630370477823
578,4094.1699999999996,0.5573813450343368
579,4096.91,0.5382185530208912
580,4099.66,0.5209115654161557
581,4102.4,0.48988477340271014
582,4105.150000000001,0.4813449857979746
583,4107.89,0.511544193784529
584,4110.63,0.5307373017710834
585,4113.38,0.5369202141663479
586,4116.12,0.5473938221529023
587,4118.87,0.5605331345481668
588,4121.61,0.5549975425347212
