,lambda (Angstroms),Total Flux (erg/s/cm^2/Angstrom)
0,100.09,0.3851761149092898
1,101.94999999999999,0.3841049750432623
2,104.08000000000001,0.38287806093035975
3,104.712855,0.38251357729920793
4,106.02000000000001,0.3785581398695458
5,107.99,0.3725969857522413
6,110.0,0.36651587657079354
7,114.12,0.3540489249520398
8,118.13000000000001,0.3419146632664301
9,120.22644299999999,0.33557942489779036
10,120.89000000000001,0.3338987325238465
11,125.13,0.3231435516082211
12,126.87,0.31872994164817664
13,128.05,0.31573679506642244
14,131.03,0.3081774397294499
15,131.94,0.3058712896459784
16,134.07999999999998,0.300442705681441
17,136.89,0.29331739215412794
18,138.038426,0.2904043027978805
19,140.07999999999998,0.28670300870681154
20,143.01,0.2814145544259989
21,147.02,0.2741810508087775
22,151.14000000000001,0.26671447670469967
23,155.02,0.2596846435664905
24,158.489319,0.2533991337213433
25,158.99,0.2527135609689212
26,161.95000000000002,0.24866045568016198
27,166.1,0.24297840303308402
28,169.97000000000003,0.23767886281737516
29,173.13,0.23335208803478089
30,177.16,0.22783377814400393
31,180.04,0.2238903697927788
32,181.970086,0.22124776365870025
33,182.13,0.22108079785405924
34,185.94,0.2171026677857998
35,191.15,0.2116616716402272
36,193.81,0.20888585140333216
37,197.87,0.20464590848912395
38,202.01,0.20032299853621213
39,204.82,0.19738969435174783
40,208.929613,0.19309257502803684
41,210.07999999999998,0.19218833545275454
42,215.96,0.18758229688540584
43,219.98,0.18442873042609606
44,223.04000000000002,0.18202610354512885
45,227.17999999999998,0.17877914218852622
46,229.81,0.17682692912285836
47,234.09,0.17368702631941407
48,239.88329199999998,0.1692572346756267
49,240.09,0.16913646480630887
50,246.25,0.16536532018848502
51,251.98999999999998,0.16190901023324
52,257.26,0.1585946064123095
53,260.24,0.1568783642968687
54,263.86,0.15470795754321245
55,268.77000000000004,0.15172463511877812
56,273.76,0.1486899723395669
57,275.42287,0.1476787848748015
58,278.85,0.14607770460841915
59,284.03999999999996,0.14365650711904704
60,289.99,0.140851535433736
61,296.06,0.13802856726485563
62,300.87,0.13576538022345294
63,307.88,0.13250390348327978
64,316.227766,0.12861830443735467
65,317.96,0.12801590712335723
66,327.62,0.12464327259253412
67,338.35999999999996,0.12089221643652583
68,347.84000000000003,0.11757838259323357
69,356.76,0.1144645339444818
70,363.078055,0.11226270978782162
71,365.90999999999997,0.11152280024730192
72,375.3,0.10906324867308813
73,384.91999999999996,0.10652978918534196
74,394.8,0.10395756277360263
75,404.93,0.10131019830802376
76,414.36,0.09884235925319565
77,416.86938299999997,0.09818463630799112
78,422.06,0.09714326752122801
79,429.91,0.09557008104336213
80,440.94,0.09336736430185125
81,451.21000000000004,0.09131177813781524
82,459.6,0.08963188948121721
83,470.3,0.08749358618782042
84,478.630092,0.08583096612471076
85,480.15000000000003,0.08559732502025132
86,490.2,0.08404632586735476
87,500.47,0.08247149894215597
88,506.26,0.08158758058929318
89,512.13,0.08075647401013865
90,520.45,0.07947678407580039
91,530.12,0.07798858644778946
92,539.98,0.0764615097073357
93,549.5408739999999,0.07502037993366562
94,550.02,0.07496552056632946
95,560.24,0.07379451000723077
96,569.35,0.07274320223312224
97,579.9300000000001,0.07149190450051322
98,589.35,0.07041574126032638
99,600.3100000000001,0.06912598871123422
100,610.06,0.06799661276199624
101,619.98,0.06688423874748949
102,630.0500000000001,0.06571651101068676
103,630.957344,0.06561093481963103
104,640.2900000000001,0.0647504551185103
105,650.69,0.06381005993273912
106,658.23,0.06311759752305503
107,664.32,0.06257546036523323
108,675.11,0.06158410405999563
109,684.5,0.06069785222207336
110,695.63,0.059746207781916326
111,705.3,0.058817607050531
112,716.76,0.05783953433236389
113,724.43596,0.05714090345410393
114,726.73,0.05698673391908372
115,735.15,0.05642471853136121
116,745.3799999999999,0.05576281686266749
117,755.75,0.055076319345721846
118,764.5,0.05448414352997697
119,775.13,0.053813113209134913
120,784.1099999999999,0.05322892302840475
121,795.02,0.052511833211058845
122,804.2199999999999,0.0519094226116471
123,815.41,0.05116353049779736
124,824.85,0.05057564848709659
125,831.763771,0.050009996669323487
126,834.4,0.04983997077604167
127,844.0699999999999,0.049509581747844984
128,855.8100000000001,0.0489324207177489
129,865.7199999999999,0.048482768925563885
130,875.74,0.04802334695405087
131,885.88,0.0475686131505437
132,894.08,0.047194666964275565
133,904.43,0.046675258454778594
134,914.9,0.046568460113287455
135,925.4999999999999,0.053261045287135975
136,934.0600000000001,0.06258860460488533
137,944.88,0.07819438442007787
138,954.992586,0.0892064340890065
139,955.82,0.09010835865805406
140,964.66,0.09780932286623084
141,975.83,0.053160799179051484
142,984.86,0.09333440338717776
143,993.98,0.09275726338475379
144,1005.49,0.10868113601327355
145,1014.79,0.1029249675897491
146,1024.18,0.06622991495567443
147,1036.04,0.08543624232094327
148,1045.6200000000001,0.1199299996868181
149,1055.3,0.11795406126319267
150,1065.06,0.10352726020796701
151,1074.92,0.11283513336324111
152,1084.87,0.09911854230796498
153,1094.9,0.11342797862108861
154,1096.4782,0.11283096106633861
155,1105.03,0.10967364392574787
156,1115.26,0.10722836002917302
157,1125.5800000000002,0.09984817011591274
158,1135.99,0.11208442418596706
159,1143.8700000000001,0.10489778739173344
160,1154.45,0.10747209009693756
161,1165.13,0.10876261611693565
162,1175.92,0.08793475478320713
163,1184.07,0.10407324993891728
164,1195.02,0.08453395790885915
165,1206.0800000000002,0.0714206085250744
166,1214.44,0.05462148964185194
167,1225.68,0.07829429822469637
168,1234.17,0.09862173065070609
169,1245.59,0.10424481720017972
170,1254.23,0.10152137959838042
171,1258.92541,0.09785165945429021
172,1265.83,0.09253675597521104
173,1274.61,0.10621731379071253
174,1286.4,0.10822655122177892
175,1295.3200000000002,0.09497740041474856
176,1304.3,0.09349182305520455
177,1316.3600000000001,0.10499623599995946
178,1325.49,0.1015759972591313
179,1334.68,0.0946037419657895
180,1343.93,0.10294649011993402
181,1356.3600000000001,0.10016198099085473
182,1365.76,0.09353679776371512
183,1375.23,0.09531240522530957
184,1384.76,0.09535396613439037
185,1394.3600000000001,0.08632962773220522
186,1404.03,0.08761713001875415
187,1413.76,0.08953791575278944
188,1423.5600000000002,0.08955237217555877
189,1433.43,0.08896220928706217
190,1443.36,0.09111200984605193
191,1445.43977,0.09134012335125201
192,1446.6899999999998,0.0914883044257897
193,1453.37,0.08965673924990702
194,1463.44,0.08517311974075455
195,1473.59,0.08440187543907654
196,1483.8000000000002,0.08447538504300436
197,1494.09,0.08468968985440667
198,1504.44,0.0815515685714148
199,1511.3899999999999,0.07620414597075842
200,1518.36,0.07873638467197067
201,1525.3700000000001,0.07717974597692012
202,1535.95,0.07084587466541734
203,1546.59,0.07329856725952039
204,1553.73,0.07059805202661586
205,1564.5,0.07128962808286489
206,1575.3500000000001,0.07379400934658839
207,1586.27,0.07505136016685206
208,1593.59,0.07578509665076506
209,1604.6299999999999,0.0738073752822404
210,1615.76,0.0733360247721245
211,1623.21,0.0707873847181835
212,1634.47,0.07282974767021361
213,1645.8,0.07284133017878387
214,1653.39,0.06935869923792316
215,1659.58691,0.07109897432108121
216,1664.85,0.0726092290910498
217,1672.5400000000002,0.06779520758149166
218,1676.39,0.07244364526526295
219,1684.13,0.07357904814120833
220,1695.8100000000002,0.07047012059483136
221,1703.6299999999999,0.0684869784875824
222,1715.44,0.06629357034351457
223,1723.36,0.06563339700727265
224,1735.31,0.06768945514261468
225,1743.32,0.0663380337002791
226,1755.4,0.0683235412379303
227,1763.5,0.06462546168950106
228,1775.73,0.06532096238366283
229,1783.9199999999998,0.06553317472913994
230,1796.2900000000002,0.06738981170271158
231,1804.5800000000002,0.06681267281919573
232,1817.0900000000001,0.06353578607217722
233,1825.4799999999998,0.06384582595966842
234,1833.8999999999999,0.06223594647846173
235,1846.61,0.05872694727345733
236,1855.14,0.05870124344035838
237,1863.7,0.05946387023856156
238,1876.62,0.06151987545267195
239,1885.28,0.058270171021882165
240,1893.98,0.05652442409949521
241,1905.46072,0.05794840030192942
242,1907.11,0.05815927058316908
243,1915.91,0.05672125365168418
244,1924.76,0.05560027230581585
245,1933.64,0.05625190631131745
246,1947.04,0.05774058325655636
247,1956.03,0.05508826355041441
248,1965.06,0.057649644312765695
249,1974.13,0.05834511554361023
250,1983.24,0.056204757242948024
251,1996.9899999999998,0.05493517328750287
252,2006.21,0.05549059127519711
253,2015.47,0.05437334973138459
254,2024.77,0.05529606865606532
255,2034.1200000000001,0.05354098316636262
256,2043.51,0.05426259814515316
257,2052.94,0.051927473592436955
258,2067.17,0.05221558525891081
259,2071.93,0.05452076100960762
260,2076.71,0.05309461699455105
261,2086.3,0.05399853431580784
262,2095.93,0.051913902105557894
263,2105.6,0.05207722036380119
264,2115.32,0.05215228420766105
265,2125.08,0.05222870852001417
266,2134.8900000000003,0.050039998417983844
267,2144.75,0.05044688390157008
268,2154.65,0.05121001985364958
269,2164.59,0.04981291627422231
270,2174.58,0.049454778280411615
271,2184.62,0.048931045872217485
272,2187.7616199999998,0.049267080173586206
273,2194.7,0.05003276204983056
274,2204.83,0.04894447122896731
275,2215.01,0.04731879561629328
276,2225.24,0.04637702521180847
277,2235.51,0.048064030973875044
278,2245.83,0.04670191194413085
279,2256.19,0.04531050908093802
280,2266.61,0.045541720467572266
281,2277.0699999999997,0.046087428020757895
282,2287.58,0.04656449078213275
283,2292.85,0.044748035725276934
284,2303.43,0.0449128017781167
285,2314.07,0.04373864208078353
286,2324.75,0.03862739855000174
287,2335.48,0.04170519022740917
288,2346.26,0.040562797113005825
289,2357.09,0.042360209206791705
290,2362.52,0.04021026881614142
291,2373.43,0.04075202324303006
292,2384.38,0.03873725383647007
293,2395.39,0.03996730867973716
294,2406.44,0.03899822968955563
295,2417.55,0.039259224949201164
296,2423.13,0.04062184018311854
297,2434.31,0.039494028734229
298,2445.5499999999997,0.04057012153516651
299,2456.83,0.04010365050265541
300,2462.5,0.039738527111313385
301,2473.86,0.03869537841190504
302,2485.28,0.038762453962323765
303,2496.76,0.03700533376256955
304,2502.51,0.039657142704330295
305,2511.88643,0.03737727640737012
306,2514.0600000000004,0.03685270742817258
307,2519.8599999999997,0.03719813282816887
308,2525.67,0.03638723535816514
309,2537.32,0.03658402180815768
310,2543.17,0.03626186285815393
311,2554.9100000000003,0.03775648347814641
312,2566.71,0.03696290687813886
313,2572.62,0.038074320708135066
314,2584.5,0.03764752114812746
315,2596.4300000000003,0.03716335723811981
316,2602.41,0.03621977097811598
317,2614.42,0.03575523410810829
318,2626.4900000000002,0.03661781001810055
319,2632.55,0.037535310798096674
320,2644.7,0.03947324374808889
321,2656.8999999999996,0.04026255234808107
322,2663.03,0.03761638303807714
323,2675.3199999999997,0.03842096580806927
324,2687.6699999999996,0.038576321358061355
325,2693.87,0.03692943195805739
326,2706.2999999999997,0.03758763454804943
327,2712.54,0.036051523668045427
328,2725.0600000000004,0.0355790304280374
329,2737.64,0.036579079968029345
330,2743.95,0.0334750089980253
331,2756.6099999999997,0.03404764557801719
332,2762.9700000000003,0.034897200258013114
333,2775.72,0.035693131008004954
334,2782.1200000000003,0.03400719420800085
335,2794.96,0.029852019127992624
336,2807.8599999999997,0.03088492682798436
337,2814.34,0.03488194706798021
338,2827.33,0.03599650893797189
339,2833.84,0.035109980567967713
340,2846.92,0.03404909660795934
341,2853.4900000000002,0.03271590101795513
342,2866.66,0.03516934122794669
343,2873.27,0.035576554157942454
344,2884.0315,0.035285226215278694
345,2886.5299999999997,0.035221468978063206
346,2893.1800000000003,0.03539241859570331
347,2913.2400000000002,0.037408946720494364
348,2926.68,0.03607480321088279
349,2946.97,0.035399802540494484
350,2967.4,0.035543659125214386
351,2987.97,0.035373752965042506
352,3008.6800000000003,0.035391444059978835
353,3029.54,0.03534631507110254
354,3050.53,0.03530107067625529
355,3071.68,0.03531854885867458
356,3092.97,0.03514640429620208
357,3107.2499999999995,0.03536906431723978
358,3128.79,0.03462920628174623
359,3150.4700000000003,0.03445768550136089
360,3172.31,0.03465908729824208
361,3186.9500000000003,0.033162553118129476
362,3209.05,0.03389634410306877
363,3231.29,0.03247359234311629
364,3253.69,0.03435576316043033
365,3268.71,0.035410760101325725
366,3291.3599999999997,0.03497345744561872
367,3306.56,0.034492482285938965
368,3311.31121,0.034344849427980474
369,3321.8199999999997,0.03402975834110242
370,3329.48,0.035235509324982345
371,3337.1499999999996,0.03445425386106055
372,3344.85,0.033754879053733595
373,3352.56,0.03337682779860491
374,3360.2799999999997,0.0341759400956745
375,3368.03,0.03397858304933893
376,3375.79,0.031009209555201624
377,3383.58,0.03179444671765915
378,3391.38,0.03414119743231496
379,3399.19,0.03490185169916904
380,3407.0299999999997,0.03319173662261795
381,3414.88,0.033738695098265145
382,3422.76,0.03507246423050716
383,3430.65,0.034352536914947454
384,3438.55,0.03453662315158603
385,3446.48,0.031031370044819432
386,3454.43,0.03388227404244939
387,3462.3900000000003,0.03163912159227762
388,3470.37,0.032935386246502406
389,3478.37,0.030765498005123744
390,3486.39,0.03249378686814164
391,3494.43,0.031832192835556085
392,3502.48,0.03351518235516881
393,3510.56,0.032949782531376356
394,3518.6499999999996,0.03192004625978219
395,3526.7599999999998,0.03155955709258457
396,3534.89,0.03322930502978351
397,3543.04,0.034684110071379
398,3551.21,0.03428574221737104
399,3559.39,0.03363920791556136
400,3567.6000000000004,0.03306834427034651
401,3575.82,0.030696854177329935
402,3584.0699999999997,0.02974581474090819
403,3592.3300000000004,0.029898228856684722
404,3600.61,0.03365625007685781
405,3606.07,0.03212675957711687
406,3608.8199999999997,0.03066308643164296
407,3611.57,0.033249003286169046
408,3614.31,0.030714016588496852
409,3617.0600000000004,0.03220218344302294
410,3619.8,0.031204706745350745
411,3622.5499999999997,0.03587678359987684
412,3625.3,0.036032270454402916
413,3628.04,0.034638493756730726
414,3630.79,0.031419560611256815
415,3633.5299999999997,0.03192331391358462
416,3636.28,0.028662840768110705
417,3639.0299999999997,0.0353389376226368
418,3641.7699999999995,0.030849580924964603
419,3644.52,0.030984547779490685
420,3647.2700000000004,0.03170538463401677
421,3650.01,0.034008327936344576
422,3652.7599999999998,0.034138984790870665
423,3655.5,0.032438178093198475
424,3658.25,0.03131590494772456
425,3661.0,0.03213415180225064
426,3663.74,0.032942545104578454
427,3666.4900000000002,0.03004449195910454
428,3669.23,0.03363856526143235
429,3671.98,0.03424528211595843
430,3674.73,0.031489528970484515
431,3677.47,0.030852072272812326
432,3680.2200000000003,0.03070818912733841
433,3682.96,0.03212394242966622
434,3685.71,0.033630259284192304
435,3688.46,0.029551856138718392
436,3691.2,0.0331201394410462
437,3693.95,0.03274561629557229
438,3696.69,0.03429745959790009
439,3699.44,0.03287866645242618
440,3702.19,0.03161936330695227
441,3704.9300000000003,0.030323446609280075
442,3707.68,0.03203652346380616
443,3710.4199999999996,0.03506715676613397
444,3713.17,0.03686330362066005
445,3715.9199999999996,0.03585658047518614
446,3718.66,0.042418753777513946
447,3721.41,0.06607531063204003
448,3724.15,0.10405748393436784
449,3726.9,0.13691091078889392
450,3729.65,0.11931743764342002
451,3732.39,0.07945913094574782
452,3735.1400000000003,0.048566227800273906
453,3737.88,0.034619711102601716
454,3740.6299999999997,0.0351357079571278
455,3743.38,0.033671074811653885
456,3746.12,0.03150947811398169
457,3748.8700000000003,0.03142909496850778
458,3751.62,0.032265011823033866
459,3754.36,0.03515287512536167
460,3757.11,0.035813071979887756
461,3759.8500000000004,0.03589138528221557
462,3762.6,0.03577566213674165
463,3765.35,0.03573967899126774
464,3768.09,0.03401165229359555
465,3770.8399999999997,0.03619121914812164
466,3773.5800000000004,0.03796320245044944
467,3776.33,0.03927420930497553
468,3779.0800000000004,0.04071652615950161
469,3781.82,0.04085120946182942
470,3784.5699999999997,0.0403515663163555
471,3787.31,0.03964967961868332
472,3790.06,0.0366503864732094
473,3792.81,0.034986163327735485
474,3795.5499999999997,0.03464810663006329
475,3798.3,0.03464507348458938
476,3801.04,0.034162336786917186
477,3801.8939600000003,0.03486866941596868
478,3803.7900000000004,0.036438388027433634
479,3806.54,0.040131314310808006
480,3809.2799999999997,0.04300028937133374
481,3812.03,0.04096858565470811
482,3814.77,0.040559590715233844
483,3817.52,0.039309066998608214
484,3820.27,0.039538283281982584
485,3823.01,0.03852573834250832
486,3825.76,0.03733250462588268
487,3828.5000000000005,0.03531435968640841
488,3831.25,0.03283955596978279
489,3834.0,0.03330944225315716
490,3836.7400000000002,0.03338316731368289
491,3839.49,0.03376280359705726
492,3842.23,0.034932858657582985
493,3844.98,0.03756289494095736
494,3847.7299999999996,0.04128972122433173
495,3850.47,0.04110038628485746
496,3853.22,0.04159459256823183
497,3855.9700000000003,0.0431077788516062
498,3858.71,0.04177628391213194
499,3861.46,0.043957470195506304
500,3864.2,0.04667986525603204
501,3866.9500000000003,0.0456580515394064
502,3869.7,0.043915217822780774
503,3872.4399999999996,0.04399089288330651
504,3875.19,0.04142104916668087
505,3877.93,0.039229594227206614
506,3880.6800000000003,0.03886385051058098
507,3883.43,0.037209846793955344
508,3886.17,0.03882110185448108
509,3888.92,0.03781267813785545
510,3891.6600000000003,0.036308783198381184
511,3894.41,0.03882851948175555
512,3897.16,0.039299345765129924
513,3899.9,0.03993606082565566
514,3902.6499999999996,0.040970797109030024
515,3905.3900000000003,0.04237388216955576
516,3908.14,0.042996548452930126
517,3910.8900000000003,0.04333748473630449
518,3913.63,0.042895069796830235
519,3916.3799999999997,0.04290511608020459
520,3919.12,0.04131147114073033
521,3921.87,0.0408344774241047
522,3924.62,0.03896225370747907
523,3927.3599999999997,0.035493968768004806
524,3930.11,0.03430362505137917
525,3932.85,0.033822980111904904
526,3935.6000000000004,0.03597028639527927
527,3938.35,0.03762147267865364
528,3941.0899999999997,0.04008170773917938
529,3943.84,0.040012494022553746
530,3946.58,0.04133392908307948
531,3949.33,0.041083265366453854
532,3952.08,0.04214473164982822
533,3954.82,0.04053581671035395
534,3957.57,0.03795022299372832
535,3960.32,0.034533339277102684
536,3963.06,0.03189301433762842
537,3965.81,0.03138213062100279
538,3968.55,0.03244282568152852
539,3971.2999999999997,0.032636721964902894
540,3974.05,0.03438102824827726
541,3976.79,0.036656943308802994
542,3979.54,0.039561059592177365
543,3982.28,0.0425188546527031
544,3985.0299999999997,0.04246921093607747
545,3987.78,0.04356457721945183
546,3990.52,0.04463390227997757
547,3993.27,0.04375867856335194
548,3996.0099999999998,0.044624593623877676
549,3998.76,0.04537712990725204
550,4001.5099999999998,0.04533034619062641
551,4004.2499999999995,0.044486371251152144
552,4007.0,0.04560609753452651
553,4009.74,0.04740407259505224
554,4012.4900000000002,0.04747283887842661
555,4015.24,0.04678526516180099
556,4017.98,0.04734512022232672
557,4020.73,0.04628939650570109
558,4023.4700000000003,0.04523866156622682
559,4026.22,0.046439557849601194
560,4028.9700000000003,0.044737324132975556
561,4031.71,0.0449485991935013
562,4034.4600000000005,0.04651954547687566
563,4037.2000000000003,0.046642020537401394
564,4039.95,0.04464420682077576
565,4042.7000000000003,0.045652203104150135
566,4045.44,0.04540460816467586
567,4048.19,0.04550012444805023
568,4050.93,0.045003279508575966
569,4053.68,0.043630025791950335
570,4056.43,0.045127922075324706
571,4059.1699999999996,0.04311791713585044
572,4061.92,0.04494098341922481
573,4064.67,0.045068489702599177
574,4067.4100000000003,0.04656373476312491
