,lambda (Angstroms),Total Flux (erg/s/cm^2/Angstrom)
0,100.03,4.845546230623821
1,101.89,4.8320671673542614
2,104.02,4.816631465868153
3,104.712855,4.811610478566201
4,105.96,4.764136128440358
5,107.93,4.6891452735294115
6,109.92999999999999,4.613012425904086
7,114.05999999999999,4.455798095557788
8,118.07,4.30315173606901
9,120.22644299999999,4.22106366290316
10,121.09,4.193503500276316
11,125.06,4.066802141097281
12,127.09,4.002015300005734
13,127.98,3.973611216965599
14,130.96,3.8785054108312096
15,131.85999999999999,3.8497821807906236
16,134.01,3.781165575693665
17,137.13,3.6815917115529624
18,138.038426,3.6525995682497956
19,140.0,3.6078519345917637
20,142.93,3.5410124645447327
21,146.94,3.4495359202141556
22,151.05,3.355778165301768
23,154.93,3.267267194727544
24,158.489319,3.186071633059173
25,158.9,3.1789888764588583
26,161.85000000000002,3.1281120840800307
27,166.01000000000002,3.056367183640736
28,169.86999999999998,2.989796194290814
29,173.03,2.935297664149426
30,177.06,2.8657947918488587
31,179.94,2.816125245390885
32,181.970086,2.781113630498287
33,182.01999999999998,2.7804568953282947
34,185.82999999999998,2.730327452733605
35,191.04,2.6617777425188196
36,194.14000000000001,2.620990007074321
37,198.20999999999998,2.5674396576359
38,201.9,2.5188890951229337
39,205.18,2.475733039555853
40,208.929613,2.4263981288902925
41,209.95,2.4163045910413237
42,215.84,2.3580414634922526
43,219.85000000000002,2.3183750557721012
44,222.91,2.2881059266889063
45,227.04999999999998,2.247153575576384
46,230.21,2.215895259897713
47,233.95,2.1788996581074693
48,239.88329199999998,2.120208292112874
49,239.95,2.119699792764959
50,246.11,2.072743565701499
51,251.84,2.029065127449433
52,257.11,1.988893160222098
53,260.09000000000003,1.966177323530431
54,263.71,1.9385829177292786
55,269.23,1.8965052599682812
56,274.24,1.8583152120711732
57,275.42287,1.8492984732079185
58,278.69,1.8301853335757237
59,283.87,1.7998816533589383
60,289.82,1.7650733718954132
61,295.89,1.7295630752886604
62,300.69,1.7014824455884259
63,307.7,1.6604730271236432
64,316.227766,1.6105844804631153
65,317.78000000000003,1.603802034270627
66,328.19,1.558315813895095
67,338.15999999999997,1.5147521689406087
68,347.64000000000004,1.473329577068496
69,357.38,1.4307709813949325
70,363.078055,1.4058736209680094
71,365.7,1.3972939677144518
72,375.08,1.3666002338609078
73,384.7,1.3351211607691076
74,394.57,1.3028248361187775
75,404.69,1.269710916473318
76,414.11999999999995,1.2388548255917082
77,416.86938299999997,1.2298585049149864
78,421.82,1.217488092922584
79,429.65999999999997,1.1978983894754236
80,440.68,1.1703656000736373
81,450.95000000000005,1.1447068732504326
82,460.39,1.1211202384258316
83,470.03000000000003,1.0970388025686753
84,478.630092,1.075560298026947
85,479.87,1.0731791109201088
86,489.92,1.0538694813555074
87,500.18,1.0341784383821833
88,505.97,1.0230836296902486
89,511.83,1.0121953398154064
90,520.15,0.9962542548640948
91,529.82,0.9777276693781349
92,539.67,0.9587809348475557
93,549.5408739999999,0.9401163307923275
94,549.6999999999999,0.9398879693901864
95,559.92,0.9251833447448025
96,570.33,0.9101826768549349
97,579.6,0.8965983428319694
98,590.37,0.8812212379315012
99,599.97,0.8672157663154851
100,609.7099999999999,0.8533338147509023
101,619.62,0.8393568768202022
102,629.6899999999999,0.8248694776625689
103,630.957344,0.8230460236871519
104,639.92,0.8128739957592509
105,650.32,0.8012663010269111
106,657.8499999999999,0.7927551296851307
107,665.4699999999999,0.784404086940859
108,674.72,0.7739857724625759
109,685.69,0.7611000368477909
110,695.23,0.7516123451837025
111,704.9,0.7398610131604598
112,716.35,0.7284047870657206
113,724.43596,0.7194740861771458
114,726.32,0.717957528476871
115,734.73,0.711238139290815
116,744.95,0.7033466341967021
117,755.3100000000001,0.6951841900876011
118,765.8199999999999,0.6863385716767276
119,774.6899999999999,0.6802886082985689
120,785.46,0.6714337104312892
121,794.56,0.664888429457079
122,805.6099999999999,0.6563678975598237
123,814.9399999999999,0.6491805989895622
124,824.38,0.6425840302646669
125,831.763771,0.6341374031255766
126,835.85,0.6303532119991733
127,845.52,0.6287748909342565
128,855.31,0.6231299657403027
129,865.22,0.6185884164173117
130,875.24,0.6136139616427031
131,885.37,0.608841781416477
132,895.62,0.6037000170612139
133,906.0,0.5973102798994937
134,914.3800000000001,0.5995605082217271
135,924.9699999999999,0.7418000088341918
136,935.68,0.9398715753176192
137,944.33,1.2706938693495191
138,954.992586,1.5620513191900713
139,955.27,1.5696355805376934
140,964.11,1.6505640879791286
141,975.27,0.7130561190929762
142,984.3000000000001,1.3878885483006864
143,995.69,1.4665296636579201
144,1004.91,1.9601298146319055
145,1014.2099999999999,1.924491090560112
146,1025.95,1.138699677592063
147,1035.44,1.4524788752865447
148,1045.02,2.3751738885545253
149,1054.6899999999998,2.3175137173960048
150,1064.45,1.8732657618109825
151,1074.3,2.1586560217994597
152,1084.24,1.758132497361435
153,1094.27,2.2300581884969093
154,1096.4782,2.2078143549747216
155,1104.3999999999999,2.128921695745269
156,1114.6200000000001,2.025839232849032
157,1124.93,1.8255132776180925
158,1135.34,2.2584106642374833
159,1145.8400000000001,2.073015558522171
160,1153.79,2.1746477356234353
161,1164.46,2.2058968110536847
162,1175.24,1.584402062519298
163,1186.11,2.1418168216502083
164,1194.33,1.585460521747364
165,1205.3899999999999,1.2275208303939025
166,1213.74,1.0146338748964876
167,1224.97,1.5972024646885874
168,1236.31,2.1936794305160507
169,1244.88,2.3235733270893624
170,1256.39,2.2000674740623873
171,1258.92541,2.1277796383948786
172,1265.1000000000001,1.95264985914685
173,1273.87,2.3747451983383274
174,1285.66,2.4363413852331415
175,1294.57,1.9309001676956346
176,1303.54,1.945834854417134
177,1315.6100000000001,2.3500819278539793
178,1324.73,2.2215183752229954
179,1333.91,1.9869537268510187
180,1346.25,2.302237369453394
181,1355.5800000000002,2.231971481728934
182,1364.98,2.0061588156399814
183,1374.44,2.0657210538100355
184,1383.97,2.074283513615598
185,1393.5600000000002,1.7589158776801666
186,1406.46,1.804850293366604
187,1416.2,1.9006914180786896
188,1426.02,1.926700081802784
189,1435.9099999999999,1.9342669671623862
190,1442.53,2.0049060704061237
191,1445.43977,2.0107235887493697
192,1445.86,2.0116104909297663
193,1455.8799999999999,1.9508168352174267
194,1465.97,1.8129371859023062
195,1476.1299999999999,1.8209215429844052
196,1486.37,1.83596233594904
197,1496.6699999999998,1.8404797058255773
198,1503.58,1.7315234801796424
199,1510.52,1.563248542989659
200,1517.49,1.6500258942556263
201,1524.49,1.623209533977545
202,1535.06,1.4227404999576416
203,1545.7,1.468578472334958
204,1556.42,1.41984988059481
205,1563.6,1.475067251052435
206,1574.44,1.5468348131360916
207,1585.3500000000001,1.5982793816169674
208,1596.34,1.6047323859803795
209,1603.71,1.587383916659028
210,1614.83,1.5876345043315614
211,1626.02,1.5247260984013138
212,1633.53,1.6044976418744008
213,1644.85,1.6109348192532749
214,1656.25,1.5287224325146846
215,1659.58691,1.5679634281649675
216,1663.9,1.619016168430187
217,1671.58,1.5022245008565542
218,1675.43,1.6265303667213349
219,1683.1599999999999,1.6607156974056863
220,1694.83,1.57589769081919
221,1706.5800000000002,1.5223922814454682
222,1714.4499999999998,1.4349724072521755
223,1726.3400000000001,1.4217977930008092
224,1734.31,1.4967889153234848
225,1746.3300000000002,1.4629238965428777
226,1754.39,1.5226988157299246
227,1766.55,1.436674592071673
228,1774.6999999999998,1.4268633081230917
229,1787.01,1.4555940792387922
230,1795.25,1.5123565921545823
231,1803.54,1.5138511033283566
232,1816.04,1.3866026678243975
233,1824.4299999999998,1.42624217551414
234,1837.0700000000002,1.377391535132536
235,1845.55,1.2805788396866502
236,1854.07,1.2667689428471516
237,1866.92,1.2916164951490814
238,1875.54,1.386716594825551
239,1884.2,1.271121493108408
240,1892.89,1.2120829903460555
241,1905.46072,1.2912161929123356
242,1906.01,1.2947003548560378
243,1914.8100000000002,1.227383348238409
244,1923.65,1.1981260643179734
245,1936.98,1.2557914031574064
246,1945.9199999999998,1.276852925979952
247,1954.91,1.1848449521739883
248,1968.46,1.2838931658479806
249,1977.5400000000002,1.3185742181107005
250,1982.1,1.2474136055906568
251,1995.8400000000001,1.2167008520763138
252,2005.05,1.2590847531049094
253,2014.31,1.221418057504996
254,2023.6100000000001,1.276618084602275
255,2032.95,1.1906818343967465
256,2047.04,1.219467904482839
257,2056.49,1.1465947416945903
258,2065.98,1.1655901016035342
259,2075.52,1.2424284648839685
260,2080.2999999999997,1.159152427198484
261,2085.09,1.2049228701872976
262,2094.72,1.1460357595364155
263,2104.39,1.165128871582726
264,2114.1,1.173005506326229
265,2123.86,1.1809988444412227
266,2133.66,1.1341787052534094
267,2143.51,1.1217926694370866
268,2153.41,1.1586645369922544
269,2163.35,1.136984927244615
270,2173.33,1.126697640194168
271,2183.36,1.094799456515212
272,2187.7616199999998,1.109528822707974
273,2193.44,1.1287729941243703
274,2203.57,1.1079961025400982
275,2213.74,1.0748921406040617
276,2223.9500000000003,1.044897708316261
277,2234.2200000000003,1.0730685205008141
278,2244.53,1.049229462333603
279,2254.89,1.0179735412266868
280,2265.3,1.0370988571800654
281,2275.76,1.0443153101937388
282,2286.2599999999998,1.049487992855648
283,2296.81,0.998352012577852
284,2307.42,1.00125617677241
285,2312.7400000000002,0.9662170199877772
286,2323.41,0.8185315286546888
287,2334.13,0.9238926743818952
288,2344.91,0.9193133645814553
289,2355.73,0.9363482844292513
290,2366.61,0.904984048749401
291,2377.5299999999997,0.9039473427177867
292,2383.01,0.8759917045260974
293,2394.01,0.9024753577909546
294,2405.06,0.8756407481161068
295,2416.16,0.8813806755015536
296,2427.31,0.8941472399472954
297,2432.91,0.8663040907003136
298,2444.14,0.8891586144425271
299,2455.42,0.8778150752450351
300,2466.76,0.8716287805198971
301,2472.44,0.851070590569387
302,2483.85,0.8633190477286619
303,2495.32,0.7874891493602904
304,2506.84,0.8578352880522135
305,2511.88643,0.8178546269766791
306,2512.62,0.8120595634483554
307,2518.41,0.8403831973303427
308,2524.21,0.8175212661585858
309,2535.8599999999997,0.8183017785463497
310,2547.57,0.7987116006116473
311,2553.44,0.8186888140636793
312,2565.23,0.8083725156990216
313,2577.07,0.8282644920656417
314,2583.01,0.8198358501414631
315,2594.93,0.814186006078128
316,2606.91,0.7977569716923265
317,2612.92,0.7896293743919369
318,2624.98,0.7949356195761801
319,2637.1,0.7940613744379569
320,2643.18,0.8108512217613565
321,2655.38,0.806861856193178
322,2667.6299999999997,0.7722309653562773
323,2673.78,0.7853981573034661
324,2686.1200000000003,0.7784758809828658
325,2692.32,0.7601199476613325
326,2704.74,0.759237650910777
327,2717.23,0.7466940987840106
328,2723.4900000000002,0.7462803751400109
329,2736.06,0.7541638025832892
330,2742.37,0.7166777536705674
331,2755.03,0.714421295630146
332,2767.7400000000002,0.7190911123210028
333,2774.12,0.73130520803207
334,2786.9300000000003,0.7233637741854826
335,2793.35,0.6679802096815722
336,2806.25,0.6879158903512851
337,2812.7200000000003,0.7173878005786527
338,2825.7,0.7137104608184104
339,2832.21,0.6874620108308004
340,2845.29,0.6839102205331139
341,2851.8500000000004,0.6808207452767817
342,2865.01,0.6905433345491401
343,2878.23,0.6803273334990318
344,2884.0315,0.6787763971098758
345,2884.87,0.6785686192549082
346,2898.1800000000003,0.6713753649157329
347,2911.5600000000004,0.6772535227626024
348,2931.74,0.6658362929681201
349,2952.0600000000004,0.6533316875457276
350,2972.5299999999997,0.6485408368077171
351,2993.13,0.6400445801295042
352,3006.95,0.6332036717172275
353,3027.7900000000004,0.6285220425340257
354,3048.7799999999997,0.6190519680352059
355,3069.9100000000003,0.6108858179084758
356,3091.1899999999996,0.6028112224661278
357,3112.62,0.5948283817081618
358,3126.9900000000002,0.585022040471952
359,3148.66,0.5805984272089971
360,3170.4900000000002,0.5695615989427163
361,3192.4599999999996,0.5565864950485251
362,3207.2000000000003,0.5548042753671243
363,3229.43,0.5463183595925286
364,3251.82,0.542087728814607
365,3266.83,0.5351559275650936
366,3289.47,0.5289495545944752
367,3311.31121,0.5230475538809931
368,3312.27,0.5228016020245795
369,3319.91,0.533714628464755
370,3327.56,0.535509122217025
371,3335.23,0.5311245505934838
372,3342.9199999999996,0.5108325135941316
373,3350.63,0.5295592112189684
374,3358.35,0.4977625761558997
375,3366.0899999999997,0.5100195757170198
376,3373.85,0.5029597099023291
377,3381.63,0.4998104787118271
378,3389.43,0.5151145821455141
379,3397.2400000000002,0.5148415528912955
380,3405.07,0.494241458261266
381,3412.9199999999996,0.4958602982554254
382,3420.7900000000004,0.5013149728737737
383,3428.6699999999996,0.5010418148042164
384,3436.5800000000004,0.5017303586709426
385,3444.5,0.4890989698497633
386,3452.44,0.5011779156527729
387,3460.4,0.48112709607997145
388,3468.3799999999997,0.4799323111313589
389,3476.37,0.4760050934948409
390,3484.38,0.4730114104825117
391,3492.42,0.4827760294064661
392,3500.47,0.4769844156425148
393,3508.54,0.4641355365027525
394,3516.62,0.4612139246750847
395,3524.73,0.4689104147837003
396,3532.8599999999997,0.4668380395165049
397,3541.0000000000005,0.4701384315614039
398,3549.1600000000003,0.4734732582304918
399,3557.34,0.46687941952376866
400,3565.54,0.4701879154412345
401,3573.77,0.4627494132949838
402,3582.0,0.44516321114873303
403,3590.26,0.43568911093876567
404,3598.54,0.4445855453529873
405,3606.83,0.4451459470793034
406,3613.6600000000003,0.4746719212398267
407,3616.37,0.4939181628174283
408,3619.0699999999997,0.45405523708293527
409,3621.7700000000004,0.4609038113484423
410,3624.4700000000003,0.5066285856139494
411,3627.17,0.5087063598794564
412,3629.87,0.46884343414496343
413,3632.57,0.46230130841047046
414,3635.27,0.43049148267597753
415,3637.97,0.4381682569414846
416,3640.6699999999996,0.4464057312069916
417,3643.3700000000003,0.46167470547249867
418,3646.07,0.4458649797380057
419,3648.77,0.40022845400351276
420,3651.47,0.4401363282690198
421,3654.17,0.41928800253452686
422,3656.87,0.39568677680003383
423,3659.5699999999997,0.41118625106554096
424,3662.28,0.38714079264314244
425,3664.98,0.38571826690864947
426,3667.68,0.40881604117415654
427,3670.3799999999997,0.41960071543966354
428,3673.0800000000004,0.38159378970517055
429,3675.78,0.42013136397067763
430,3678.48,0.4247688382361847
431,3681.18,0.4334546125016917
432,3683.88,0.4051885867671988
433,3686.58,0.3895781610327058
434,3689.2799999999997,0.42743683529821286
435,3691.9800000000005,0.4455646095637199
436,3694.6800000000003,0.3952257838292269
437,3697.38,0.438882958094734
438,3700.08,0.401274532360241
439,3702.7799999999997,0.40517090662574806
440,3705.48,0.4076907808912551
441,3708.19,0.4349593224688566
442,3710.89,0.5090285967343636
443,3713.59,0.4515648709998707
444,3716.29,0.5654758452653778
445,3718.99,1.0410328195308847
446,3721.69,2.064732893796392
447,3724.3900000000003,3.477322068061899
448,3727.09,4.171427242327406
449,3729.79,3.552443416592913
450,3732.49,2.23789359085842
451,3735.19,1.150298765123927
452,3737.89,0.6314562393894341
453,3740.5899999999997,0.5537196136549412
454,3743.2900000000004,0.5041904879204482
455,3745.9900000000002,0.48367226218595516
456,3748.69,0.4542165364514622
457,3751.39,0.4546874107169693
458,3754.1000000000004,0.41084235229457083
459,3756.8,0.4203565265600779
460,3759.5,0.4213754008255849
461,3762.2,0.42869097509109194
462,3764.9,0.42069154935659897
463,3767.6,0.442612123622106
464,3770.2999999999997,0.4223928978876131
465,3773.0000000000005,0.4710574721531201
466,3775.7000000000003,0.44660934641862715
467,3778.4,0.40494642068413417
468,3781.1,0.4479869949496412
469,3783.7999999999997,0.44853876921514824
470,3786.5,0.4242961434806553
471,3789.2,0.40882891774616237
472,3791.9,0.4629806920116694
473,3794.6000000000004,0.4258268662771764
474,3797.3,0.46401574054268346
475,3800.0099999999998,0.48711118212028504
476,3801.8939600000003,0.47535406756666954
477,3802.71,0.4702693303070422
478,3805.4100000000003,0.4414252567113848
479,3808.11,0.4531826831157274
480,3810.81,0.46062400952007
481,3813.5099999999998,0.4334490359244126
482,3816.21,0.4318407623287552
483,3818.91,0.4485247887330978
484,3821.6099999999997,0.43409261513744046
485,3824.3100000000004,0.438295241541783
486,3827.01,0.4515101679461256
487,3829.71,0.45815429435046817
488,3832.41,0.4389887207548108
489,3835.11,0.5109417471591534
490,3837.81,0.47467357356349604
491,3840.5099999999998,0.4432757999678386
492,3843.21,0.43494102637218124
493,3845.92,0.4484714165780214
494,3848.62,0.471919142982364
495,3851.3199999999997,0.4723661693867066
496,3854.0200000000004,0.4573423957910492
497,3856.7200000000003,0.4528879221953918
498,3859.42,0.4844074485997344
499,3862.12,0.6021250750040771
500,3864.8199999999997,0.8781573014084196
501,3867.52,1.0166087278127622
502,3870.22,1.0361018542171048
503,3872.92,0.7657968806214475
504,3875.6200000000003,0.5193394070257901
505,3878.32,0.45018013343013263
506,3881.02,0.4702522598344753
507,3883.72,0.5642656862388179
508,3886.42,0.6520633126431605
509,3889.12,0.685507439047503
510,3891.83,0.5766341292533432
511,3894.5299999999997,0.4790871556576859
512,3897.23,0.4316580820620285
513,3899.93,0.4351445084663711
514,3902.63,0.41270923487071365
515,3905.3300000000004,0.4182820612750562
516,3908.03,0.42802158767939885
517,3910.73,0.4274472140837415
518,3913.43,0.4186890404880841
519,3916.13,0.4632067668924267
520,3918.83,0.4521066932967693
521,3921.5299999999997,0.4101023197011119
522,3924.23,0.45523054610545444
523,3926.9300000000003,0.41371187250979713
524,3929.63,0.41337419891413973
525,3932.33,0.3876814253184823
526,3935.0299999999997,0.3950542517228249
527,3937.7400000000002,0.4171921419286651
528,3940.44,0.43879006833300765
529,3943.14,0.43947379473735027
530,3945.8399999999997,0.42905892114169286
531,3948.54,0.43053984754603547
532,3951.24,0.44332497395037807
533,3953.94,0.41565170035472065
534,3956.6400000000003,0.46187602675906325
535,3959.34,0.4285039531634059
536,3962.04,0.5366364795677485
537,3964.74,0.6924398059720911
538,3967.44,0.8306422323764338
539,3970.14,0.7936454587807764
540,3972.84,0.647966385185119
541,3975.54,0.5019884115894615
542,3978.2400000000002,0.4209643379938041
543,3980.94,0.4392053643981467
544,3983.65,0.4018888546039869
545,3986.3500000000004,0.45240418100832946
546,3989.05,0.4411734074126721
547,3991.75,0.45249493381701467
548,3994.45,0.4235760602213573
549,3997.15,0.4301765866256999
550,3999.85,0.4179243130300425
551,4002.55,0.4402322394343851
552,4005.25,0.43418956583872775
553,4007.9500000000003,0.4569522922430703
554,4010.65,0.4218425186474129
555,4013.35,0.40197934505175553
556,4016.0499999999997,0.42633027145609814
557,4018.75,0.42271649786044074
558,4021.45,0.4471421242647834
559,4024.15,0.4156634506691259
560,4026.8500000000004,0.41289667707346855
561,4029.56,0.4337390672793088
562,4032.2599999999998,0.43041809368365136
563,4034.96,0.422351220087994
564,4037.6600000000003,0.4172239464923365
565,4040.36,0.42393657289667913
566,4043.06,0.42792119930102174
567,4045.7599999999998,0.4053613257053643
568,4048.46,0.41670775210970695
569,4051.16,0.41253347851404953
570,4053.86,0.4194266049183921
571,4056.56,0.41356453132273474
572,4059.26,0.40778955772707737
573,4061.96,0.42576278413142
574,4064.66,0.4258424105357626
575,4067.3599999999997,0.4170405369401052
576,4070.06,0.4253163633444478
577,4072.76,0.4329134897487904
578,4075.47,0.42232217995463056
579,4078.17,0.44363360635897314
580,4080.87,0.43105743276331576
581,4083.57,0.41950285916765834
582,4086.27,0.41262548557200096
583,4088.9700000000003,0.41512161197634356
584,4091.67,0.42927063838068613
585,4094.37,0.4956867647850288
586,4097.07,0.5951932911893714
587,4099.7699999999995,0.7561409175937139
588,4102.469999999999,0.7595028439980566
589,4105.17,0.6390668704023992
590,4107.87,0.4886668968067418
591,4110.57,0.4209027232110844
592,4113.27,0.380305849615427
593,4115.97,0.3916211760197696
594,4118.67,0.3877147024241122
