,lambda (Angstroms),Total Flux (erg/s/cm^2/Angstrom)
0,100.1,4.266348588891426
1,101.96000000000001,4.25448221786906
2,104.10000000000001,4.240827940904616
3,104.712855,4.236917978910868
4,106.03,4.192769459488425
5,108.0,4.126738771995544
6,110.01,4.059374292944178
7,113.88000000000001,3.929660810198263
8,117.88,3.7955889592897725
9,120.22644299999999,3.7169967559663792
10,120.9,3.698085131542385
11,124.86,3.586819124673326
12,126.89,3.5297804221467626
13,128.07,3.4966254743347713
14,131.05,3.412894312509569
15,131.96,3.387340741304559
16,134.1,3.327211262745522
17,136.91,3.2482773599432355
18,138.038426,3.2165725304004917
19,140.1,3.1751737459406546
20,143.03,3.11650765317017
21,147.04,3.0362524977941834
22,151.16,2.953557260995414
23,155.04,2.875694611064534
24,158.489319,2.8064814664636692
25,159.01,2.798585446322067
26,161.97,2.753696058534576
27,166.11999999999998,2.690767355172046
28,169.99,2.6320797865448196
29,173.15,2.584165719389255
30,177.19,2.522904873494166
31,180.07,2.4792365310739046
32,181.970086,2.450430848440441
33,182.14999999999998,2.448351120039211
34,185.97,2.404189978987947
35,191.18,2.3439506088421127
36,193.83999999999997,2.313217919675526
37,197.89000000000001,2.2664029124143683
38,202.04,2.218426135801084
39,204.85,2.185955659106306
40,208.929613,2.1387399499532376
41,210.10000000000002,2.128559748188126
42,215.99,2.0774929111601854
43,220.01,2.0426022717217602
44,223.07,2.016013595029825
45,227.21,1.9800815596230885
46,229.84,1.958584144900935
47,234.11999999999998,1.9240491993645024
48,239.88329199999998,1.8760348262122242
49,240.11999999999998,1.8745357572689454
50,246.28,1.8328160341409991
51,252.01999999999998,1.7948726771581398
52,256.7,1.761617970827168
53,260.28,1.7392583813047575
54,263.9,1.7155274326256722
55,268.8,1.6826825359329871
56,273.8,1.6491212823486154
57,275.42287,1.638206554845186
58,278.89,1.6202999835314016
59,284.08,1.5936539478866394
60,290.02,1.5626342692238486
61,296.1,1.5314010401043587
62,300.91,1.506153489842065
63,307.92,1.4702738842602192
64,316.227766,1.4276908153111874
65,318.01000000000005,1.4208793102761734
66,327.66999999999996,1.383624823626146
67,337.62,1.3451694711222348
68,347.88,1.3054825353262427
69,356.81,1.2711027481704713
70,363.078055,1.247043140350074
71,365.96,1.2387653287464173
72,375.34999999999997,1.211542226992199
73,384.97999999999996,1.1832937265957002
74,394.84999999999997,1.1550509885569213
75,404.98,1.125861883405672
76,414.40999999999997,1.0985130777110736
77,416.86938299999997,1.0913467143605644
78,422.12,1.0796226250039014
79,429.97,1.0621437227950377
80,441.0,1.037817869530863
81,451.27,1.0150202993302222
82,459.66,0.9962952936025317
83,470.36,0.972580030655418
84,478.630092,0.954311942500274
85,480.21000000000004,0.9516247784067714
86,490.27000000000004,0.9342896491754054
87,500.53000000000003,0.9169263637426205
88,506.33,0.9069063599014752
89,512.19,0.8974207568999037
90,520.52,0.8831284619608105
91,530.1899999999999,0.8664962677722111
92,540.05,0.8494060547422638
93,549.5408739999999,0.8331556380002744
94,550.09,0.8324358019257164
95,560.3199999999999,0.8193851288218927
96,569.42,0.8076229353052948
97,580.01,0.7937532472887266
98,589.4300000000001,0.7814956327385779
99,600.39,0.767013834839467
100,610.15,0.7537692853161708
101,620.06,0.7415813762458978
102,630.14,0.728341833689051
103,630.957344,0.7272876404075688
104,640.37,0.7176659414351599
105,649.28,0.7083774192892899
106,658.32,0.698926234697969
107,664.41,0.6927630392918693
108,675.1999999999999,0.6816509313194855
109,684.5999999999999,0.6717301471869175
110,695.7199999999999,0.6604257924683903
111,705.4000000000001,0.650190918914852
112,715.21,0.6402963099158637
113,724.43596,0.6307878990002135
114,726.8299999999999,0.6289519812209993
115,735.2499999999999,0.6224834891326801
116,745.48,0.6145714669149243
117,755.85,0.6065866232396429
118,764.6,0.5995543341442993
119,775.24,0.5916866403723615
120,784.21,0.5846919642723352
121,795.12,0.5764037444037411
122,804.33,0.5693633976622422
123,815.52,0.5608019498785973
124,824.96,0.553571227314021
125,831.763771,0.5481674927653326
126,834.52,0.5465071751120277
127,844.1800000000001,0.5411952311712749
128,855.92,0.534441028100422
129,865.8299999999999,0.5287822354469167
130,875.86,0.5230325586512902
131,886.0,0.5172064401420529
132,894.2,0.5124977767637738
133,904.55,0.5065403922558243
134,915.03,0.5005965981772436
135,925.62,0.49670231038505164
136,934.19,0.49402234915189924
137,945.01,0.4899803515039752
138,954.992586,0.48537499331768696
139,955.95,0.48494504422883167
140,964.79,0.4808529937097031
141,975.96,0.469139622822976
142,985.0,0.4682762329074871
143,994.11,0.46277902460327197
144,1005.62,0.4579061655427324
145,1014.93,0.4525791038421569
146,1024.32,0.44334159198303724
147,1036.18,0.4393387799788669
148,1045.76,0.4368646154932049
149,1055.44,0.4310890003093627
150,1065.21,0.4241932031971583
151,1075.06,0.4195102199264098
152,1085.01,0.41218781295748125
153,1095.05,0.4084304760601903
154,1096.4782,0.40756418960234253
155,1105.18,0.40316229066498827
156,1115.41,0.3982592034779261
157,1125.73,0.39259964713672557
158,1136.1499999999999,0.3890744328464824
159,1144.02,0.3849050812568266
160,1154.61,0.38013598745321087
161,1165.29,0.37522985449545676
162,1176.07,0.3679316155886601
163,1184.22,0.36612947674168483
164,1195.18,0.35971164852661136
165,1206.24,0.35347247236249524
166,1214.6,0.3476018298225305
167,1225.84,0.3453659233501377
168,1234.34,0.34288600968151317
169,1245.76,0.3379781879008436
170,1254.3899999999999,0.3337875458984637
171,1258.92541,0.33152573814877756
172,1266.0,0.32892160804365367
173,1274.78,0.32691548761684214
174,1283.6100000000001,0.32414290938919454
175,1295.49,0.31907478231054764
176,1304.47,0.31612286368039183
177,1313.51,0.31411143248923284
178,1325.6699999999998,0.309801566125904
179,1334.86,0.3061695315322368
180,1344.1100000000001,0.3038432683775663
181,1356.54,0.29958232348972275
182,1365.95,0.29593206317237686
183,1375.42,0.2928996452940278
184,1384.95,0.28977083585467545
185,1394.55,0.2853621580941526
186,1404.2199999999998,0.2821939520124594
187,1413.9499999999998,0.2798259093697628
188,1423.75,0.27652284140589567
189,1433.62,0.2733934481208582
190,1443.5600000000002,0.2702965425146501
191,1445.43977,0.2696767308999686
192,1446.89,0.2693405678183664
193,1453.5600000000002,0.26761581040074056
194,1463.6399999999999,0.264972313637672
195,1473.7900000000002,0.2626244954804152
196,1484.0,0.2603300534138547
197,1494.29,0.257934322468222
198,1504.6499999999999,0.2552966951284015
199,1511.59,0.2532345326189077
200,1518.57,0.251849710169878
201,1525.58,0.2501721652661963
202,1536.15,0.24712356074381178
203,1543.2399999999998,0.24541158396105817
204,1553.94,0.24281938713518159
205,1564.71,0.2406454269151172
206,1575.56,0.23843749281598078
207,1586.48,0.23605076032265632
208,1593.8,0.23445125638757075
209,1604.85,0.23175179859075437
210,1615.9699999999998,0.2291792753997501
211,1623.4299999999998,0.22730058767628852
212,1634.68,0.22494431118179223
213,1646.02,0.22237743932333995
214,1653.6100000000001,0.2204161352963864
215,1659.58691,0.21919727130307726
216,1665.08,0.21844959996583163
217,1672.76,0.21677950525498568
218,1676.6200000000001,0.21690343578052404
219,1684.3600000000001,0.21572016221256213
220,1696.03,0.21354312500350336
221,1703.8600000000001,0.21217877464986745
222,1715.67,0.21022559610753802
223,1723.5900000000001,0.2089566689682282
224,1735.5400000000002,0.20739128009262808
225,1743.5500000000002,0.20598229816764427
226,1755.6299999999999,0.20440702026829297
227,1763.74,0.2026049892481158
228,1775.96,0.20084433101549382
229,1784.1599999999999,0.19965543120964271
230,1796.53,0.19817552333423077
231,1804.82,0.19674141074270568
232,1813.15,0.19514434991310328
233,1825.72,0.19318013684730467
234,1834.1499999999999,0.191674645922509
235,1846.86,0.1890278805234398
236,1855.39,0.18800921650345076
237,1863.95,0.1870909555549038
238,1876.87,0.18515766165592867
239,1885.53,0.18352935461218833
240,1894.24,0.18228905602085138
241,1902.98,0.18097510250095641
242,1905.46072,0.18058456227063518
243,1916.17,0.1793522090135921
244,1925.02,0.17793288171735916
245,1933.9,0.1762503971963932
246,1942.8300000000002,0.17659559996753893
247,1956.29,0.17486675280400274
248,1965.3200000000002,0.1745703481593718
249,1974.4,0.17330333280685256
250,1983.51,0.17235828422960037
251,1997.2599999999998,0.1707284825603119
252,2006.48,0.1694805588257053
253,2015.74,0.16848460712478816
254,2025.04,0.16692443745756028
255,2034.39,0.16654620208244408
256,2043.78,0.16598743974101726
257,2053.21,0.16444299343327978
258,2062.69,0.16322536741765398
259,2072.21,0.1630486454357175
260,2076.99,0.16482514296159398
261,2086.58,0.16482195278861383
262,2096.21,0.16293359564932308
263,2105.88,0.16137329154372163
264,2115.6,0.16118818873023188
265,2125.37,0.15918056720885382
266,2135.1800000000003,0.157346981721165
267,2145.03,0.15808493326716563
268,2154.94,0.1569335873637003
269,2164.88,0.1545665762355019
270,2174.8700000000003,0.15352614639941523
271,2184.91,0.15413845785544025
272,2187.7616199999998,0.1538879230426594
273,2195.0,0.15352397500357431
274,2205.1299999999997,0.15227353270916974
275,2215.31,0.14936798454164368
276,2225.53,0.14960523447562046
277,2235.81,0.15162333256185156
278,2246.13,0.15006683674958546
279,2256.49,0.14672377703882225
280,2266.91,0.14542820148031327
281,2277.37,0.1453793820233071
282,2282.62,0.1476911653455555
283,2293.16,0.144863038091555
284,2303.74,0.14602896693905743
285,2314.38,0.14359978993881406
286,2325.06,0.1404425550400736
287,2335.79,0.13897142826821166
288,2346.57,0.13582332662322827
289,2357.41,0.13948678113049917
290,2362.84,0.1350437759095103
291,2373.75,0.1360041325944112
292,2384.7,0.13199080238081493
293,2395.71,0.13234084831947285
294,2406.77,0.13143756438500942
295,2412.32,0.1320175864685291
296,2423.4500000000003,0.1357786447116956
297,2434.6400000000003,0.13480938910711637
298,2445.87,0.13610754960404003
299,2457.16,0.13584660425321793
300,2462.83,0.13377946664124615
301,2474.2,0.13123476349342972
302,2485.62,0.12657258847249186
303,2497.0899999999997,0.12685433857843256
304,2502.85,0.13104767619484217
305,2511.88643,0.12481653845462595
306,2514.4,0.1231336485995469
307,2520.2000000000003,0.12142849828818168
308,2526.0,0.12162374697681647
309,2537.66,0.12404448764741675
310,2543.5099999999998,0.12424061324716047
311,2555.25,0.130052807975535
312,2567.05,0.12560161899724023
313,2572.97,0.12841332327253646
314,2584.8399999999997,0.1260819549697942
315,2596.77,0.12403365296038263
316,2602.76,0.12198579791123132
317,2614.77,0.12017381095959404
318,2626.8399999999997,0.12303399030128748
319,2632.9,0.1311997459276886
320,2645.0499999999997,0.13810110032715633
321,2657.26,0.1475166710199547
322,2663.39,0.1338993473219084
323,2675.68,0.13657001307248107
324,2688.03,0.14014394511638442
325,2694.23,0.13076291209389057
326,2706.6600000000003,0.13551518919556818
327,2712.8999999999996,0.12695449370196155
328,2725.42,0.12231890024363522
329,2738.0,0.12621888307863963
330,2744.32,0.11591319264280717
331,2756.98,0.11986755053558586
332,2763.34,0.12488901762864055
333,2776.09,0.1258807349614153
334,2782.4900000000002,0.11552318958335711
335,2795.34,0.1062667597383497
336,2801.7799999999997,0.1073222288891787
337,2814.7100000000005,0.12070225910194551
338,2827.71,0.12975420599026488
339,2834.2200000000003,0.1273605788166463
340,2847.31,0.11873160514496173
341,2853.87,0.1093851498824521
342,2867.04,0.1253547512685418
343,2873.6499999999996,0.1343594379171411
344,2884.0315,0.1311573555463833
345,2886.92,0.1303161142639683
346,2893.5699999999997,0.13715534902000975
347,2906.93,0.15115976701109446
348,2927.0800000000004,0.1433141295425583
349,2947.3700000000003,0.1388509318583599
350,2967.7999999999997,0.1398782039584992
351,2988.3700000000003,0.13992479584297618
352,3009.08,0.13940157751179091
353,3029.94,0.1416258153781103
354,3050.9399999999996,0.14351525302876744
355,3072.09,0.14677904687692925
356,3093.39,0.14437257692259578
357,3107.66,0.15200965851187564
358,3129.21,0.14634054888671663
359,3150.8999999999996,0.14499706904589535
360,3172.74,0.15050313540257876
361,3187.38,0.14149873427903686
362,3209.48,0.14693924737806174
363,3231.7200000000003,0.13654860026142432
364,3246.64,0.1571084287065579
365,3269.14,0.16871537833226194
366,3291.81,0.16610055698180465
367,3307.0,0.16010756858244662
368,3311.31121,0.15810194806191402
369,3322.26,0.15314053705692654
370,3329.92,0.16268432682981032
371,3337.6,0.15817146070131777
372,3345.2900000000004,0.15718252162213708
373,3353.0,0.15080579664158014
374,3360.74,0.16154516280895875
375,3368.48,0.15856991897633738
376,3376.25,0.14036961629165157
377,3384.03,0.14483089065627763
378,3391.83,0.15960810911952739
379,3399.65,0.16176107168140086
380,3407.4900000000002,0.15932805834189806
381,3415.34,0.15580563205170714
382,3423.21,0.1706216598601399
383,3431.11,0.16599977881650826
384,3439.02,0.16490465482218847
385,3446.94,0.13484951787718055
386,3454.89,0.1631571220801082
387,3462.85,0.1474718333323477
388,3470.84,0.15661333573252278
389,3478.84,0.13973256518200972
390,3486.86,0.15419731873012038
391,3494.9,0.14598195637685477
392,3502.9500000000003,0.162739421072901
393,3511.03,0.16249367691688282
394,3519.12,0.16140456981017648
395,3527.23,0.1411458868020939
396,3535.36,0.16090848789263498
397,3543.52,0.17411982013111166
398,3551.68,0.17032767236958835
399,3559.87,0.1642224157560006
400,3568.08,0.15824976324103657
401,3576.3,0.1477563877753844
402,3584.55,0.12886663345766783
403,3592.81,0.1403104361892631
404,3601.09,0.17259040301948206
405,3609.39,0.1527816039483248
406,3617.71,0.1609347889757912
407,3626.05,0.16462714810188134
408,3634.4100000000003,0.15046897132659517
409,3642.7900000000004,0.18033449864993273
410,3651.19,0.15328353007189405
411,3659.6,0.1862603485431672
412,3668.04,0.1819290981623759
413,3676.4999999999995,0.18684406188020836
414,3684.9700000000003,0.16810683264735266
415,3693.47,0.17824902456243252
416,3701.9800000000005,0.18661422352682425
417,3710.52,0.14969862363915157
418,3719.0699999999997,0.19006147080079072
419,3727.64,0.16286601206105364
420,3736.23,0.14911121741994024
421,3744.85,0.17109124392676242
422,3753.48,0.13173941748289647
423,3762.13,0.15030140513765422
424,3770.81,0.15582403394034755
425,3779.5,0.17716106979235274
426,3788.21,0.19112960974298165
427,3796.9399999999996,0.1591677737922343
428,3801.8939600000003,0.1668354210118995
429,3805.7000000000003,0.17275867678993528
430,3814.47,0.18102127283831276
431,3823.26,0.14782180291416658
432,3832.08,0.1326598290312349
433,3840.9100000000003,0.1269665771620414
434,3849.7599999999998,0.16415988932032427
435,3858.64,0.15978455751982165
436,3867.53,0.16787179773305716
437,3876.4500000000003,0.14586328398750723
438,3885.3900000000003,0.15431436426943362
439,3886.15,0.18802872731353476
440,3887.92,0.19146871374519134
441,3889.69,0.1817814001768479
442,3891.4500000000003,0.17846839459476632
443,3893.22,0.20691568102642288
444,3894.99,0.19317366745807946
445,3896.76,0.214808153889736
446,3898.53,0.2131549403213926
447,3900.2999999999997,0.19676192675304915
448,3902.07,0.20884301318470574
449,3903.84,0.1849596996163623
450,3905.61,0.18905628604801886
451,3907.37,0.1882930804659373
452,3909.14,0.18573566689759383
453,3910.9100000000003,0.2250819533292504
454,3912.68,0.22879313976090698
455,3914.45,0.19729262619256357
456,3916.2200000000003,0.2018334126242201
457,3917.9900000000002,0.19127629905587668
458,3919.7599999999998,0.19084088548753325
459,3921.5299999999997,0.18198747191918985
460,3923.3,0.1805116583508464
461,3925.0600000000004,0.1722143527687648
462,3926.83,0.14034421920042137
463,3928.6,0.12112456563207795
464,3930.3700000000003,0.12355368206373452
465,3932.14,0.11271288849539107
466,3933.91,0.13312792492704767
467,3935.68,0.13089023135870423
468,3937.4500000000003,0.12969542779036078
469,3939.22,0.14668329422201737
470,3940.99,0.16947803065367395
471,3942.75,0.15341206507159233
472,3944.5200000000004,0.1846509115032489
473,3946.29,0.19001739793490546
474,3948.06,0.19403238436656203
475,3949.83,0.1956593707982186
476,3951.6,0.18211225722987517
477,3953.37,0.19320134366153177
478,3955.14,0.19243203009318832
479,3956.9100000000003,0.18508191652484487
480,3958.68,0.18942330295650145
481,3960.44,0.16864569737441987
482,3962.21,0.13989814380607643
483,3963.9799999999996,0.13116766023773302
484,3965.75,0.11733099666938956
485,3967.52,0.11070338310104613
486,3969.29,0.1277438095327027
487,3971.06,0.13697168596435927
488,3972.83,0.15111797239601588
489,3974.6,0.16159678882767242
490,3976.3599999999997,0.1718230832455908
491,3978.13,0.19540606967724738
492,3979.9,0.19605165610890396
493,3981.67,0.19272594254056052
494,3983.4399999999996,0.2017072289722171
495,3985.21,0.20716591540387366
496,3986.98,0.21327800183553022
497,3988.75,0.2120153882671868
498,3990.52,0.22048597469884337
499,3992.29,0.21152676113049995
500,3994.05,0.22477365554841833
501,3995.8199999999997,0.22744324198007493
502,3997.5899999999997,0.2230363284117315
503,3999.36,0.21449181484338806
504,4001.13,0.22174320127504463
505,4002.8999999999996,0.2184883877067012
506,4004.67,0.20809827413835774
507,4006.44,0.22577796057001434
508,4008.21,0.2236941470016709
509,4009.98,0.2177605334333275
510,4011.74,0.2272950278512459
511,4013.51,0.22927561428290244
512,4015.2799999999997,0.23513170071455902
513,4017.0499999999997,0.2233998871462156
514,4018.82,0.21993207357787214
515,4020.59,0.22535896000952874
516,4022.3599999999997,0.2194955464411853
517,4024.13,0.23036403287284185
518,4025.9,0.23192071930449842
519,4027.6600000000003,0.20763651372241682
520,4029.43,0.2099049001540734
521,4031.2,0.21577148658572998
522,4032.9700000000003,0.21435477301738654
523,4034.74,0.22220665944904314
524,4036.5099999999998,0.22376344588069969
525,4038.28,0.21743093231235625
526,4040.05,0.22073871874401282
527,4041.8199999999997,0.2123869051756694
528,4043.59,0.21727889160732594
529,4045.35,0.2058706860252444
530,4047.1200000000003,0.19877137245690094
531,4048.89,0.21110015888855752
532,4050.66,0.2118538453202141
533,4052.4300000000003,0.21901753175187064
534,4054.2,0.2223028181835272
535,4055.97,0.21979360461518377
536,4057.7400000000002,0.20975029104684034
537,4059.51,0.20291007747849693
538,4061.2799999999997,0.2010627639101535
539,4063.04,0.2141214583280719
540,4064.81,0.21502324475972845
541,4066.5800000000004,0.20900953119138502
542,4068.35,0.2019562176230416
543,4070.12,0.21174370405469817
544,4071.8900000000003,0.20127729048635473
545,4073.66,0.21009247691801133
546,4075.43,0.21439606334966788
547,4077.2000000000003,0.20040474978132444
548,4078.9700000000003,0.21499073621298104
549,4080.73,0.23566683063089944
550,4082.5,0.232847217062556
551,4084.27,0.22920860349421254
552,4086.0400000000004,0.23342378992586912
553,4087.81,0.2280998763575257
554,4089.58,0.23415226278918227
555,4091.3500000000004,0.23911084922083883
556,4093.12,0.22836483565249543
557,4094.89,0.22181482208415199
558,4096.66,0.20934870851580856
559,4098.42,0.20613110293372694
560,4100.1900000000005,0.2075511893653835
561,4101.96,0.21493697579704008
562,4103.73,0.21666516222869667
563,4105.5,0.21231114866035322
564,4107.27,0.2254618350920098
565,4109.04,0.2266990215236664
566,4110.8099999999995,0.21913740795532294
567,4112.58,0.23093129438697949
568,4114.34,0.2377833888048979
569,4116.11,0.23186927523655448
570,4117.88,0.22610336166821104
571,4119.650000000001,0.2358794480998676
572,4121.42,0.2300296345315242
573,4123.19,0.22825852096318078
574,4124.96,0.23247830739483732
575,4126.7300000000005,0.2264531938264939
576,4128.5,0.21835978025815048
577,4130.2699999999995,0.21849696668980706
578,4132.03,0.22170236110772545
579,4133.8,0.221275247539382
580,4135.57,0.2296401339710386
581,4137.34,0.22224692040269514
582,4139.11,0.22151840683435173
583,4140.88,0.2261777932660083
584,4142.65,0.21453207969766488
585,4144.42,0.21321056612932143
586,4146.1900000000005,0.213519952560978
587,4147.96,0.2182382389926346
588,4149.72,0.22212273341055294
589,4151.49,0.22367501984220955
