,lambda (Angstroms),Total Flux (erg/s/cm^2/Angstrom)
0,102.00000000000001,0.19889708572397116
1,103.89,0.1983332703226217
2,104.712855,0.19808780482340774
3,106.07000000000001,0.19596100823858337
4,108.03999999999999,0.19287382900885672
5,110.05,0.18972408438518434
6,113.91,0.1836751434789225
7,117.92,0.17739113409096413
8,120.22644299999999,0.17377872566302993
9,120.94000000000001,0.1728418489643697
10,124.89999999999999,0.1676395852087762
11,126.92999999999999,0.16497267886107037
12,128.10999999999999,0.16342251793381776
13,131.09,0.1595075404948408
14,132.0,0.15831276525669682
15,134.15,0.1554882032146094
16,136.96,0.15179760891192312
17,138.038426,0.15038086583996377
18,140.15,0.14839815602469836
19,143.07999999999998,0.14565861558339888
20,147.09,0.14191785656147696
21,150.86,0.1383795756070267
22,155.09,0.13440986312908917
23,158.489319,0.13122022077867398
24,159.07000000000002,0.13080841089898437
25,162.02,0.12871618982663108
26,166.18,0.12576647096982102
27,170.04999999999998,0.12302174915432702
28,172.81,0.1210646684749049
29,176.83999999999997,0.11820629315799515
30,180.13000000000002,0.1158726295551333
31,181.79000000000002,0.11469585221794466
32,181.970086,0.11456811375159458
33,186.03,0.1123717845599738
34,190.8,0.10979198948223731
35,193.9,0.10811563392039601
36,197.96,0.1059193727687587
37,202.10999999999999,0.10367487421339049
38,204.92,0.10215507750023753
39,208.929613,0.09998319481981507
40,210.17000000000002,0.09947806665425837
41,216.06,0.09708784172526154
42,220.07999999999998,0.09545427293813635
43,223.14000000000001,0.09420933325689182
44,226.76999999999998,0.09273500334090568
45,229.92,0.09150768472785982
46,234.2,0.08986990599330864
47,239.88329199999998,0.08760853160205657
48,240.2,0.08751209952108775
49,245.8,0.08573368210717922
50,252.1,0.08376879207903214
51,256.79,0.08224371461363374
52,259.76,0.08134931397179296
53,263.99,0.08003311812432277
54,268.89,0.07849113922465281
55,273.89,0.07691712165152019
56,275.42287,0.07643462511280565
57,278.98,0.07557454694396164
58,284.17,0.07432114167624605
59,290.12,0.0728716411781906
60,296.2,0.07140796413547178
61,301.01,0.07024129748292612
62,308.02,0.06855361778992299
63,316.227766,0.0665773498672287
64,318.11,0.06623887969593412
65,327.78000000000003,0.06449627897325225
66,337.74,0.06269910142041757
67,348.0,0.060849283284666184
68,356.93,0.0592532434665122
69,363.078055,0.05816752740556129
70,366.08000000000004,0.05777299746155289
71,374.61,0.05663086647928955
72,385.10999999999996,0.055201883739575006
73,394.97999999999996,0.05393784485224331
74,405.12,0.052636310613890396
75,413.6,0.05152204128181616
76,416.86938299999997,0.05108317911569279
77,422.26,0.050531203128347725
78,430.11,0.04973959486395453
79,441.14,0.04870132030341226
80,451.42,0.04770129771271645
81,459.81,0.046831012598033794
82,470.52,0.04579029770062601
83,478.630092,0.045056689914485734
84,480.37000000000006,0.04494063618044487
85,490.43,0.04411216143992822
86,499.55,0.043596167372978736
87,506.5,0.04299179443862578
88,512.37,0.04302526691220106
89,519.49,0.0424916925932668
90,530.37,0.04164412978006389
91,540.23,0.04073555807434876
92,549.5408739999999,0.040063079636746546
93,550.27,0.040024099625082105
94,560.51,0.03988610476114165
95,569.61,0.03965080389963208
96,580.2,0.03908869377178741
97,589.63,0.038710236804311
98,600.59,0.037837209254624735
99,610.35,0.0372794611811815
100,620.27,0.03737958584423919
101,630.3499999999999,0.03676416524379781
102,630.957344,0.03675133564366607
103,640.59,0.03666835606362653
104,649.4999999999999,0.036288934673001615
105,658.54,0.03572500701741807
106,664.63,0.03589527552820307
107,675.4300000000001,0.03569347705471831
108,684.82,0.03486924953193851
109,694.35,0.03509946426228021
110,705.63,0.03395964465664058
111,715.4499999999999,0.034556725411305375
112,724.43596,0.03430154807046518
113,725.4,0.034286059321040854
114,735.49,0.034092856208443115
115,745.73,0.03375305649258575
116,754.36,0.03356844271838175
117,764.86,0.03283823549020769
118,775.4999999999999,0.03313463483232465
119,784.48,0.032573085983848164
120,795.39,0.03266802064009779
121,804.6,0.03260518979995655
122,815.79,0.0323660165967882
123,825.24,0.03228309359143155
124,831.763771,0.03128629844799112
125,834.79,0.030851050206224605
126,844.4599999999999,0.031852274957074135
127,854.24,0.03162367439278338
128,864.13,0.03171187651335235
129,874.1400000000001,0.03161157583558645
130,884.26,0.031495116842680276
131,894.5,0.03137857705143924
132,904.86,0.03108608046186335
133,915.33,0.030948764557147172
134,925.93,0.043882688370901576
135,934.5,0.05908525927315396
136,945.32,0.07835707645662779
137,954.07,0.09276153866137789
138,954.992586,0.09341023192759916
139,965.12,0.10053687745265547
140,974.0500000000001,0.04532982200571226
141,985.3199999999999,0.08754574540021956
142,994.44,0.08761393473100097
143,1005.96,0.10906723441198803
144,1015.2700000000001,0.10741414852049402
145,1024.66,0.06874286464067358
146,1034.14,0.08891760302398585
147,1046.12,0.12883230427209563
148,1055.8,0.1256098676845917
149,1065.56,0.1065093231087613
150,1075.42,0.11825403104752276
151,1085.37,0.10168927124941696
152,1095.42,0.12074694396590305
153,1096.4782,0.12028626706593648
154,1105.55,0.11637965785021981
155,1115.78,0.11305109694260287
156,1126.1100000000001,0.10270008933989683
157,1133.91,0.1203958971229455
158,1144.4,0.11265990680809687
159,1154.99,0.1153278297981591
160,1165.68,0.11577813609313223
161,1173.76,0.08613261912993136
162,1184.62,0.111148550043253
163,1195.58,0.08943446426148549
164,1203.87,0.07477624123859748
165,1215.01,0.05889963740566957
166,1226.25,0.08597969687765253
167,1234.75,0.10921807779507736
168,1246.18,0.11497925654639102
169,1254.8100000000002,0.11119399276019998
170,1258.92541,0.10796994374377955
171,1266.43,0.10213660453493012
172,1275.2,0.11867876383415141
173,1284.04,0.1217008418735033
174,1295.92,0.10351735091281332
175,1304.9099999999999,0.10256442482387368
176,1313.95,0.11833118069217019
177,1326.1100000000001,0.11345987469200267
178,1335.3000000000002,0.10478494643200763
179,1344.56,0.1159654069121432
180,1353.88,0.11258259774096219
181,1366.41,0.10368592222434218
182,1375.8799999999999,0.10564330892486962
183,1385.41,0.10528758597408042
184,1395.02,0.08928928015486909
185,1404.69,0.08967134468434113
186,1414.42,0.09830413956249655
187,1424.23,0.09776053157222982
188,1434.1000000000001,0.09840008393064646
189,1440.72,0.10111618906871316
190,1445.43977,0.10148153497543431
191,1447.3700000000001,0.10163978674478183
192,1454.05,0.09873223593878477
193,1464.1299999999999,0.09303432478242991
194,1474.28,0.09273981285415595
195,1484.5,0.09337822015396284
196,1494.79,0.0934581666818506
197,1505.15,0.08931123243781922
198,1512.1000000000001,0.08207456436870551
199,1515.58,0.08553375742186872
200,1526.09,0.08373579580943921
201,1536.67,0.07443356342509058
202,1543.7600000000002,0.07494352381213862
203,1554.46,0.07252351153307146
204,1565.24,0.07560199265752532
205,1576.08,0.0793186888346199
206,1583.3600000000001,0.08132104855503028
207,1594.33,0.08202210901284648
208,1605.3899999999999,0.07996019704962382
209,1616.51,0.07920565013904188
210,1623.9799999999998,0.07663880919281464
211,1635.23,0.0796445965629543
212,1646.57,0.0798432915120551
213,1654.17,0.07616687484654946
214,1659.58691,0.07788573935277408
215,1665.6299999999999,0.07982246053797712
216,1673.3200000000002,0.07332201389466592
217,1677.18,0.08070834439620282
218,1684.92,0.0818031371635333
219,1696.6000000000001,0.07784519748942732
220,1704.43,0.0754739731959128
221,1716.25,0.0721342558716035
222,1724.1699999999998,0.071216294517244
223,1736.12,0.07433507366060306
224,1744.13,0.07279777524539853
225,1756.22,0.07524122673855427
226,1764.3300000000002,0.07091853714463309
227,1776.5600000000002,0.07111297098758548
228,1784.76,0.07191481433281932
229,1792.9999999999998,0.07421236120656649
230,1805.43,0.07367116269208557
231,1813.76,0.06914797250498775
232,1826.33,0.0698928963403035
233,1834.76,0.06775511497448901
234,1843.2299999999998,0.06349595713718786
235,1856.01,0.06340111449719862
236,1864.5700000000002,0.06435698959905248
237,1873.18,0.067333764111548
238,1886.16,0.06279997911412545
239,1894.87,0.060521782447904314
240,1903.6200000000001,0.0631733393101965
241,1905.46072,0.0628651378235188
242,1916.81,0.060987342866716775
243,1925.6599999999999,0.05937989424433131
244,1934.55,0.06101367836263564
245,1943.48,0.06257542522162975
246,1956.95,0.05873798314891426
247,1965.98,0.06245357685963283
248,1975.06,0.06367576899621362
249,1984.17,0.06074402818831176
250,1993.3300000000002,0.059248875806272125
251,2007.15,0.06025260271459223
252,2016.4099999999999,0.058887117184277055
253,2025.72,0.0603959700798241
254,2035.07,0.05750137571606094
255,2044.4599999999998,0.05861635409298756
256,2053.9,0.0544896708957764
257,2063.38,0.05553715043925503
258,2072.91,0.05917439840859589
259,2077.6800000000003,0.05669692023585254
260,2087.2799999999997,0.058029768001400514
261,2096.91,0.055466222822465834
262,2106.59,0.055748546069393376
263,2116.31,0.056033502057010715
264,2126.08,0.05620556647049027
265,2135.89,0.05361248362465961
266,2145.75,0.05377406920469118
267,2155.66,0.05492464321058498
268,2165.61,0.053450739957168564
269,2175.6,0.053074639444441934
270,2185.65,0.052069163042749965
271,2187.7616199999998,0.05236950551207837
272,2195.73,0.05351687271202352
273,2205.87,0.052305911639441635
274,2216.05,0.05041141358038014
275,2226.2799999999997,0.04927609178821914
276,2236.56,0.05084322626295861
277,2246.88,0.04939721375121847
278,2257.25,0.047803787506378814
279,2262.45,0.048360679264029136
280,2272.9,0.04880961904623025
281,2283.39,0.04916471184195176
282,2293.9300000000003,0.046819440904573746
283,2304.52,0.04697599623409622
284,2315.15,0.04546889457713908
285,2325.84,0.03927577244046253
286,2336.57,0.04329047331730635
287,2347.36,0.04232696371443076
288,2352.77,0.043933593793063115
289,2363.63,0.0416969069638482
290,2374.54,0.04207744640153377
291,2385.5,0.04002170210611983
292,2396.51,0.04134950407760636
293,2407.57,0.04018998231599338
294,2413.12,0.04049036794194709
295,2424.26,0.04167656220737488
296,2435.4500000000003,0.04042248273970316
297,2446.69,0.04152590953893193
298,2452.33,0.040935044445306504
299,2463.65,0.04049554727157604
300,2475.02,0.03943178636474606
301,2486.4500000000003,0.039710594978196664
302,2492.18,0.03646945916499211
303,2503.68,0.04013345055210339
304,2511.88643,0.03809648890827537
305,2515.2400000000002,0.037267222839209455
306,2526.85,0.03709579541448702
307,2532.68,0.03722928325375216
308,2544.3700000000003,0.03662285679423404
309,2556.1099999999997,0.037920693437968625
310,2567.91,0.03722559580560646
311,2573.83,0.038259947230726454
312,2585.71,0.0378568305635686
313,2597.64,0.03730818699966346
314,2603.63,0.036420836769337245
315,2615.65,0.03589474679128697
316,2627.7200000000003,0.0366571099164894
317,2633.78,0.03715652803071696
318,2645.94,0.03871832474177425
319,2652.04,0.03901638333860397
320,2664.28,0.036576971014865595
321,2676.58,0.03735983441503045
322,2682.75,0.03727190135641396
323,2695.13,0.03593227572178314
324,2707.57,0.03633580581105557
325,2713.81,0.03504579109699286
326,2726.3399999999997,0.03487889477212015
327,2732.62,0.0356357105406596
328,2745.24,0.03283147780164176
329,2757.9100000000003,0.03306331816587661
330,2764.26,0.03364196227896986
331,2777.02,0.034422346229059576
332,2783.4300000000003,0.03313592606605606
333,2796.27,0.029263610981350104
334,2802.7200000000003,0.03035066130094875
335,2815.66,0.033592282422748206
336,2822.15,0.03432285322494901
337,2835.17,0.033216845311952785
338,2848.26,0.03259936574351034
339,2854.83,0.03169328751091548
340,2868.0,0.03334224890767736
341,2874.61,0.03326139115768465
342,2884.0315,0.0330989236048725
343,2887.88,0.033035654090822666
344,2894.54,0.03282887604975735
345,2907.9,0.03422007262203473
346,2928.06,0.03311045044367485
347,2948.3500000000004,0.03249112689214102
348,2968.79,0.032525783294637255
349,2989.37,0.032236388987561544
350,3010.09,0.03214220397091389
351,3030.9599999999996,0.03185527890829629
352,3051.97,0.03163346313610676
353,3073.12,0.03147586665434528
354,3087.3,0.03126604764198699
355,3108.71,0.03111043841387761
356,3130.25,0.030521577812594288
357,3151.95,0.030305697828943025
358,3166.5,0.030163403369858885
359,3188.45,0.028946509976257726
360,3210.5499999999997,0.029321396536686625
361,3232.8,0.02830775305114559
362,3247.7299999999996,0.029206713808937603
363,3270.24,0.029587917577048668
364,3292.91,0.029257651962791797
365,3308.11,0.028941590637837918
366,3311.31121,0.028973651651207268
367,3323.38,0.029101330868797376
368,3331.04,0.02909376949974141
369,3338.72,0.02827652073807694
370,3346.4100000000003,0.02890323828010822
371,3354.13,0.027978874733226744
372,3361.8599999999997,0.028140677490041024
373,3369.61,0.0277951528542468
374,3377.3799999999997,0.02712588082584407
375,3385.16,0.027780975101137098
376,3392.9700000000003,0.028568448287517367
377,3400.7900000000004,0.02932468777759339
378,3408.63,0.027590499875060914
379,3416.49,0.027750844579919928
380,3424.36,0.028713715588474697
381,3432.25,0.029236089204420966
382,3440.17,0.028294331731454483
383,3448.1,0.026949160562183744
384,3456.05,0.02694119200030451
385,3464.01,0.026133509742121024
386,3472.0,0.027529396395024785
387,3479.9999999999995,0.025960479351624294
388,3488.02,0.027018634915615302
389,3496.07,0.02684786939069356
390,3504.12,0.027112003865771818
391,3512.2,0.026670507251937328
392,3520.3,0.027262283245494328
393,3528.4100000000003,0.02580866554274708
394,3536.55,0.027081756751087087
395,3544.7000000000003,0.027516814263122837
396,3552.8700000000003,0.027676714382550087
397,3561.06,0.027277817109368836
398,3569.27,0.025665702443579085
399,3577.5,0.02524821038518083
400,3585.7499999999995,0.024344500934174076
401,3594.01,0.02502896778686307
402,3602.2999999999997,0.026853503550639313
403,3610.6,0.025573515618111307
404,3618.92,0.026244950292974797
405,3623.13,0.025198554148885288
406,3625.87,0.02824385136152062
407,3628.6099999999997,0.028590778574155953
408,3631.35,0.025047635786791284
409,3634.0899999999997,0.026014632999426617
410,3636.84,0.026616566515757698
411,3639.58,0.025894403728393033
412,3642.32,0.025393180941028364
413,3645.06,0.0269731081536637
414,3647.7999999999997,0.026524635366299027
415,3650.54,0.023990722578934358
416,3653.2799999999997,0.024306279791569695
417,3656.02,0.025729417004205026
418,3658.7599999999998,0.02670639421684036
419,3661.4999999999995,0.027877221429475692
420,3664.25,0.025599744945806774
421,3666.99,0.026274522158442105
422,3669.73,0.027137449371077437
423,3672.47,0.02637109658371277
424,3675.21,0.026578323796348103
425,3677.95,0.026225351008983433
426,3680.6899999999996,0.025888058221618767
427,3683.43,0.0278942054342541
428,3686.1699999999996,0.026700212646889432
429,3688.92,0.025397746163220512
430,3691.66,0.025606393375855845
431,3694.4,0.02679005058849118
432,3697.14,0.02611207780112651
433,3699.8799999999997,0.026326435013761845
434,3702.62,0.025547242226397173
435,3705.3599999999997,0.023352589439032508
436,3708.1,0.02495817665166784
437,3710.84,0.02613186386430317
438,3713.5800000000004,0.028377491076938505
439,3716.33,0.029442684593269586
440,3719.0699999999997,0.03562254180590492
441,3721.81,0.05948792901854025
442,3724.5499999999997,0.09769335623117559
443,3727.29,0.12483590344381092
444,3730.0299999999997,0.11239665065644625
445,3732.7700000000004,0.07599116786908158
446,3735.51,0.04526468508171691
447,3738.25,0.03188024229435224
448,3740.9900000000002,0.02933919950698758
449,3743.74,0.02646587302331866
450,3746.48,0.02652343023595399
451,3749.22,0.023770007448589325
452,3751.9599999999996,0.02740258466122466
453,3754.7000000000003,0.02590639187385999
454,3757.44,0.02596109908649532
455,3760.1800000000003,0.026382146299130653
456,3762.92,0.027578633511765985
457,3765.6600000000003,0.02725559072440132
458,3768.4,0.02677717793703665
459,3771.1499999999996,0.026610801453367736
460,3773.89,0.028914858666003067
461,3776.63,0.029511225878638397
462,3779.3700000000003,0.03085026309127373
463,3782.11,0.03036900030390906
464,3784.8500000000004,0.029624027516544395
465,3787.59,0.029476324729179725
466,3790.33,0.02774493194181506
467,3793.07,0.02913813915445039
468,3795.81,0.028706766367085725
469,3798.5600000000004,0.027093539883416805
470,3801.3,0.030376887096052137
471,3801.8939600000003,0.03038596497532837
472,3804.0400000000004,0.030419616787932625
473,3806.78,0.029731322420696073
474,3809.52,0.02887625805345952
475,3812.26,0.029081723686222964
476,3815.0,0.030275029318986412
477,3817.7400000000002,0.029752084951749854
478,3820.48,0.0287402105845133
479,3823.23,0.029203546493308728
480,3825.9700000000003,0.027000002126072176
481,3828.71,0.02639723775883562
482,3831.4500000000003,0.026481533391599067
483,3834.19,0.02548391902436251
484,3836.93,0.025209004657125958
485,3839.67,0.0272860902898894
486,3842.41,0.027615565922652848
487,3845.15,0.03086010155541629
488,3847.89,0.029285177188179738
489,3850.6400000000003,0.030466923096975164
490,3853.38,0.03130242872973861
491,3856.12,0.030762384362502056
492,3858.86,0.031130359995265502
493,3861.6,0.032791205628028945
494,3864.34,0.03299240126079239
495,3867.08,0.034182846893555836
496,3869.8199999999997,0.03423009252631928
497,3872.56,0.033282368159082726
498,3875.2999999999997,0.03071818379184617
499,3878.05,0.030827989700641604
500,3880.79,0.029659325333405047
501,3883.53,0.029287480966168494
502,3886.27,0.03342290659893194
503,3889.0099999999998,0.03205611223169538
504,3891.75,0.03196365786445883
505,3894.49,0.030814943497222275
506,3897.23,0.027500969129985717
507,3899.97,0.03145680476274917
508,3902.7099999999996,0.03076281039551261
509,3905.46,0.03259027630430804
510,3908.2,0.030512171937071484
511,3910.94,0.03180240756983493
512,3913.68,0.03228013320259837
513,3916.42,0.03107012883536182
514,3919.16,0.030751034468125264
515,3921.8999999999996,0.03072842010088871
516,3924.64,0.028071585733652156
517,3927.3799999999997,0.0278437113664156
518,3930.12,0.025008676999179046
519,3932.87,0.025068622907974472
520,3935.61,0.02644295854073792
521,3938.35,0.027517944173501365
522,3941.0899999999997,0.02861430980626481
523,3943.83,0.030039965439028253
524,3946.5699999999997,0.0299859910717917
525,3949.31,0.030316896704555143
526,3952.0499999999997,0.02874625233731859
527,3954.7900000000004,0.02961027797008204
528,3957.54,0.029121403878877464
529,3960.2799999999997,0.02740678951164091
530,3963.02,0.026249525144404356
531,3965.7599999999998,0.026014530777167803
532,3968.5,0.030251166409931245
533,3971.24,0.029753882042694694
534,3973.9799999999996,0.028271617675458136
535,3976.7200000000003,0.027932553308221583
536,3979.46,0.029325418940985025
537,3982.2000000000003,0.030627054573748473
538,3984.95,0.0317432404825439
539,3987.69,0.031317226115307344
540,3990.43,0.03324891174807079
541,3993.1699999999996,0.03249504738083424
542,3995.91,0.032905783013597686
543,3998.65,0.032030758646361124
544,4001.3900000000003,0.033467814279124576
545,4004.13,0.034443029911888016
546,4006.8700000000003,0.033488175544651465
547,4009.61,0.03309637117741491
548,4012.3599999999997,0.03458885708621034
549,4015.1,0.03390057271897379
550,4017.8399999999997,0.03349594835173723
551,4020.5800000000004,0.03400930398450067
552,4023.32,0.03353625961726412
553,4026.0600000000004,0.03307746525002757
554,4028.8,0.03143413088279101
555,4031.54,0.03225966651555445
556,4034.28,0.0333560421483179
557,4037.02,0.03452653778108135
558,4039.7699999999995,0.03340617368987677
559,4042.51,0.03277204932264022
560,4045.2500000000005,0.03278365495540366
561,4047.9900000000002,0.03246456058816711
562,4050.73,0.03306202622093055
563,4053.4700000000003,0.034711471853694005
564,4056.21,0.03346155748645745
565,4058.9500000000003,0.032455383119220894
566,4061.69,0.030997348751984337
567,4064.43,0.031832864384747785
568,4067.1800000000003,0.03303599029354321
569,4069.92,0.033033345926306655
570,4072.6600000000003,0.0320528415590701
571,4075.4,0.032527707191833545
572,4078.14,0.03187933282459699
