,lambda (Angstroms),Total Flux (erg/s/cm^2/Angstrom)
0,102.08999999999999,24.000915810366344
1,103.97999999999999,23.932864967718245
2,104.712855,23.906477988178683
3,105.92,23.67816711311728
4,107.89,23.305575245788916
5,109.89,22.92730948147933
6,114.02000000000001,22.146190549125794
7,118.02,21.38965892387842
8,120.22644299999999,20.972349022395097
9,121.05,20.841759573176663
10,125.02,20.21224482714142
11,127.05,19.89035189869295
12,127.93,19.750812182613746
13,130.91,19.278279782580096
14,132.12,19.0864130009947
15,133.96,18.794648146681464
16,137.07999999999998,18.299917012007853
17,138.038426,18.14794153469681
18,139.95000000000002,17.931280772011295
19,142.88,17.599196886002424
20,146.88,17.145843457319902
21,151.0,16.678879667836206
22,154.87,16.240252226780786
23,158.489319,15.830037806186654
24,158.83999999999997,15.799989046890804
25,162.17,15.514651558722884
26,165.95,15.190756903268216
27,169.81,14.86000729779768
28,172.97,14.589238461640978
29,177.0,14.243923253839226
30,179.87,13.998004725607533
31,181.96,13.818921164425534
32,181.970086,13.818056937229203
33,186.19,13.542203470082034
34,190.97,13.22973961266622
35,194.07,13.027096381199058
36,198.14,12.761045413392496
37,201.82,12.520491002381155
38,205.1,12.306082042462355
39,208.929613,12.05574272564191
40,209.88,12.009036041711386
41,215.76000000000002,11.720080630862583
42,219.77,11.523017544521139
43,222.83,11.372638086718192
44,226.96999999999997,11.169188548508323
45,230.13,11.014035370306587
46,233.87,10.83052958739187
47,239.86,10.536415662254402
48,239.88329199999998,10.535270912650546
49,246.01999999999998,10.302851075853965
50,251.75,10.085951454443912
51,257.02,9.886172475730305
52,260.0,9.773533398801167
53,264.22,9.61381113995118
54,269.13,9.42789629115653
55,274.14,9.23819248938439
56,275.42287,9.189612727657941
57,279.23,9.078974828607906
58,283.77,8.947065965353318
59,289.71,8.774398485350615
60,295.78000000000003,8.598022951549874
61,301.28,8.43812724632515
62,308.3,8.234168046231048
63,316.227766,8.003837241243717
64,317.66,7.972761998234164
65,328.07000000000005,7.7468303229531505
66,338.04,7.53042064168786
67,348.31,7.3074989272300295
68,357.25,7.113473129092446
69,363.078055,6.987000922651978
70,366.41,6.932859672637321
71,374.94,6.794203596062003
72,384.55999999999995,6.637749432408479
73,395.34,6.462604066763468
74,404.54999999999995,6.312932455744866
75,413.97,6.159789168986424
76,416.86938299999997,6.112646537378782
77,421.66,6.053161003074081
78,430.48999999999995,5.943524265924499
79,440.52,5.819042522499776
80,450.78,5.691661096397319
81,460.22,5.5744356552328735
82,469.86,5.454751916522572
83,478.630092,5.345894941687254
84,479.7,5.335682266351794
85,489.73999999999995,5.239766410729724
86,500.0,5.14185948788685
87,505.78999999999996,5.086643546803006
88,511.64,5.031685445568034
89,519.96,4.9522604019449625
90,529.62,4.86002514061337
91,539.47,4.765823753636536
92,549.5,4.67048624920632
93,549.5408739999999,4.670097767614229
94,559.71,4.5964749789715444
95,570.12,4.520956981477268
96,579.38,4.4533873419204
97,590.16,4.375357663237566
98,599.75,4.305468477863876
99,609.49,4.234860452846176
100,619.39,4.163559211341533
101,629.46,4.090477705507011
102,630.957344,4.0795973578878835
103,639.6899999999999,4.029326262156433
104,650.0799999999999,3.9698821428971156
105,657.61,3.926621315995994
106,665.22,3.8831431885673693
107,674.4799999999999,3.8299148650090187
108,685.4399999999999,3.766449039741251
109,694.97,3.7131114806525787
110,704.64,3.6567537891407804
111,716.09,3.5924224813920618
112,724.43596,3.5446214306601416
113,726.0500000000001,3.537779059764105
114,734.4599999999999,3.50219443201227
115,744.6700000000001,3.4595049357404197
116,755.03,3.415839129591904
117,765.54,3.37125407356672
118,774.4,3.3347049961848807
119,785.1800000000001,3.2894315043816937
120,794.27,3.251381359855631
121,805.32,3.204859172274442
122,814.64,3.165663630604156
123,824.0799999999999,3.126853343032535
124,831.763771,3.092029407626836
125,835.5400000000001,3.0790025520437876
126,845.21,3.052285708183641
127,855.0000000000001,3.021732441421403
128,864.9,2.9917349519989163
129,874.92,2.961244229674338
130,885.05,2.9307649046895103
131,895.3,2.8994365368025914
132,905.66,2.8667896462554223
133,914.04,2.8517881435927515
134,924.63,3.0185392674832423
135,935.33,3.261318108713483
136,943.99,3.694860359279267
137,954.92,4.023582974947168
138,954.992586,4.024822256152443
139,965.98,4.213173901321866
140,974.92,2.924377958389061
141,983.9399999999999,4.022148630284597
142,995.3299999999999,3.999721091469757
143,1004.54,4.480337448582605
144,1013.83,4.354561020523794
145,1025.57,3.2752422965829506
146,1035.06,3.819621905594994
147,1044.64,4.833282381288923
148,1054.31,4.741937723664735
149,1064.06,4.289391280868889
150,1073.91,4.5736433566084695
151,1083.84,4.143711647176395
152,1093.87,4.601591456279745
153,1096.4782,4.558088555448029
154,1103.99,4.437065189850605
155,1114.21,4.340461188208794
156,1124.52,4.084476189487946
157,1134.9199999999998,4.494736193688061
158,1145.43,4.270181868124906
159,1156.02,4.3449002118248305
160,1164.04,4.37700880544838
161,1174.81,3.6731901549902295
162,1185.68,4.273936841110926
163,1193.8999999999999,3.7374081078921693
164,1204.94,3.2769134661969055
165,1216.09,2.755433294738374
166,1224.52,3.5569727683351977
167,1235.85,4.150366802718591
168,1244.42,4.2631517475258
169,1255.93,4.141169787751119
170,1258.92541,4.063422774628875
171,1264.6399999999999,3.9193096188998275
172,1276.34,4.250022002484203
173,1285.19,4.279720061862127
174,1294.1,3.8220853385917675
175,1306.07,3.838649700258859
176,1315.12,4.179058817475833
177,1324.2399999999998,4.040745854936475
178,1336.49,3.822065897578235
179,1345.76,4.061505478418162
180,1355.09,3.989624276609806
181,1364.4800000000002,3.7857702921531633
182,1373.9399999999998,3.803662227940189
183,1383.46,3.8065203810789274
184,1396.26,3.431633082778074
185,1405.94,3.4883664821880522
186,1415.69,3.6043028018416985
187,1425.5,3.5863783388470596
188,1435.3799999999999,3.6020297960960876
189,1442.01,3.653958813460567
190,1445.43977,3.6451024887781065
191,1448.6599999999999,3.638566578107712
192,1455.35,3.580708379412847
193,1465.44,3.440165837584568
194,1475.59,3.4364626661715816
195,1485.82,3.4279503219789857
196,1496.12,3.4147785766042316
197,1506.49,3.294010430047318
198,1513.45,3.1063743982212704
199,1516.9299999999998,3.1870978823082465
200,1523.94,3.178108992494942
201,1534.5,2.9539781855864566
202,1545.14,2.9736032058983604
203,1555.85,2.9048618250281057
204,1566.6299999999999,2.968883042975693
205,1573.86,3.0532391780184627
206,1584.77,3.0756323651991835
207,1595.76,3.082189379600295
208,1606.82,3.0393489928192476
209,1614.23,3.0258542391078955
210,1625.4199999999998,2.9633818215599828
211,1636.69,3.03412823123246
212,1644.2499999999998,3.024471903559339
213,1655.6399999999999,2.9406770540624017
214,1659.58691,2.984241513254875
215,1663.29,3.0265317952252184
216,1670.96,2.913616958968952
217,1678.6799999999998,3.0296473975741183
218,1686.4199999999998,3.0397709461238573
219,1694.2099999999998,2.949106769535028
220,1705.95,2.8862183069993605
221,1713.8300000000002,2.79774262516111
222,1725.71,2.7721929322374534
223,1733.6699999999998,2.845691690177495
224,1745.69,2.7960097668658497
225,1753.75,2.847503074528756
226,1765.8999999999999,2.7511728658568346
227,1774.0500000000002,2.7364296682703184
228,1786.35,2.755748284182695
229,1794.6000000000001,2.803013636319044
230,1807.04,2.7957860218434307
231,1815.38,2.6585108687303585
232,1823.76,2.6956689355064327
233,1836.3999999999999,2.6397154204765485
234,1844.8700000000001,2.5189149820032006
235,1853.39,2.5010768183912857
236,1866.24,2.5238374577794174
237,1874.8500000000001,2.609005788918081
238,1883.51,2.4707593949181765
239,1896.56,2.3834041337520384
240,1905.31,2.478550234502712
241,1905.46072,2.477206692026831
242,1914.11,2.4021727537857527
243,1922.95,2.357562074282734
244,1936.27,2.414137724624339
245,1945.21,2.445478494448209
246,1954.19,2.3307250440028353
247,1967.74,2.427287927796285
248,1976.82,2.4699699266777992
249,1985.9399999999998,2.3815737052900703
250,1995.11,2.3425327085657845
251,2004.32,2.379578491572255
252,2013.5700000000002,2.3468560543094803
253,2022.86,2.398025396777462
254,2036.89,2.2956986373399784
255,2046.29,2.315522874067538
256,2055.73,2.226587890525853
257,2065.2200000000003,2.254770131647612
258,2074.7599999999998,2.336752597432816
259,2079.54,2.2390692752581067
260,2084.33,2.2873183980160863
261,2093.95,2.213946423262801
262,2103.62,2.2391246731729604
263,2113.33,2.2391657028138754
264,2123.08,2.248891512185546
265,2132.88,2.197814546220661
266,2142.73,2.1695568049192206
267,2152.62,2.2070088433485355
268,2162.55,2.175222661508606
269,2172.54,2.15931214926481
270,2182.56,2.1250499718190805
271,2187.7616199999998,2.139140526787273
272,2192.64,2.153389800428281
273,2202.76,2.127223761034595
274,2212.93,2.089312547533234
275,2223.1400000000003,2.0522225947457304
276,2233.4,2.0802454678505518
277,2243.71,2.054840166847696
278,2254.07,2.0153466917371645
279,2264.4700000000003,2.0280754773404914
280,2274.92,2.0322020888361423
281,2285.42,2.033273526224117
282,2295.97,1.9708777895044152
283,2306.57,1.977271878677037
284,2317.2200000000003,1.9387817937419825
285,2322.56,1.7651225990421526
286,2333.28,1.885402470356351
287,2344.05,1.8672611675628734
288,2354.87,1.8860926906617197
289,2365.7400000000002,1.8468210396528892
290,2376.66,1.844393214536383
291,2387.63,1.8035132153122002
292,2393.13,1.829034063467806
293,2404.18,1.7958935856713412
294,2415.2799999999997,1.7958169337671999
295,2426.42,1.8085445425769173
296,2437.62,1.7704795424574238
297,2443.2400000000002,1.793108172754606
298,2454.52,1.77775369406283
299,2465.85,1.7599840412633778
300,2477.23,1.7349592143562493
301,2482.94,1.7421719312596144
302,2494.4,1.6514382257802038
303,2505.9199999999996,1.7316037113715819
304,2511.6899999999996,1.6712118193457353
305,2511.88643,1.6721689741653185
306,2517.4800000000005,1.7000574125750623
307,2523.2900000000004,1.6742106036428428
308,2534.9300000000003,1.6678273771418044
309,2546.64,1.6474560204126667
310,2552.51,1.6711713855706478
311,2564.29,1.6529728986134113
312,2576.12,1.6701408900646753
313,2582.06,1.6609401249945575
314,2593.98,1.6497343775811228
315,2605.9500000000003,1.6246351085761885
316,2617.9799999999996,1.6113001136614553
317,2624.0200000000004,1.616079105408339
318,2636.1299999999997,1.6188066759472068
319,2642.21,1.6424746504208914
320,2654.4,1.6430086864133602
321,2666.6600000000003,1.5944492921777298
322,2672.8,1.606111740741615
323,2685.14,1.599532211959586
324,2697.53,1.5657117615860578
325,2703.7499999999995,1.5680533756035442
326,2716.23,1.543699786365317
327,2722.4900000000002,1.5327766831096037
328,2735.0600000000004,1.5416165550066778
329,2747.6800000000003,1.4898288053122528
330,2754.02,1.4897388675101408
331,2766.73,1.493828078951017
332,2773.1099999999997,1.5066254238757055
333,2785.91,1.4850905964518828
334,2792.33,1.4155140241033717
335,2805.22,1.4349831578148504
336,2818.1699999999996,1.47185146561653
337,2824.66,1.47172426303992
338,2837.7000000000003,1.4380576319769003
339,2844.2400000000002,1.427624107808791
340,2857.3700000000003,1.413001037881073
341,2863.96,1.4331077921214646
342,2877.18,1.4264990833290478
343,2883.81,1.4201288202962397
344,2884.0315,1.4200523462537114
345,2897.1200000000003,1.4168039416487521
346,2910.4900000000002,1.4300197616149943
347,2930.67,1.4044315710330029
348,2950.9800000000005,1.3813056430984019
349,2971.44,1.3742703105261747
350,2992.0400000000004,1.359308506958829
351,3012.7799999999997,1.3463788323963661
352,3026.68,1.3390643693096624
353,3047.66,1.3262070873269973
354,3068.79,1.3171686007067058
355,3090.06,1.2986953430912964
356,3111.48,1.2934211808382607
357,3133.05,1.2732381139475986
358,3147.51,1.2623519668804233
359,3169.3300000000004,1.2533541589270507
360,3191.29,1.2229787799785603
361,3213.41,1.2210786627499355
362,3228.2499999999995,1.1999975372674403
363,3250.6200000000003,1.2101857789761044
364,3273.16,1.2099374487621257
365,3288.26,1.1974277485744114
366,3311.06,1.179698243655214
367,3311.31121,1.1799788426165172
368,3318.69,1.188723136307971
369,3326.3399999999997,1.1908638224865336
370,3334.01,1.1947856027466086
371,3341.7000000000003,1.1606169770881962
372,3349.4,1.1938294984705402
373,3357.12,1.1578923139343968
374,3364.86,1.123525023479766
375,3372.62,1.1205383271066476
376,3380.39,1.1470566777742857
377,3388.1800000000003,1.159181122523436
378,3395.99,1.1510162613540995
379,3403.82,1.146266094266275
380,3411.67,1.1266395212599634
381,3419.53,1.130192495294408
382,3427.42,1.1404145104511216
383,3435.32,1.1423875726485913
384,3443.2400000000002,1.1032864289275737
385,3451.17,1.1278962322473123
386,3459.13,1.10690487668932
387,3467.1000000000004,1.1006914681720836
388,3475.1,1.1024813007771164
389,3483.1099999999997,1.0930945804229055
390,3491.14,1.104485054150207
391,3499.1899999999996,1.080802621959021
392,3507.25,1.0904199368085914
393,3515.34,1.065546792780431
394,3523.44,1.0859917957930263
395,3531.5600000000004,1.0782446928871345
396,3539.7000000000003,1.0926981840627552
397,3547.86,1.1026029693198887
398,3556.04,1.0882121486585346
399,3564.2400000000002,1.085167422078693
400,3572.45,1.0524639425396078
401,3580.69,1.0374104041227916
402,3588.9500000000003,1.0052911597874878
403,3597.22,1.0405153624929404
404,3605.51,1.0466391592799056
405,3613.8199999999997,1.0286094501483833
406,3622.15,1.0316288350983736
407,3630.5,1.0929325141298762
408,3638.8700000000003,1.0484555872428918
409,3644.89,1.057696105778179
410,3647.62,1.0527663479046463
411,3650.34,1.0340394429903574
412,3653.0699999999997,1.0688140851168249
413,3655.79,1.087666980202536
414,3658.52,1.0519371223290035
415,3661.2400000000002,1.0454881174147146
416,3663.97,1.0099530595411819
417,3666.69,0.9539547546268929
418,3669.4100000000003,0.9392661497126041
419,3672.14,0.9962773918390715
420,3674.8599999999997,0.9254058869247825
421,3677.59,1.02298112905125
422,3680.31,1.015477824136961
423,3683.0400000000004,1.0823662662634286
424,3685.76,0.9624646613491397
425,3688.49,1.014107303475607
426,3691.2099999999996,1.0834663985613182
427,3693.94,0.9974737406877856
428,3696.66,1.0058487357734966
429,3699.38,1.0740564308592078
430,3702.11,1.0431597729856752
431,3704.83,1.0809241680713864
432,3707.56,0.9927580101978537
433,3710.28,0.8381796052835648
434,3713.0099999999998,0.9552990474100322
435,3715.73,1.0356221424957432
436,3718.46,1.1433825846222108
437,3721.18,1.4951486797079219
438,3723.9100000000003,2.4760294218343892
439,3726.63,3.7607868169201004
440,3729.3599999999997,4.462610559046568
441,3732.08,3.906342954132279
442,3734.7999999999997,2.5872863492179903
443,3737.53,1.5269750913444573
444,3740.25,1.1320145864301685
445,3742.98,1.033678928556636
446,3745.7000000000003,1.026662223642347
447,3748.43,1.0443095657688146
448,3751.1499999999996,1.0082769608545257
449,3753.88,1.065888102980993
450,3756.6,1.084432698066704
451,3759.3300000000004,1.1004578401931715
452,3762.05,1.0996208352788828
453,3764.77,1.1067474303645939
454,3767.4999999999995,0.9816339724910612
455,3770.2200000000003,1.0239233675767723
456,3772.95,1.0777068097032396
457,3775.67,1.1196882047889507
458,3778.4,1.1242951469154183
459,3781.12,1.1444618420011294
460,3783.8500000000004,1.1094616841275966
461,3786.57,1.134153579213308
462,3789.2999999999997,1.1255581213397752
463,3792.02,1.0592608164254864
464,3794.74,1.0567855115111975
465,3797.47,1.130323753637665
466,3800.19,1.048569448723376
467,3801.8939600000003,1.021631864732828
468,3802.92,1.0054605799688607
469,3805.6400000000003,1.1216611738730655
470,3808.37,1.1126450942254476
471,3811.0899999999997,1.0999686881296524
472,3813.82,1.1205851084820342
473,3816.54,1.105735402386239
474,3819.27,1.094919122738621
475,3821.9900000000002,1.0722518166428257
476,3824.72,1.0406428369952077
477,3827.4399999999996,1.1045042308994124
478,3830.1600000000003,1.0283787248036171
479,3832.89,0.9787340451559992
480,3835.6099999999997,0.9789028390602039
481,3838.34,1.1299534594125857
482,3841.06,1.0313806533167904
483,3843.7900000000004,1.0503590736691726
484,3846.51,1.0711750675733773
485,3849.24,1.1205640879257592
486,3851.96,1.1079363818299641
487,3854.69,1.177388402182346
488,3857.41,1.1382911960865507
489,3860.13,1.1359465899907555
490,3862.86,1.2534718103431375
491,3865.58,1.2185106042473421
492,3868.31,1.2726678245997243
493,3871.0299999999997,1.352035518503929
494,3873.7599999999998,1.2336048388563108
495,3876.48,1.1831706327605156
496,3879.21,1.1758737531128975
497,3881.9300000000003,1.1444482470171025
498,3884.66,1.1116388673694844
499,3887.3799999999997,1.2156426612736893
500,3890.11,1.2357882816260712
501,3892.83,1.1919229755302758
502,3895.5499999999997,1.1551126694344807
503,3898.28,1.0671096897868626
504,3901.0,1.1007387836910674
505,3903.7300000000005,1.0862894040434492
506,3906.4500000000003,1.0964333979476542
507,3909.18,1.125808018300036
508,3911.8999999999996,1.1125640122042408
509,3914.63,1.1264170325566227
510,3917.35,1.1859319264608275
511,3920.0800000000004,1.1885285468132094
512,3922.8,1.120156040717414
513,3925.52,1.125369334621619
514,3928.25,1.063722454974001
515,3930.97,1.0666000488782057
516,3933.7,0.9979790692305878
517,3936.42,0.9826262631347924
518,3939.15,1.0340916834871745
519,3941.87,1.044316377391379
520,3944.6,1.1523212977437611
521,3947.32,1.1262967916479658
522,3950.0499999999997,1.142890612000348
523,3952.77,1.1265003059045526
524,3955.5,1.1786625262569346
525,3958.2200000000003,1.0865614201611393
526,3960.94,1.112551414065344
527,3963.67,1.036826334417726
528,3966.3900000000003,1.1100787283219307
529,3969.12,1.1150598486743128
530,3971.8399999999997,1.2443332425785174
531,3974.57,1.0965303629308996
532,3977.29,1.1373931568351041
533,3980.0200000000004,1.0310951771874861
534,3982.7400000000002,1.161017071091691
535,3985.47,1.133430191444073
536,3988.1899999999996,1.1967403853482779
537,3990.91,1.1937632792524826
538,3993.64,1.1975600996048645
539,3996.36,1.287761893509069
540,3999.09,1.194033113861451
541,4001.81,1.234588107765656
542,4004.54,1.2049249281180379
543,4007.26,1.2663539220222426
544,4009.99,1.2129298423746246
545,4012.71,1.2578800362788294
546,4015.44,1.2002552566312112
547,4018.16,1.236366150535416
548,4020.89,1.227820270887798
549,4023.61,1.2460414647920028
550,4026.3300000000004,1.2552612586962075
551,4029.06,1.2066054790485894
552,4031.7799999999997,1.2282976729527944
553,4034.51,1.2343814933051762
554,4037.23,1.174021087209381
555,4039.96,1.219598407561763
556,4042.6800000000003,1.2010510014659677
557,4045.41,1.1619322218183497
558,4048.1299999999997,1.1944099157225545
559,4050.86,1.1432079360749363
560,4053.58,1.1979058299791412
561,4056.2999999999997,1.129354723883346
562,4059.03,1.1787761442357279
563,4061.75,1.1950835381399327
564,4064.4799999999996,1.1329660584923147
565,4067.2000000000003,1.1824251523965192
566,4069.93,1.2173140727489014
567,4072.65,1.207103266653106
568,4075.38,1.1971626870054881
569,4078.1,1.1110948809096928
570,4080.83,1.1416373012620746
571,4083.55,1.1422931951662796
572,4086.27,1.1333147890704842
573,4089.0,1.1206495094228663
574,4091.72,1.081844003327071
575,4094.45,1.083873323679453
576,4097.17,1.1324891175836578
577,4099.900000000001,1.2455055379360396
578,4102.62,1.3270952318402445
579,4105.349999999999,1.3182888521926266
580,4108.07,1.2095800460968311
581,4110.8,1.123604366449213
582,4113.5199999999995,1.106175760353418
583,4116.25,1.1221695807057999
584,4118.97,1.1262799746100045
585,4121.6900000000005,1.1318177685142095
586,4124.42,1.0972404888665914
587,4127.14,1.147445582770796
588,4129.87,1.1250651031231782
589,4132.59,1.1220390970273828
590,4135.32,1.1198028173797647
591,4138.04,1.1165658112839696
592,4140.7699999999995,1.1167948316363516
593,4143.49,1.1268089255405562
594,4146.22,1.142267545892938
595,4148.94,1.150530239797143
596,4151.66,1.1653776337013477
597,4154.39,1.1160571540537296
598,4157.11,1.1638133479579347
599,4159.84,1.1289603683103164
