,lambda (Angstroms),Total Flux (erg/s/cm^2/Angstrom)
0,102.00000000000001,145.03590633012078
1,103.9,144.6225600040212
2,104.712855,144.44572287180242
3,106.08,142.88340011473355
4,108.05,140.63215726746975
5,110.06,138.3352047725173
6,113.91999999999999,133.92414107831405
7,117.92999999999999,129.34166342126755
8,120.22644299999999,126.71739792114624
9,120.95,126.02417529345254
10,124.92,122.22058234484626
11,126.95,120.2756710211629
12,128.12,119.15471336635714
13,131.1,116.29962248032577
14,132.01,115.4277778090146
15,133.85,113.66490429977884
16,136.97,110.67570102028346
17,138.038426,109.65206037260711
18,140.16,108.19916243156217
19,143.09,106.19288600942824
20,147.10000000000002,103.4473976015709
21,150.87,100.86570177909655
22,155.1,97.96901231647146
23,158.489319,95.64804051721526
24,159.07999999999998,95.34224184807807
25,162.04,93.80982833207291
26,165.80999999999997,91.85811675631297
27,170.07000000000002,89.6526802015285
28,172.82999999999998,88.22383842410478
29,176.85,86.14267595661802
30,180.14,84.43942434145353
31,181.81,83.57488102879857
32,181.970086,83.49200427205186
33,186.04,81.88460151148819
34,190.82,79.99677877968998
35,193.92,78.77247252910537
36,197.98,77.16899473425583
37,202.12,75.53394304730088
38,204.93999999999997,74.42022340508522
39,208.929613,72.84443974861027
40,210.19,72.47017841892637
41,216.07999999999998,70.72154620593727
42,220.1,69.52800883096339
43,223.16,68.61941726793849
44,226.79000000000002,67.54171233885013
45,229.94,66.60870197023627
46,234.21999999999997,65.34216750767204
47,239.88329199999998,63.66301468561582
48,240.22000000000003,63.586117823753725
49,245.82,62.303969828804576
50,252.13,60.86096256333508
51,256.81,59.787849969341856
52,259.78999999999996,59.10781061363677
53,264.01,58.14284791012151
54,268.92,57.019292430889294
55,273.92,55.87510837004183
56,275.42287,55.531206382149456
57,279.01,54.90125147566887
58,284.2,53.98977305767441
59,290.15,52.944153474424525
60,296.21999999999997,51.87839148613428
61,301.03000000000003,51.033484100767545
62,308.05,49.800815565908
63,316.227766,48.36483740826792
64,318.14000000000004,48.11405608249662
65,327.81,46.845551369999164
66,337.77000000000004,45.5388731449966
67,348.03000000000003,44.19281293050602
68,356.96,43.02127953474571
69,363.078055,42.2187382077441
70,366.10999999999996,41.920887083411024
71,374.64,41.08269315537472
72,385.14,40.05058210787398
73,395.02000000000004,39.080242127159
74,405.15000000000003,38.08506897483687
75,413.63,37.25174032912199
76,416.86938299999997,36.93340023945619
77,422.29999999999995,36.52580355411961
78,430.15,35.936654545535916
79,441.17999999999995,35.109039030073724
80,451.46,34.33749544670552
81,459.84999999999997,33.707772152614154
82,469.47999999999996,32.98508799772739
83,478.630092,32.29853897124541
84,480.42,32.195243970041474
85,490.47,31.61492658878857
86,499.59000000000003,31.088719350606844
87,506.53999999999996,30.68742085959116
88,512.41,30.349464343754885
89,519.54,29.9379183502093
90,530.42,29.309870483957408
91,540.28,28.74046990204163
92,549.5408739999999,28.20626731166498
93,550.3199999999999,28.171984803986902
94,560.55,27.721994507294216
95,569.6600000000001,27.32125599972135
96,580.25,26.85475017795444
97,589.68,26.440069349204492
98,600.64,25.957351211389064
99,610.4,25.527209721487736
100,620.3199999999999,25.091888383997862
101,630.4,24.64826393191944
102,630.957344,24.623729503299046
103,640.64,24.285822624770955
104,649.56,23.97492982081026
105,658.59,23.660023737294
106,664.69,23.44745681193972
107,675.49,23.07044908557476
108,684.8799999999999,22.742382283513006
109,694.4100000000001,22.41157666201688
110,705.69,22.017321057591257
111,715.51,21.675986097266822
112,724.43596,21.36471995763033
113,725.47,21.337958654578728
114,735.56,21.07682646173316
115,745.7900000000001,20.81293455333769
116,754.43,20.589724542258825
117,764.9200000000001,20.318079879270705
118,775.56,20.043849027479148
119,784.54,19.811947575779115
120,795.46,19.52966144288777
121,804.67,19.291635906355786
122,815.86,19.002215935618224
123,825.31,18.758868321000712
124,831.763771,18.589106525876815
125,834.87,18.527714888941905
126,844.53,18.34501142945019
127,854.3100000000001,18.155972759530002
128,864.1999999999999,17.96586437005039
129,874.21,17.773465500142308
130,884.34,17.579238959805757
131,894.5699999999999,17.382411790778814
132,904.9300000000001,17.181185400454364
133,915.41,16.99459949970145
134,926.01,17.06857652852006
135,934.58,17.280038253753602
136,945.4,17.725497833453357
137,954.15,18.205109823044193
138,954.992586,18.18989280297704
139,965.1999999999999,18.00981636833265
140,974.13,16.09302879898388
141,985.4100000000001,16.980476479806484
142,994.53,17.108174336641788
143,1006.04,18.05792440705563
144,1015.35,17.895162490074995
145,1024.75,16.141961890760502
146,1034.23,16.440482018260354
147,1043.8,18.38966746342634
148,1055.89,18.08203580324418
149,1065.6599999999999,16.791805065446038
150,1075.52,17.321036645314024
151,1085.47,16.157251542848144
152,1095.51,17.18011675804841
153,1096.4782,17.145373094279567
154,1105.6499999999999,16.847731783891874
155,1115.88,16.41989994100719
156,1126.2,15.839259386894792
157,1134.01,16.85339366813337
158,1144.5,16.239981770590823
159,1155.09,16.41227408279525
160,1165.78,16.33621760474665
161,1173.8600000000001,14.736406752302052
162,1184.72,15.902707930823304
163,1195.6799999999998,14.205671319091534
164,1203.97,13.248189807115578
165,1215.11,12.865938772928356
166,1226.36,14.010404869462803
167,1234.86,15.521393697955496
168,1246.28,15.778591451059796
169,1254.9199999999998,15.289476173198251
170,1258.92541,14.876942997750902
171,1263.6200000000001,14.414331444472943
172,1275.31,15.676590688599834
173,1284.15,15.89236461059142
174,1296.03,14.22252634286066
175,1305.02,14.049023966017263
176,1314.06,15.29734082289554
177,1326.2199999999998,14.878140064006143
178,1335.4199999999998,13.979548068793772
179,1344.67,15.042135307303067
180,1353.99,14.736885673022709
181,1366.52,13.884655443673681
182,1375.99,14.093405510558336
183,1385.5300000000002,14.019324704653329
184,1395.14,13.262700025958665
185,1404.81,13.29856402773001
186,1414.55,13.228011156711691
187,1424.3500000000001,13.326446966159377
188,1434.22,13.132630902817409
189,1440.84,13.362293647566768
190,1445.43977,13.3896779009802
191,1447.4899999999998,13.408728584893213
192,1454.1699999999998,13.16514570975129
193,1464.25,12.62861689217186
194,1474.3999999999999,12.559946902248129
195,1484.6200000000001,12.617631739980098
196,1494.92,12.631985237890005
197,1505.28,12.24486973093337
198,1512.23,11.636232333891998
199,1515.71,11.945466051632433
200,1526.22,11.681322032509438
201,1533.26,11.05875712816825
202,1543.8899999999999,11.416435099312165
203,1554.5900000000001,11.117607898111778
204,1565.3700000000001,11.056102357089333
205,1576.22,11.206875643722586
206,1583.49,11.38673488739298
207,1594.47,11.368284996815387
208,1605.52,11.226376933893494
209,1616.65,11.16591453114954
210,1624.11,10.840615592742541
211,1635.37,11.039239012787746
212,1646.71,11.010719093010886
213,1654.31,10.594448809915285
214,1659.58691,10.72665215305431
215,1665.78,10.89612749594119
216,1673.47,10.310635431235962
217,1677.32,10.834721375434256
218,1685.07,11.046010029339909
219,1696.75,10.680975252258367
220,1704.58,10.452995530978532
221,1716.39,10.132215144220567
222,1724.32,10.07527995395887
223,1736.27,10.283918910626296
224,1744.28,10.14013734517911
225,1756.37,10.379835645271928
226,1764.48,9.934400610842879
227,1776.71,9.959565254361092
228,1784.91,9.993116797848364
229,1793.15,10.268609153742892
230,1805.58,10.159730859297381
231,1813.9099999999999,9.738240793108233
232,1826.49,9.763542795189927
233,1834.9199999999998,9.536036260018918
234,1843.39,9.17478053725516
235,1856.17,9.08648760137313
236,1864.73,9.162433456525697
237,1873.34,9.459328077187333
238,1886.33,9.060969156443393
239,1895.03,8.885373355021352
240,1903.78,9.037948319108382
241,1905.46072,9.008698964690966
242,1916.98,8.824864736272817
243,1925.82,8.743709608512898
244,1934.71,8.79648044835615
245,1943.64,8.908877862281932
246,1957.12,8.628122328095994
247,1966.15,8.953126677228115
248,1975.23,9.0087449939634
249,1984.34,8.757362491260592
250,1993.5,8.615590956160947
251,2002.7,8.68588899514384
252,2016.5900000000001,8.470441595303877
253,2025.8899999999999,8.617288569493105
254,2035.2500000000002,8.370480904806131
255,2044.64,8.50089042068106
256,2054.08,8.297008904159156
257,2063.56,8.246499961719788
258,2073.08,8.470002593362953
259,2077.86,8.286774696225802
260,2082.65,8.425399192609285
261,2097.09,8.156452436404171
262,2106.77,8.111872364377474
263,2116.4900000000002,8.10834986643331
264,2126.26,8.112087336092316
265,2136.08,7.793264773354489
266,2145.94,7.871715784699196
267,2155.84,7.961864370126436
268,2165.79,7.8009139231568465
269,2175.79,7.728828443790423
270,2185.83,7.631019538506534
271,2187.7616199999998,7.6526161723833575
272,2195.92,7.754283115159623
273,2206.06,7.627531267550604
274,2216.24,7.410534237110779
275,2226.4700000000003,7.275627228132448
276,2236.75,7.481953240615612
277,2247.0699999999997,7.297204070267972
278,2257.44,7.103711921381824
279,2262.65,7.169616357669496
280,2273.09,7.22326263882944
281,2283.58,7.285643941450879
282,2294.12,7.080161265533811
283,2304.71,7.044126611078237
284,2315.35,6.844921978084159
285,2326.04,6.168283366551572
286,2336.77,6.542402572188181
287,2347.56,6.435471003578584
288,2352.9700000000003,6.6427005257122325
289,2363.83,6.361759387148727
290,2374.74,6.411328270046715
291,2385.71,6.192500378698495
292,2396.72,6.32074730451947
293,2402.24,6.199232073868407
294,2413.33,6.241287634027772
295,2424.47,6.3844892156486335
296,2435.66,6.254170818730987
297,2446.9,6.372134443274834
298,2452.54,6.320348664131355
299,2463.86,6.258188923013593
300,2475.24,6.123608407649627
301,2486.66,6.144513709454852
302,2492.39,5.996055768942063
303,2503.9,6.242163909377977
304,2511.88643,5.98996693187472
305,2515.46,5.879561045463859
306,2527.07,5.815351592668489
307,2532.89,5.851479918657374
308,2544.5800000000004,5.7782137452570375
309,2556.33,5.949481781402982
310,2562.2200000000003,5.843323351862521
311,2574.0499999999997,5.9699586674035015
312,2585.9300000000003,5.895992157566376
313,2597.87,5.82301185727553
314,2603.85,5.718556742054487
315,2615.8700000000003,5.6575827211586756
316,2627.95,5.754218909809143
317,2634.0099999999998,5.851645073983136
318,2646.1600000000003,6.064412507104258
319,2652.26,6.146014810975769
320,2664.5099999999998,5.786379593340689
321,2676.81,5.896951550327505
322,2682.98,5.873245098669672
323,2695.36,5.715593335051525
324,2707.8,5.778758780979654
325,2714.04,5.608240573792479
326,2726.5699999999997,5.567461334040025
327,2732.8599999999997,5.679725301474747
328,2745.47,5.272438341117328
329,2758.14,5.304098590306188
330,2764.4999999999995,5.386105802211565
331,2777.2599999999998,5.468761365719839
332,2783.66,5.296994717322736
333,2796.5099999999998,4.8454965951504265
334,2802.96,4.95419212137522
335,2815.9,5.339959313522326
336,2822.3900000000003,5.493021979444638
337,2835.41,5.37779645098678
338,2841.95,5.29373229153099
339,2855.07,5.1498911123169275
340,2868.25,5.404899142649143
341,2874.86,5.410580227664009
342,2884.0315,5.363482359802096
343,2888.1299999999997,5.344839316363368
344,2894.79,5.319841623421839
345,2908.15,5.552219836980575
346,2928.31,5.393190955644057
347,2948.6099999999997,5.310569672353813
348,2969.04,5.345125087249393
349,2989.62,5.312993000051698
350,3010.35,5.322289410760725
351,3031.2099999999996,5.279155519655577
352,3052.23,5.241080026317599
353,3073.38,5.223752231165449
354,3087.57,5.227758133141381
355,3108.97,5.189017834500434
356,3130.52,5.113535033766209
357,3152.22,5.084656730938706
358,3166.77,5.061956027890773
359,3188.72,4.882769221574475
360,3210.83,4.947084813025346
361,3233.08,4.766243002522492
362,3248.0,4.91949059431114
363,3270.52,4.978077080040386
364,3293.1899999999996,4.9108420636763555
365,3308.39,4.887069851557551
366,3311.31121,4.873577780581508
367,3323.66,4.821621708657176
368,3331.3199999999997,4.854238381651605
369,3338.9999999999995,4.699272079901894
370,3346.7000000000003,4.852133803408043
371,3354.42,4.745808552170052
372,3362.1499999999996,4.629330313559992
373,3369.9,4.63969710020579
374,3377.6699999999996,4.66469791210745
375,3385.45,4.70015373663704
376,3393.26,4.803439599050419
377,3401.0800000000004,4.9513524740917285
378,3408.9199999999996,4.7032403743888995
379,3416.7799999999997,4.689139299941929
380,3424.65,4.82000623812289
381,3432.5499999999997,4.88684421418764
382,3440.46,4.769880202880319
383,3448.39,4.569107216828861
384,3456.34,4.603763256033261
385,3464.31,4.484553320493522
386,3472.2999999999997,4.691270410209643
387,3480.3,4.499162512553694
388,3488.3199999999997,4.596794640153606
389,3496.36,4.553030793009375
390,3504.4199999999996,4.6440689711210075
391,3512.5,4.559227174488498
392,3520.6,4.661446403111851
393,3528.7200000000003,4.415852656991062
394,3536.8500000000004,4.601527923498203
395,3545.0,4.6912252152612055
396,3553.1800000000003,4.703019544907997
397,3561.37,4.63522688718272
398,3569.58,4.421071254713302
399,3577.81,4.383207647499745
400,3586.05,4.246733052914117
401,3594.3199999999997,4.41181449621228
402,3602.61,4.608558964766303
403,3610.91,4.407259445948256
404,3619.2400000000002,4.506599965013999
405,3627.5800000000004,4.600781496707672
406,3635.9399999999996,4.349970053657206
407,3643.5099999999998,4.706586613000264
408,3646.19,4.58469299728552
409,3648.8599999999997,4.750543368942847
410,3651.53,4.863030740600175
411,3654.21,4.235754124885432
412,3656.88,4.508329496542759
413,3659.5499999999997,4.753130868200086
414,3662.22,4.691956239857412
415,3664.8999999999996,4.442429624142671
416,3667.57,4.593455995799996
417,3670.2400000000002,4.409173367457323
418,3672.91,4.285897739114651
419,3675.59,4.673757123399907
420,3678.2599999999998,4.571858495057235
421,3680.93,4.320949866714562
422,3683.61,4.399869250999819
423,3686.28,4.604101622657145
424,3688.95,4.587551994314474
425,3691.62,4.4389993659717994
426,3694.2999999999997,4.3679727502570564
427,3696.97,4.536631121914384
428,3699.6400000000003,4.6708074935717105
429,3702.31,4.370748865229038
430,3704.9900000000002,4.437185249514295
431,3707.66,4.306732621171623
432,3710.33,4.297671992828949
433,3713.0,4.502997364486276
434,3715.6800000000003,4.508425748771533
435,3718.3500000000004,4.29636912042886
436,3721.02,5.282941492086187
437,3723.7,6.056660876371444
438,3726.37,7.238271248028771
439,3729.04,8.077241619686099
440,3731.7099999999996,7.021218991343426
441,3734.3900000000003,5.985133375628681
442,3737.06,5.3538247472860085
443,3739.73,4.6228111189433365
444,3742.4,4.4881454906006635
445,3745.08,4.65584487488592
446,3747.7500000000005,4.427873246543246
447,3750.42,4.2492076182005745
448,3753.1,4.085343002485832
449,3755.77,4.623949374143159
450,3758.44,4.567923745800485
451,3761.1099999999997,4.549501117457813
452,3763.79,4.797244501743069
453,3766.4599999999996,4.450221873400396
454,3769.13,4.678796245057724
455,3771.8,4.39122061671505
456,3774.48,4.542693001000308
457,3777.15,4.787027372657635
458,3779.8199999999997,4.8388187443149615
459,3782.4999999999995,5.205455128600219
460,3785.17,5.305617500257545
461,3787.84,4.946736871914872
462,3790.51,4.846867243572199
463,3793.19,4.611226627857457
464,3795.8599999999997,4.590619999514784
465,3798.5299999999997,4.268561371172112
466,3801.2000000000003,4.6241457428294375
467,3801.8939600000003,4.582077883560252
468,3803.88,4.462259410494783
469,3806.55,4.614840183808086
470,3809.22,4.848712957121391
471,3811.89,5.115820730434693
472,3814.5699999999997,4.852713413011343
473,3817.2400000000002,4.944443186324646
474,3819.9100000000003,5.02712295963795
475,3822.59,4.654794642214599
476,3825.2599999999998,4.357071415527903
477,3827.93,4.378586188841206
478,3830.6,4.33191496215451
479,3833.28,4.468717644731159
480,3835.9500000000003,4.277094418044463
481,3838.62,4.356964191357767
482,3841.29,4.40796896467107
483,3843.97,4.592828647247719
484,3846.64,4.516511420561022
485,3849.3100000000004,5.040914193874325
486,3851.9900000000002,4.851297876450975
487,3854.66,5.344181649764279
488,3857.33,5.273483423077582
489,3860.0,5.189210196390885
490,3862.68,5.847774878967535
491,3865.3500000000004,5.733700652280838
492,3868.02,5.987235425594141
493,3870.69,6.123435198907446
494,3873.37,5.816323881484095
495,3876.04,5.438401654797398
496,3878.71,5.288908428110702
497,3881.3799999999997,4.852005201424005
498,3884.06,4.849313884000654
499,3886.73,4.344849657313958
500,3889.4,4.674993430627261
501,3892.08,4.81678711320391
502,3894.75,4.669788886517214
503,3897.4199999999996,4.898669659830517
504,3900.09,4.847161433143821
505,3902.77,5.138276115720471
506,3905.44,5.4144338890337735
507,3908.11,5.388671662347077
508,3910.7799999999997,5.468388435660381
509,3913.4600000000005,5.756223118237029
510,3916.13,5.793498891550334
511,3918.8,5.321801664863637
512,3921.48,5.360301347440286
513,3924.15,5.19161612075359
514,3926.8199999999997,5.121229894066894
515,3929.49,4.944897667380197
516,3932.1699999999996,5.119457349956846
517,3934.84,4.801606123270149
518,3937.51,4.944980896583453
519,3940.18,4.796735669896757
520,3942.86,4.963649352473406
521,3945.5299999999997,5.28864512578671
522,3948.2,5.4022188991000135
523,3950.8700000000003,5.315916672413316
524,3953.55,5.387183354989966
525,3956.22,5.266711128303269
526,3958.89,5.091627901616573
527,3961.5699999999997,4.750350584193223
528,3964.24,4.786844357506526
529,3966.9100000000003,4.691492130819829
530,3969.58,4.786965904133133
531,3972.26,4.5893935867097815
532,3974.93,4.611844360023086
533,3977.6,4.717148133336389
534,3980.27,4.699810906649692
535,3982.9500000000003,4.997168589226342
536,3985.6200000000003,5.206856362539645
537,3988.29,5.2375781358529485
538,3990.97,5.472831818429598
539,3993.64,5.439113591742902
540,3996.31,5.311931365056205
541,3998.9799999999996,5.389463138369509
542,4001.6600000000003,5.405493820946157
543,4004.33,5.438399594259462
544,4007.0,5.374098367572765
545,4009.67,5.482680140886068
546,4012.35,5.174478823462717
547,4015.0200000000004,5.357954596776021
548,4017.69,5.404123370089325
549,4020.36,5.562635143402628
550,4023.04,5.703645825979278
551,4025.71,5.629826599292581
552,4028.3799999999997,5.3856223726058845
553,4031.0600000000004,5.377000055182533
554,4033.73,5.436899828495838
555,4036.4,5.49055860180914
556,4039.07,5.346057375122443
557,4041.75,5.228526057699093
558,4044.42,5.391873831012397
559,4047.0899999999997,5.3473886043257
560,4049.76,5.376550377639004
561,4052.44,5.403035060215653
562,4055.11,5.677632833528957
563,4057.78,5.53250860684226
564,4060.46,5.46506228941891
565,4063.1299999999997,5.679900062732213
566,4065.8,5.694394836045516
567,4068.4700000000003,5.69640760935882
568,4071.15,5.455924291935469
569,4073.82,5.558575065248773
570,4076.49,5.554814838562077
571,4079.16,5.58428861187538
572,4081.8399999999997,5.653524294452029
573,4084.51,5.501067067765332
574,4087.1800000000003,5.5634628410786355
575,4089.85,5.690300614391939
576,4092.5299999999997,5.548895296968589
577,4095.2,5.278166070281893
578,4097.87,5.316220843595196
579,4100.55,5.0752705261718445
580,4103.22,5.081338299485148
581,4105.889999999999,5.094740072798452
582,4108.56,5.231250846111755
583,4111.24,5.2341755286884055
584,4113.91,5.189534302001708
585,4116.58,5.211830075315012
586,4119.25,5.281559848628316
587,4121.929999999999,5.694220531204965
588,4124.6,5.564075304518267
589,4127.27,5.4184820778315705
590,4129.95,5.348227760408221
591,4132.62,5.535136533721524
592,4135.29,5.446338307034829
593,4137.96,5.472223080348131
594,4140.64,5.57016976292478
595,4143.31,5.545188536238084
596,4145.9800000000005,5.425341309551388
597,4148.65,5.5659090828646915
598,4151.33,5.51796676544134
599,4154.0,5.519979538754644
600,4156.67,5.567396312067947
601,4159.35,5.5548729946445965
602,4162.02,5.5021187679579
603,4164.69,5.319234541271204
604,4167.36,5.4061273145845075
605,4170.04,5.474895997161156
606,4172.71,5.14003877047446
