,lambda (Angstroms),Total Flux (erg/s/cm^2/Angstrom)
0,102.01,60.06166411751058
1,103.91,59.89048809406776
2,104.712855,59.818156764435564
3,106.08,59.17116430134335
4,108.05,58.238874637634204
5,110.06,57.28765523456043
6,113.93,55.4562029510304
7,117.94000000000001,53.5584965797242
8,120.22644299999999,52.4764523281727
9,120.96000000000001,52.18540260048777
10,124.92,50.614213283730045
11,126.95,49.808780376402574
12,128.13,49.34059770120747
13,131.10999999999999,48.15823806385102
14,132.02,47.797181932982774
15,133.86,47.067134371663556
16,136.98,45.82922763725814
17,138.038426,45.40928126762057
18,139.84,44.89835286300465
19,143.1,43.97381321107376
20,147.11,42.83657271913885
21,150.88,41.76739649595791
22,155.11,40.567763757529676
23,158.489319,39.60938510372646
24,159.09,39.480594503833366
25,162.05,38.84594786835565
26,165.82,38.03763103887554
27,170.07999999999998,37.12425446238291
28,172.84,36.53248935671487
29,176.87,35.66842653946652
30,180.15,34.96516945753961
31,181.82,34.607108687415625
32,181.970086,34.57492910133633
33,186.06,33.90593137866507
34,190.82999999999998,33.12569024552279
35,193.93,32.61861529556968
36,197.99,31.954510684067202
37,202.14,31.27568454246682
38,204.95,30.816045637731357
39,208.929613,30.165090134875527
40,210.21,30.007633010407297
41,216.1,29.2833032130189
42,220.10999999999999,28.790168665656868
43,223.17,28.413861504855877
44,226.79999999999998,27.967457915450186
45,229.95999999999998,27.57885316414437
46,234.23,27.053744865435345
47,239.88329199999998,26.35852458601153
48,240.24,26.324720606116937
49,245.84,25.79402798389291
50,252.14000000000001,25.196998824989695
51,256.83,24.75254371539252
52,259.8,24.47108716513733
53,264.02,24.07117241622206
54,268.93,23.605868747758255
55,273.93,23.132036093553793
56,275.42287,22.99056198388656
57,279.03000000000003,22.72821873226151
58,284.21,22.35148210229832
59,290.16,21.918744049345268
60,296.24,21.476551276011076
61,301.05,21.126724407477262
62,308.07,20.616166331174565
63,316.227766,20.02285961275769
64,318.15999999999997,19.917897808049258
65,327.83,19.39260914526148
66,337.79,18.85156726010189
67,348.05,18.29422893905822
68,356.98,17.809138251112405
69,363.078055,17.477883024022002
70,366.14,17.353320039607556
71,374.67,17.00631106483161
72,385.16,16.57956714961155
73,395.03999999999996,16.177639086148673
74,405.18,15.765133908655665
75,413.66,15.420159080825014
76,416.86938299999997,15.28959813749009
77,422.32,15.120266316844601
78,430.17,14.876394078866058
79,441.21,14.533419834330125
80,451.49,14.214055971804655
81,459.88,13.953407764265018
82,469.51,13.65423726067083
83,478.630092,13.370907916478398
84,480.45,13.327424904016185
85,490.51,13.087061143047817
86,499.63,12.869157662636695
87,506.58000000000004,12.703102132703197
88,512.4399999999999,12.563103167649428
89,519.57,12.392748556792947
90,530.45,12.132795780989326
91,540.3100000000001,11.897211147172607
92,549.5408739999999,11.676674173657203
93,550.36,11.661745622826926
94,560.59,11.475299633846923
95,569.7,11.309268592850806
96,580.29,11.11624703079063
97,589.7199999999999,10.944398061437688
98,600.6800000000001,10.744646874418994
99,610.44,10.56678718960089
100,620.36,10.386009341569375
101,630.44,10.202313768824448
102,630.957344,10.192884775877939
103,640.69,10.05226631989424
104,649.6,9.923577073023003
105,658.6400000000001,9.79299712598215
106,664.73,9.705029924121002
107,675.53,9.548992488537685
108,684.93,9.413186305504057
109,694.4599999999999,9.275639057900813
110,705.74,9.112655066260459
111,715.56,8.970897669601923
112,724.43596,8.842699500719416
113,725.51,8.83118616484776
114,735.61,8.722914472658331
115,745.84,8.613349166069542
116,754.48,8.520791579919182
117,764.9699999999999,8.408395736631652
118,775.61,8.29443048011408
119,784.59,8.198273889942294
120,795.51,8.081267440595312
121,804.72,7.9826120416708
122,815.91,7.862711486309744
123,825.36,7.761618374817163
124,831.763771,7.692682180933641
125,834.92,7.667254083603081
126,844.59,7.590341494500777
127,854.37,7.512067448689968
128,864.26,7.433060811170653
129,874.2700000000001,7.353109692696602
130,884.39,7.272372212514047
131,894.63,7.190565535376759
132,904.99,7.107541970284736
133,915.47,7.026237340237978
134,923.94,7.004898610683013
135,934.6400000000001,6.987506727219245
136,945.46,7.023682720800743
137,954.21,7.077421855351398
138,954.992586,7.073247610885782
139,965.26,7.020260185270919
140,974.19,6.608150911687568
141,985.4699999999999,6.772441969792808
142,994.59,6.754054954643853
143,1006.11,6.894712798666225
144,1015.42,6.8243594519516675
145,1024.81,6.4151453972094865
146,1034.3,6.474086257432778
147,1043.87,6.858009109628448
148,1055.95,6.759958097457464
149,1065.72,6.470738079584075
150,1075.59,6.557700376676161
151,1085.54,6.280432065740622
152,1095.58,6.47713950827401
153,1096.4782,6.4680999541601505
154,1105.72,6.3882287040389345
155,1115.95,6.279715163441206
156,1126.28,6.127846706415348
157,1134.08,6.349875625021188
158,1144.5800000000002,6.185403500067506
159,1155.1699999999998,6.210182480328511
160,1165.86,6.1824548441613825
161,1173.94,5.778037656768456
162,1184.8,6.052758052673507
163,1195.76,5.596660432150427
164,1204.05,5.330822290258428
165,1215.19,5.159867680164714
166,1223.62,5.488447835273332
167,1234.94,5.869900735608982
168,1246.36,5.933682619516506
169,1255.0,5.805105120126049
170,1258.92541,5.689633170865612
171,1263.7,5.557985206413015
172,1275.3999999999999,5.900067634476516
173,1284.24,5.9575638690133825
174,1296.1200000000001,5.504158211354783
175,1305.1,5.4548084903300165
176,1314.15,5.795286291524434
177,1326.31,5.672214722742567
178,1335.5,5.422024568375351
179,1344.7600000000002,5.716596936227318
180,1354.08,5.626820608838585
181,1363.47,5.390632803669035
182,1376.0800000000002,5.430011020581918
183,1385.62,5.411333477310619
184,1395.23,5.180084456258503
185,1404.9,5.193554739965686
186,1414.64,5.168801545892053
187,1424.4399999999998,5.191522656577721
188,1434.32,5.134932506942454
189,1440.94,5.204922465385221
190,1445.43977,5.208425932731144
191,1447.59,5.213072938311255
192,1454.27,5.1409288269357925
193,1464.3500000000001,4.977155419351262
194,1474.5,4.95201031449184
195,1484.72,4.961360512357526
196,1495.01,4.968401012948318
197,1505.38,4.843611859510662
198,1512.3200000000002,4.646371872542741
199,1515.81,4.74773396555167
200,1526.32,4.657231417564228
201,1533.36,4.453436863060747
202,1543.99,4.565479834030633
203,1554.69,4.460179107725626
204,1565.47,4.4439887273921705
205,1576.32,4.490354649783823
206,1583.6,4.550844133194996
207,1594.58,4.542829617790418
208,1605.63,4.4891864051109485
209,1616.7599999999998,4.468444538403031
210,1624.22,4.361946800250194
211,1635.48,4.423167495746047
212,1646.82,4.407988537213451
213,1654.42,4.272557404510829
214,1659.58691,4.315503426062673
215,1665.88,4.373835436029551
216,1673.5700000000002,4.181249668874959
217,1677.43,4.340698212279809
218,1685.17,4.407083535065695
219,1696.8600000000001,4.282788963149289
220,1704.69,4.203474847828036
221,1716.5,4.086759691768776
222,1724.43,4.065357756328477
223,1736.3799999999999,4.128757252102553
224,1744.4,4.080375878555113
225,1756.49,4.1508120261625265
226,1764.5900000000001,4.006487596519849
227,1776.8300000000002,4.005777013948694
228,1785.03,4.018257764186973
229,1793.2699999999998,4.099859986377633
230,1805.7,4.066353145580292
231,1814.0300000000002,3.91298092966381
232,1826.61,3.9230783586879014
233,1835.04,3.8446303226523746
234,1843.5099999999998,3.716199758569231
235,1856.29,3.6748205473552304
236,1864.8500000000001,3.6926125451649447
237,1873.46,3.801575632915138
238,1886.45,3.6472763994511412
239,1895.1599999999999,3.571828667082289
240,1903.9,3.633258788677722
241,1905.46072,3.622256510097575
242,1917.1,3.5471659338452644
243,1925.9499999999998,3.5177962380450203
244,1934.84,3.5548149345801425
245,1943.77,3.5696340234506314
246,1957.24,3.4582226423851754
247,1966.28,3.5642393101779204
248,1975.35,3.5886687722221904
249,1984.47,3.490632224685668
250,1993.63,3.436016069484511
251,2002.83,3.4652523066187215
252,2016.7199999999998,3.3830690450746106
253,2026.03,3.438068861131077
254,2035.3799999999999,3.3361850695229096
255,2044.77,3.368720670250109
256,2054.21,3.2963472613965155
257,2063.69,3.2824352448782883
258,2073.2200000000003,3.3430792187792684
259,2078.0,3.253789102855521
260,2082.79,3.2947785850156155
261,2097.22,3.1956086199989464
262,2106.9,3.19063956515755
263,2116.63,3.180670500735361
264,2126.4,3.1805138286485386
265,2136.21,3.0792434488970817
266,2146.08,3.0800138576486744
267,2155.98,3.1049509606517915
268,2165.9300000000003,3.053423054074116
269,2175.9300000000003,3.0212091379156485
270,2185.9700000000003,2.9710478140925467
271,2187.7616199999998,2.9762749882450645
272,2196.06,3.004888556280031
273,2206.2000000000003,2.9615902093531976
274,2216.38,2.8996198756534772
275,2226.61,2.8462416584876493
276,2236.89,2.887303857855712
277,2247.2200000000003,2.8308258737576657
278,2257.5899999999997,2.7875077028867334
279,2262.79,2.812554022411434
280,2273.24,2.8268112779947274
281,2283.73,2.8395954468051334
282,2294.27,2.779718732149431
283,2304.86,2.76249373402762
284,2315.5,2.7111173524397008
285,2326.19,2.499440087385673
286,2336.9300000000003,2.6370928388655357
287,2342.31,2.620411117912246
288,2353.12,2.661946092539557
289,2363.99,2.5939803870075373
290,2374.9,2.602814694702631
291,2385.86,2.545850018931616
292,2396.87,2.5910885596944926
293,2402.4,2.5481461883428764
294,2413.4900000000002,2.558578155559979
295,2424.63,2.5831837393109733
296,2435.8199999999997,2.537012839595859
297,2447.06,2.5754842564146356
298,2452.7,2.5557521214375805
299,2464.02,2.5438880647105835
300,2475.4,2.5049139278242554
301,2486.8199999999997,2.5298913041650417
302,2492.56,2.4736900022557684
303,2504.0600000000004,2.54019090505078
304,2511.88643,2.4800425716372496
305,2515.62,2.452405148349763
306,2527.2299999999996,2.4378696259983044
307,2533.06,2.4428098948778034
308,2544.75,2.413283128703079
309,2556.4900000000002,2.4518138226388126
310,2562.39,2.4375660156729553
311,2574.22,2.4763075978075153
312,2586.1,2.459091240052534
313,2592.06,2.450505325219227
314,2604.0200000000004,2.4134824236409793
315,2616.04,2.4003889141952834
316,2622.07,2.4235595235166185
317,2634.18,2.422424302269748
318,2646.3399999999997,2.4677833411333365
319,2652.4399999999996,2.4631522746093144
320,2664.68,2.391014569649636
321,2676.98,2.4188554568225094
322,2683.15,2.403667514453129
323,2695.5299999999997,2.3715413578027364
324,2707.98,2.376423225306986
325,2714.22,2.345122207092248
326,2726.75,2.341598330773232
327,2733.03,2.3762095406468613
328,2745.65,2.2740043525266707
329,2751.98,2.274909222510759
330,2764.68,2.2865904905673027
331,2777.44,2.313132850756397
332,2783.84,2.2939343448951273
333,2796.69,2.1461047932830475
334,2803.14,2.1942639475322374
335,2816.0800000000004,2.289848484118983
336,2822.5699999999997,2.29746106645654
337,2835.6,2.246290291242112
338,2842.1400000000003,2.2312624336901266
339,2855.26,2.219212646674525
340,2861.84,2.2528582172109073
341,2875.05,2.228332818394131
342,2884.0315,2.22564587665454
343,2888.3199999999997,2.225404502293087
344,2894.9700000000003,2.2075977485238467
345,2908.3399999999997,2.2465497667351646
346,2928.5,2.2148957826768374
347,2948.7999999999997,2.195993650118105
348,2969.2400000000002,2.1937076690589676
349,2989.82,2.1830228394994253
350,3010.54,2.178588261439478
351,3031.41,2.1677466957005254
352,3052.42,2.1483568814611673
353,3066.51,2.136809578813259
354,3087.7700000000004,2.127838385108892
355,3109.17,2.1041103429041206
356,3130.73,2.0886962738417427
357,3152.43,2.07947195627896
358,3166.98,2.063567951415435
359,3188.93,2.025595154387643
360,3211.03,2.030258269680846
361,3233.29,2.004355258116443
362,3248.22,2.004665464466105
363,3270.73,1.9969751734366925
364,3293.4,1.9810112555496748
365,3308.6,1.9730534040771266
366,3311.31121,1.9727273376205043
367,3323.88,1.9733564399947015
368,3331.54,1.9665279709441443
369,3339.22,1.9334738299117318
370,3346.92,1.961099716897464
371,3354.63,1.9240310678922685
372,3362.3599999999997,1.929254346905218
373,3370.12,1.9066943179453844
374,3377.89,1.905884152994623
375,3385.67,1.9330677520529345
376,3393.48,1.9425941431384626
377,3401.2999999999997,1.9564819982330637
378,3409.14,1.9006772813458088
379,3417.0,1.921976692476699
380,3424.88,1.929427531625734
381,3432.77,1.9370045347838416
382,3440.68,1.927974165960094
383,3448.62,1.8966029891635632
384,3456.5699999999997,1.8716746763761047
385,3464.53,1.8642426275977186
386,3472.52,1.88042127084655
387,3480.53,1.8709173421135257
388,3488.55,1.8773260773895741
389,3496.59,1.8777914406837675
390,3504.65,1.854341131996105
391,3512.73,1.8468528513265876
392,3520.83,1.857067398675215
393,3528.9500000000003,1.8475342740419871
394,3537.0800000000004,1.8598582134178314
395,3545.2299999999996,1.8643138808118214
396,3553.4100000000003,1.8647454402330272
397,3561.6,1.8611267636633062
398,3569.81,1.8334179151117298
399,3578.04,1.796817894578298
400,3586.29,1.785614302063011
401,3594.55,1.7895427735567966
402,3602.84,1.809007437077799
403,3611.15,1.8014253286169464
404,3619.4700000000003,1.8114605841651663
405,3627.8100000000004,1.8338379677315304
406,3636.17,1.8080386793160397
407,3636.96,1.7753736360327577
408,3639.6299999999997,1.9246434264550834
409,3642.2900000000004,1.737873552868336
410,3644.96,1.6436174432906614
411,3647.63,1.6545886337129867
412,3650.29,1.5929637601262396
413,3652.96,1.920531750548565
414,3655.63,1.7305052409708903
415,3658.2999999999997,2.014520431393216
416,3660.9599999999996,2.0467292578064686
417,3663.63,1.6329873482287938
418,3666.3,1.8326094386511191
419,3668.96,1.7259624650643723
420,3671.63,1.7630427554866974
421,3674.2999999999997,1.595465345909023
422,3676.96,1.6713679723222756
423,3679.6299999999997,1.7305740627446013
424,3682.3,1.8443493531669262
425,3684.96,1.9451058795801792
426,3687.63,1.6228996700025045
427,3690.3,1.5756047604248298
428,3692.96,1.4821819868380828
429,3695.6299999999997,1.688964677260408
430,3698.2999999999997,1.7816551676827337
431,3700.9599999999996,1.6744157940959865
432,3703.63,1.5391204845183117
433,3706.3,1.749132774940637
434,3708.96,1.6733860013538897
435,3711.63,1.978756191776215
436,3714.2999999999997,1.6498385821985406
437,3716.96,1.7284331086117934
438,3719.6299999999997,1.9219723990341189
439,3722.3,2.308648089456444
440,3724.96,2.636352915869697
441,3727.63,3.5933606062920225
442,3730.2999999999997,4.124666296714348
443,3732.96,3.9990421231276008
444,3735.6299999999997,3.0675058135499262
445,3738.3,2.358394503972251
446,3740.96,2.0651613303855045
447,3743.63,1.9282500208078295
448,3746.3,1.8368291112301547
449,3748.96,1.926119537643408
450,3751.63,1.8000113280657333
451,3754.2999999999997,1.6112052184880585
452,3756.9599999999996,1.8356895449013115
453,3759.63,1.7702702353236366
454,3762.3,1.8375510257459617
455,3764.96,1.822295952159215
456,3767.63,1.77546724258154
457,3770.2999999999997,1.940205333003866
458,3772.96,1.8175158594171186
459,3775.6299999999997,1.9310398498394439
460,3778.3,2.1455735402617693
461,3780.96,2.057913366675022
462,3783.63,2.0095950570973473
463,3786.3,2.2685407475196726
464,3788.96,2.1632055739329257
465,3791.6299999999997,2.2035152643552514
466,3794.2999999999997,2.1356549547775767
467,3796.9599999999996,2.0268727811908294
468,3799.63,1.8770957716131544
469,3801.8939600000003,1.8768273951998689
470,3802.3,1.8768279689931353
471,3804.96,1.880608778519785
472,3807.63,2.0287987516160833
473,3810.2999999999997,1.9445707247123822
474,3812.96,2.0550316342390316
475,3815.6299999999997,2.0338426073353304
476,3818.3,1.9611525804316288
477,3820.9700000000003,2.032809553527928
478,3823.63,2.138784463054577
479,3826.3,2.0985204361508756
480,3828.97,2.0757704092471743
481,3831.6299999999997,1.844476818773824
482,3834.2999999999997,1.8667497918701226
483,3836.9700000000003,1.8184289649664211
484,3839.63,1.6631481744930707
485,3842.3,1.6868929475893695
486,3844.97,1.953607120685668
487,3847.63,2.0467880302123174
488,3850.2999999999997,1.9623800033086163
489,3852.97,1.969740976404915
490,3855.63,2.0947378859315644
491,3858.3,2.153849859027863
492,3860.9700000000003,2.0785578321241616
493,3863.63,2.233737741650811
494,3866.2999999999997,2.2257737147471097
495,3868.97,2.252675687843409
496,3871.6299999999997,2.1761195973700582
497,3874.3,2.1372365704663565
498,3876.9700000000003,2.0738425435626553
499,3879.63,1.9758774530893048
500,3882.3,2.1861014261856035
501,3884.97,2.0714393992819025
502,3887.63,2.0710033088085518
503,3890.2999999999997,1.7981772819048505
504,3892.9700000000003,1.838107955001149
505,3895.63,1.8842551645277985
506,3898.3,1.939187137624097
507,3900.9700000000003,1.939676110720396
508,3903.63,2.083658020247045
509,3906.2999999999997,2.1988479933433442
510,3908.97,2.2769819664396427
511,3911.6299999999997,2.054714875966292
512,3914.3,2.137765849062591
513,3916.9700000000003,2.4404938221588894
514,3919.63,2.164537731685539
515,3922.3,2.2411287047818376
516,3924.97,2.1693176778781362
517,3927.6299999999997,2.366290587404786
518,3930.2999999999997,2.1744485605010846
519,3932.9700000000003,1.960193533597383
520,3935.63,2.0699374431240325
521,3938.3,2.096121416220331
522,3940.97,2.07410738931663
523,3943.63,2.1295692988432795
524,3946.2999999999997,2.1135652719395783
525,3948.97,2.2491402450358766
526,3951.6299999999997,2.1994111545625263
527,3954.3,2.092572127658825
528,3956.9700000000003,2.0011481007551235
529,3959.63,2.043617010281773
530,3962.3,1.944637983378072
531,3964.97,2.0128669564743706
532,3967.6299999999997,1.83939086600102
533,3970.2999999999997,1.9170058390973188
534,3972.9700000000003,1.6405370121936171
535,3975.63,1.7761918217202668
536,3978.3,1.8214160948165654
537,3980.97,1.958319667912864
538,3983.64,2.052872641009163
539,3986.2999999999997,2.0351385505358124
540,3988.97,2.009265523632111
541,3991.6400000000003,2.1699264967284093
542,3994.3,2.187812406255059
543,3996.9700000000003,2.2585713793513578
544,3999.64,2.0807443524476565
545,4002.2999999999997,2.279888261974306
546,4004.97,2.2314942350706044
547,4007.64,2.0304832081669035
548,4010.3,2.0796821176935527
549,4012.9700000000003,2.1090240907898514
550,4015.64,2.08894806388615
551,4018.3,2.272461973412799
552,4020.97,2.2583609465090984
553,4023.64,2.1988419196053965
554,4026.2999999999997,2.2979998291320465
555,4028.9700000000003,2.3374988022283447
556,4031.6400000000003,2.1995077753246437
557,4034.3,2.186152684851293
558,4036.97,2.223067657947592
559,4039.64,2.1957416310438904
560,4042.2999999999997,2.2599065405705403
561,4044.97,2.1500345136668386
562,4047.6400000000003,2.249540486763137
563,4050.3,2.119994396289787
564,4052.9700000000003,2.051843369386085
565,4055.64,2.1157483424823837
566,4058.3,2.1533002520090334
567,4060.97,2.334939225105332
568,4063.64,2.134519198201631
569,4066.2999999999997,2.1451021077282806
570,4068.9700000000003,2.205776080824579
571,4071.6400000000003,2.2852730539208777
572,4074.3,2.188564963447527
573,4076.97,2.272961936543826
574,4079.64,2.117869909640125
575,4082.2999999999997,2.142341819166774
576,4084.97,2.183904792263073
577,4087.6400000000003,2.1873357653593715
578,4090.3,2.1945976748860208
579,4092.9700000000003,2.0130206479823194
580,4095.64,2.180392621078618
581,4098.3,2.0074915306052676
582,4100.97,2.0130575037015666
583,4103.64,1.948981476797865
584,4106.3,1.8444663863245145
585,4108.97,1.9549363594208131
586,4111.639999999999,1.814291332517112
587,4114.3,2.0463092420437614
588,4116.969999999999,2.0963422151400604
589,4119.64,2.0788311882363586
590,4122.3,2.162341097763008
591,4124.97,2.2031860708593065
592,4127.64,2.1876490439556053
593,4130.3,2.075615953482255
594,4132.97,1.9826659265785538
595,4135.639999999999,2.1007988996748526
596,4138.3,2.2516368092015018
597,4140.97,2.2172937822978005
598,4143.64,2.0869477553940987
599,4146.31,2.1414847284903975
600,4148.97,2.0446686380170473
601,4151.639999999999,2.007544611113346
602,4154.31,2.0188355842096444
603,4156.97,2.070366493736294
604,4159.64,2.0914914668325926
605,4162.31,2.1947834399288912
