,lambda (Angstroms),Total Flux (erg/s/cm^2/Angstrom)
0,100.08,86.54432658214107
1,101.94,86.30356452241136
2,104.08000000000001,86.02655871175284
3,104.712855,85.94464071536866
4,106.00999999999999,85.06266029757634
5,107.98,83.72317903452948
6,109.99,82.35650018261005
7,114.12,79.54834910879723
8,118.13000000000001,76.82179080280305
9,120.22644299999999,75.39633593019877
10,120.88,75.02377048491593
11,125.13,72.601023655598
12,126.87,71.60912260199133
13,128.04,70.94215465226657
14,131.03,69.2376810035101
15,131.93,68.72462874213693
16,134.07999999999998,67.4990038793183
17,136.89,65.89714070281097
18,138.038426,65.24247119022978
19,140.07,64.41466941192185
20,143.01,63.216713150211625
21,147.01000000000002,61.58684105759446
22,151.13,59.90807234162642
23,155.01,58.32709606352736
24,158.489319,56.909384584273376
25,158.98,56.758228670530436
26,161.94,55.84639086490585
27,166.08999999999997,54.567969707779675
28,169.96,53.37580353267438
29,173.12,52.402355238844144
30,177.16,51.15782016359107
31,180.03000000000003,50.27370746414202
32,181.970086,49.676057758558784
33,182.11999999999998,49.6408257003255
34,185.92999999999998,48.74541821630686
35,191.14,47.520989676394684
36,193.8,46.89584987766837
37,197.86,45.94168893364551
38,202.0,44.96872702700151
39,204.81,44.308335211616686
40,208.929613,43.340164192579266
41,210.07000000000002,43.13867195302736
42,215.95,42.099751042177516
43,219.97,41.389468166182915
44,223.03,40.84880484012135
45,227.17000000000002,40.11731996338513
46,229.8,39.65264760686442
47,234.08,38.89645448587629
48,239.88329199999998,37.871109315978885
49,240.08,37.84432698639088
50,246.24,37.00560180850184
51,251.97,36.225438297527454
52,257.25,35.50651631309398
53,260.23,35.100790236080776
54,263.84999999999997,34.607915237227154
55,268.75,33.940754523492686
56,273.75,33.2599771912269
57,275.42287,33.03220718000401
58,278.84,32.67514238279153
59,284.02,32.1338707364027
60,289.96999999999997,31.512131187629045
61,296.03999999999996,30.877864416566837
62,300.85,30.375253033434344
63,307.86,29.642763733645214
64,316.227766,28.768399222710762
65,317.95,28.63398815198433
66,328.35999999999996,27.821538806333674
67,338.34000000000003,27.042647501881074
68,347.82,26.302779036835517
69,356.73999999999995,25.606617489961852
70,363.078055,25.111966098240018
71,365.89000000000004,24.947617655128724
72,375.28,24.398796823915948
73,384.90999999999997,23.83593807371019
74,394.78,23.25907981821145
75,404.90999999999997,22.66701739006199
76,414.34,22.115856996333715
77,416.86938299999997,21.968018922140207
78,422.03999999999996,21.737230799289403
79,429.89,21.386854042147935
80,440.92,20.89454966642139
81,451.19,20.436156087876178
82,459.57,20.062117605087206
83,470.28000000000003,19.584086078868587
84,478.630092,19.211393649837426
85,480.13,19.159906821500684
86,490.18,18.814900759463836
87,500.44,18.462715706627115
88,506.24,18.263599911849635
89,512.1,18.0624991212579
90,520.42,17.776893203081926
91,530.1,17.444595791282953
92,539.95,17.106444690993605
93,549.5408739999999,16.77723259824936
94,549.99,16.76547247048939
95,560.22,16.497622624771154
96,570.63,16.22505741038515
97,579.9,15.982292850795023
98,589.33,15.735398046266875
99,600.28,15.448639855777566
100,610.0400000000001,15.193031999758501
101,619.95,14.933649676816307
102,630.02,14.66997089413609
103,630.957344,14.645426347149794
104,640.26,14.452325604691717
105,650.66,14.236482493980251
106,658.2,14.07999138180194
107,664.29,13.953614236273305
108,675.08,13.729626956466413
109,684.4699999999999,13.53467207397645
110,695.5899999999999,13.304040860973425
111,705.2700000000001,13.103038002553522
112,716.73,12.865315270287816
113,724.43596,12.705385635506937
114,726.6999999999999,12.670510342259936
115,735.1199999999999,12.540816459802938
116,745.34,12.383490163523778
117,755.71,12.22379814159277
118,764.46,12.08901350890171
119,775.0999999999999,11.925262887597384
120,785.88,11.759275855617995
121,794.98,11.619163551739291
122,804.1800000000001,11.47751651409269
123,815.37,11.305179487064922
124,824.81,11.159969393975368
125,831.763771,11.052433903419624
126,834.36,11.022387939243016
127,845.97,10.889347376563379
128,855.77,10.776558225003479
129,865.6800000000001,10.662673828502596
130,875.6999999999999,10.547535830060745
131,885.8399999999999,10.431112711865092
132,894.04,10.336911621355789
133,904.3900000000001,10.217654534090995
134,914.86,10.099896500072408
135,925.46,10.02610352048721
136,934.02,9.995312634716523
137,944.8299999999999,9.991760971062185
138,954.992586,9.990295549331897
139,955.78,9.990377923104385
140,964.62,9.899344751695404
141,975.79,9.446788244971613
142,984.82,9.557221887163568
143,993.93,9.517315677713816
144,1005.4399999999999,9.622669919012756
145,1014.7399999999999,9.52697405316394
146,1024.13,9.1064602079682
147,1035.99,9.073924729584656
148,1045.58,9.414504930284643
149,1055.25,9.299989849342916
150,1065.02,8.962951991349053
151,1074.87,9.011893451713481
152,1084.82,8.69427763502577
153,1094.85,8.855559336696349
154,1096.4782,8.832267336913894
155,1104.98,8.728011984013216
156,1115.21,8.580523125607247
157,1125.53,8.3985020244587
158,1135.94,8.57082578056758
159,1143.81,8.40046417630023
160,1154.4,8.39020514692396
161,1165.08,8.322904774805117
162,1175.86,7.881262988527858
163,1184.01,8.131443184616941
164,1194.97,7.6651523128545325
165,1206.02,7.36543329834955
166,1214.38,7.2396543947059575
167,1225.6200000000001,7.467742823299984
168,1234.12,7.810048919834615
169,1245.53,7.824113234359333
170,1254.17,7.661729731072177
171,1258.92541,7.540778320044888
172,1265.77,7.3848228278933465
173,1274.5500000000002,7.698257279785298
174,1286.34,7.711134126004673
175,1295.26,7.254675175307203
176,1304.24,7.184654352071409
177,1316.3,7.474130971868327
178,1325.4299999999998,7.346232967286724
179,1334.61,7.078535068923182
180,1343.8700000000001,7.345201940508543
181,1356.3,7.217055946319132
182,1365.7,6.96643891531507
183,1375.17,6.999108433016298
184,1384.7,6.956372278179203
185,1394.3,6.719935672047397
186,1403.96,6.7044073933772665
187,1413.7,6.655936884656038
188,1423.49,6.658892482152872
189,1433.36,6.577457849598609
190,1443.3000000000002,6.605826765749633
191,1445.43977,6.6168668529146295
192,1446.6200000000001,6.62530067562834
193,1456.6499999999999,6.528555583974122
194,1463.3799999999999,6.370027227360673
195,1473.5200000000002,6.33403407787176
196,1483.73,6.333190527942591
197,1494.02,6.3223496632245535
198,1504.37,6.189732312414866
199,1511.32,5.993406640132033
200,1518.29,6.064008539151981
201,1525.3,5.982831580777497
202,1535.8700000000001,5.763446414298425
203,1546.5200000000002,5.857089333030484
204,1553.66,5.763341888124091
205,1564.43,5.724891534672851
206,1575.27,5.753398580781353
207,1586.19,5.785310112100987
208,1593.51,5.775186808919642
209,1604.56,5.713941453707367
210,1615.6799999999998,5.681316698054832
211,1623.14,5.56517959399297
212,1634.39,5.611457951808527
213,1645.72,5.583902994835218
214,1653.3200000000002,5.439004089892838
215,1659.58691,5.48099028506899
216,1664.78,5.52292620101605
217,1672.46,5.322468092142955
218,1676.32,5.491407222318717
219,1684.05,5.553692324976396
220,1695.73,5.423402138565229
221,1703.55,5.338354821978301
222,1715.36,5.2184825855471475
223,1723.2800000000002,5.1930136920217675
224,1735.22,5.252560405570627
225,1743.23,5.20019109280064
226,1755.32,5.265742440941823
227,1763.42,5.10924870892723
228,1775.64,5.106525007048424
229,1783.84,5.11244369809538
230,1796.2,5.187041788502741
231,1804.5,5.154353902611245
232,1817.0,4.984196785304775
233,1825.39,4.998076480168671
234,1833.82,4.911490544257188
235,1846.5300000000002,4.762699115379968
236,1855.05,4.730535760223878
237,1863.61,4.749175774292407
238,1876.53,4.83919803384444
239,1885.1899999999998,4.694783470974517
240,1893.89,4.620013277329213
241,1905.46072,4.655596940770643
242,1907.0200000000002,4.66173195758495
243,1915.82,4.58521814078447
244,1924.67,4.5520684954794435
245,1933.55,4.573506153071687
246,1946.95,4.593940113852776
247,1955.9399999999998,4.493139548735015
248,1964.97,4.608717720813614
249,1974.04,4.629953630088575
250,1983.1499999999999,4.527388276559897
251,1996.9,4.457756437809149
252,2006.1100000000001,4.486891427271374
253,2015.37,4.406395588229053
254,2024.68,4.459643920682182
255,2034.02,4.359865556032583
256,2043.4099999999999,4.404475362878435
257,2052.84,4.320698906920649
258,2067.07,4.287159914526238
259,2071.84,4.379399075192342
260,2076.61,4.301772235858446
261,2086.2,4.3399027286861065
262,2095.83,4.2404269587101275
263,2105.5,4.22296492593051
264,2115.22,4.218871064646346
265,2124.98,4.217764940558541
266,2134.79,4.08916998796619
267,2144.65,4.112179206869289
268,2154.55,4.14530816296875
269,2164.4900000000002,4.078624856264572
270,2174.48,4.044522721055847
271,2184.52,4.000015757342574
272,2187.7616199999998,4.012862533282875
273,2194.6,4.045175989715366
274,2204.73,3.991433384591792
275,2214.91,3.9060460627598097
276,2225.13,3.8507429675611
277,2235.4,3.9267921556539815
278,2245.72,3.8544306270384547
279,2256.09,3.7753963817145193
280,2266.5,3.794417363023858
281,2276.96,3.8145836276247866
282,2287.4700000000003,3.8385921755173076
283,2292.75,3.759745091109364
284,2303.33,3.7422550356101127
285,2313.96,3.6588362634024527
286,2324.64,3.377134274486385
287,2335.37,3.5345279688619082
288,2346.15,3.488316446529022
289,2356.98,3.561001707487728
290,2362.41,3.455615472954559
291,2373.3199999999997,3.470069787179811
292,2384.27,3.3790150280383364
293,2395.2799999999997,3.431901008846772
294,2406.33,3.3716859162884796
295,2417.44,3.3852726636800985
296,2423.0099999999998,3.445604722363385
297,2434.2,3.386558023021549
298,2445.4300000000003,3.435266650312986
299,2456.72,3.403273617554334
300,2462.38,3.3829460861624847
301,2473.75,3.325669206670378
302,2485.17,3.332403710469863
303,2496.64,3.25713579756094
304,2502.4,3.3662693327522737
305,2511.88643,3.2401065818540697
306,2513.95,3.2135012491209105
307,2519.74,3.2386979257830864
308,2525.5499999999997,3.187353044160849
309,2537.2099999999996,3.1947324643475463
310,2543.06,3.1676731661564803
311,2554.79,3.2351911323477283
312,2566.59,3.186879344543528
313,2572.5,3.2459501714992207
314,2584.38,3.213618650557365
315,2596.31,3.1815565339044745
316,2602.29,3.136490906864718
317,2614.3,3.109443357074172
318,2626.37,3.1464009324303843
319,2632.4199999999996,3.18489515139518
320,2644.57,3.2735586936137357
321,2656.78,3.2961112609790506
322,2662.91,3.1492202468061907
323,2675.2,3.19639488103385
324,2687.55,3.176267140408267
325,2693.7400000000002,3.1153970513821654
326,2706.17,3.141262177618927
327,2712.4100000000003,3.0677877928817905
328,2724.93,3.04786920683869
329,2737.51,3.0906109459423474
330,2743.82,2.9196189072097622
331,2756.49,2.929499734033558
332,2762.8399999999997,2.964536178732145
333,2775.59,3.0003071724182835
334,2781.99,2.9283438214058366
335,2794.83,2.7236121028121136
336,2807.73,2.7686961093651483
337,2814.2099999999996,2.9413673252150456
338,2827.2000000000003,2.995177919488217
339,2833.71,2.9458594979114934
340,2846.79,2.903080879904804
341,2853.3599999999997,2.846113083474838
342,2866.5299999999997,2.955562253188286
343,2873.1299999999997,2.956806019331699
344,2884.0315,2.931587263216482
345,2886.39,2.9269543022531446
346,2893.0499999999997,2.9139828765406266
347,2913.1,3.008652872706393
348,2933.2999999999997,2.940017025950707
349,2946.83,2.9083449944356357
350,2967.2599999999998,2.9217941885337213
351,2987.8300000000004,2.90573792923845
352,3008.54,2.912231216549823
353,3029.3900000000003,2.8908790504678397
354,3050.39,2.8719100414644037
355,3071.54,2.862999189539514
356,3092.83,2.8565768842212687
357,3107.1,2.843704027627029
358,3128.64,2.808897984106361
359,3150.33,2.794403097664241
360,3172.17,2.779754368300667
361,3186.81,2.6997420991668424
362,3208.9,2.7313826316008463
363,3231.1400000000003,2.645599321113398
364,3253.54,2.708800778176399
365,3268.56,2.742007706974894
366,3291.21,2.7109454258354733
367,3306.4,2.697180732656321
368,3311.31121,2.6885413098034947
369,3321.67,2.672853802685949
370,3329.32,2.715390830372041
371,3337.0,2.6810080307157262
372,3344.69,2.6473592886119413
373,3352.3999999999996,2.6244806616132186
374,3360.13,2.6630881497195573
375,3367.87,2.647521695378427
376,3375.64,2.5456214136948896
377,3383.4199999999996,2.5572391895638824
378,3391.22,2.655670080537937
379,3399.04,2.6772760866170535
380,3406.8700000000003,2.6191841502487003
381,3414.7300000000005,2.62696838653794
382,3422.6,2.683466680379711
383,3430.49,2.6483280893265437
384,3438.3999999999996,2.656575613378437
385,3446.32,2.501701194982862
386,3454.27,2.6113179492448793
387,3462.23,2.5200637610594274
388,3470.21,2.5773476879790373
389,3478.21,2.483161730003709
390,3486.23,2.5413538871334422
391,3494.27,2.5235731593682367
392,3502.3199999999997,2.576891489155563
393,3510.39,2.5482629340479503
394,3518.4900000000002,2.52511755159793
395,3526.6,2.5047712267004405
396,3534.73,2.568576016908013
397,3542.88,2.622795922220647
398,3551.04,2.6145778850858123
399,3559.23,2.5844720206085694
400,3567.43,2.554882213683858
401,3575.66,2.447994579416739
402,3583.8999999999996,2.4186550027021507
403,3592.16,2.4132295410926234
404,3600.4399999999996,2.5543901945881586
405,3608.74,2.463124963188755
406,3617.0600000000004,2.4752978468944136
407,3625.3999999999996,2.5351098457051338
408,3633.7599999999998,2.5268769596209153
409,3642.13,2.570602131089228
410,3650.53,2.489256475215133
411,3658.9500000000003,2.6077549344461
412,3664.5899999999997,2.494457394073493
413,3667.33,2.5980891634669434
414,3670.07,2.690089932860393
415,3672.8100000000004,2.6055317022538427
416,3675.55,2.5021264716472933
417,3678.29,2.521840241040743
418,3681.03,2.585832010434193
419,3683.77,2.4152167798276434
420,3686.51,2.462939549221093
421,3689.25,2.5117053186145433
422,3691.99,2.469614088007993
423,3694.73,2.476297857401443
424,3697.47,2.5509046267948934
425,3700.21,2.604060396188343
426,3702.94,2.5682351080292625
427,3705.6800000000003,2.5158828774227118
428,3708.42,2.4748606468161625
429,3711.16,2.478307416209612
430,3713.9,2.527677185603062
431,3716.64,2.6579189549965125
432,3719.38,2.760426724389962
433,3722.12,2.8554164937834123
434,3724.8599999999997,3.2163432631768623
435,3727.6,3.6069520325703124
436,3730.3399999999997,3.765092801963762
437,3733.08,3.5598835713572123
438,3735.82,3.1559223407506622
439,3738.5600000000004,2.819310110144112
440,3741.3,2.632892879537562
441,3744.04,2.583421648931012
442,3746.78,2.548598418324462
443,3749.52,2.518495187717912
444,3752.26,2.511489957111362
445,3755.0,2.5380617265048118
446,3757.74,2.5951124958982623
447,3760.48,2.6319722652917124
448,3763.22,2.670451034685162
449,3765.96,2.632144804078612
450,3768.7,2.6012455734720623
451,3771.43,2.5962552853129814
452,3774.17,2.5329850547064305
453,3776.91,2.5578298240998807
454,3779.65,2.722911593493331
455,3782.39,2.7401023628867813
456,3785.13,2.8005001322802308
457,3787.87,2.813629901673681
458,3790.6099999999997,2.7791636710671312
459,3793.35,2.685607440460581
460,3796.0899999999997,2.5685962098540314
461,3798.8300000000004,2.530700979247481
462,3801.57,2.585638748640931
463,3801.8939600000003,2.5866334204557857
464,3804.3100000000004,2.594467919335955
465,3807.05,2.6072199241089162
466,3809.79,2.790769928881878
467,3812.53,2.8385269336548387
468,3815.27,2.8772029384278
469,3818.01,2.860738943200761
470,3820.75,2.7207439479737223
471,3823.49,2.7273789527466836
472,3826.23,2.689489957519645
473,3828.97,2.557066962292606
474,3831.71,2.447001967065567
475,3834.45,2.4373419718385283
476,3837.1899999999996,2.4086979766114895
477,3839.93,2.4006559813844506
478,3842.66,2.4968152051180947
479,3845.4,2.5985602098910556
480,3848.14,2.739013214664017
481,3850.8799999999997,2.840209219436978
482,3853.62,2.847776224209939
483,3856.3599999999997,2.9067532289829003
484,3859.1,3.022270233755861
485,3861.84,3.0671462385288226
486,3864.5800000000004,3.103216243301784
487,3867.32,3.336996248074745
488,3870.06,3.3755082528477054
489,3872.8,3.325576257620667
490,3875.54,3.191753262393628
491,3878.28,3.0721412671665895
492,3881.02,2.9186492719395503
493,3883.7599999999998,2.796980276712512
494,3886.5,2.741890281485473
495,3889.24,2.6414542862584343
496,3891.98,2.661751291031395
497,3894.72,2.6702512958043565
498,3897.46,2.7136733005773173
499,3900.2,2.778054305350279
500,3902.9399999999996,2.8013953101232403
501,3905.6800000000003,2.8579583148962007
502,3908.42,2.955258319669162
503,3911.15,2.9365305434028057
504,3913.89,2.974274548175767
505,3916.6299999999997,2.9959695529487282
506,3919.37,2.9397825577216894
507,3922.1099999999997,2.8817575624946503
508,3924.85,2.877227567267612
509,3927.59,2.730236572040573
510,3930.3300000000004,2.691085576813534
511,3933.07,2.551584581586495
512,3935.81,2.417762586359456
513,3938.55,2.4401165911324174
514,3941.29,2.5519835959053787
515,3944.03,2.67446860067834
516,3946.77,2.739206605451301
517,3949.5099999999998,2.7952746102242623
518,3952.25,2.877130614997223
519,3954.99,2.938494619770184
520,3957.73,2.9160776245431457
521,3960.47,2.8903416293161066
522,3963.2099999999996,2.829353634089068
523,3965.95,2.703377638862029
524,3968.69,2.60096564363499
525,3971.4300000000003,2.486730648407951
526,3974.17,2.5088926531809124
527,3976.9100000000003,2.6528846579538734
528,3979.65,2.741378662726835
529,3982.3799999999997,2.839624886460479
530,3985.12,2.9514648912334396
531,3987.8599999999997,3.010962896006401
532,3990.6000000000004,3.0656609007793616
533,3993.34,3.1530849055523236
534,3996.0800000000004,3.1894849103252843
535,3998.82,3.1835549150982456
536,4001.56,3.2292819198712066
537,4004.3,3.237369924644168
538,4007.04,3.212949929417129
539,4009.78,3.22712893419009
540,4012.52,3.2875329389630514
541,4015.2599999999998,3.310050943736013
542,4018.0,3.296960948508974
543,4020.74,3.390694953281935
544,4023.48,3.3537939580548963
545,4026.22,3.3669579628278576
546,4028.9599999999996,3.321166967600819
547,4031.7,3.2837449723737793
548,4034.44,3.2296149771467406
549,4037.1800000000003,3.2533949819197012
550,4039.92,3.309930986692663
551,4042.6600000000003,3.2980479914656238
552,4045.4,3.274999996238585
553,4048.14,3.2405950010115463
554,4050.88,3.2428400057845073
555,4053.61,3.2728072295181514
556,4056.3500000000004,3.2302812342911125
557,4059.09,3.202899239064074
558,4061.8300000000004,3.1732122438370345
559,4064.57,3.130577248609996
560,4067.31,3.178197253382957
561,4070.05,3.1760802581559187
562,4072.79,3.2214502629288795
563,4075.53,3.1491602677018404
564,4078.27,3.135714272474802
565,4081.0099999999998,3.1237222772477633
566,4083.75,3.107340282020724
567,4086.49,3.0787782867936855
568,4089.23,3.0668402915666464
569,4091.97,3.0677142963396076
570,4094.7099999999996,3.011335301112569
571,4097.45,2.91010330588553
572,4100.1900000000005,2.812328310658491
573,4102.93,2.832322315431452
574,4105.67,2.8135823202044135
575,4108.41,2.8405443249773743
576,4111.15,2.841665329750336
577,4113.89,2.9283213345232966
578,4116.63,2.962608339296258
579,4119.37,2.9627143440692194
580,4122.11,3.03634034884218
581,4124.84,3.023730572575824
582,4127.58,2.991162577348785
583,4130.32,2.9896775821217467
584,4133.06,2.999384586894707
585,4135.8,2.9961985916676688
586,4138.54,3.06653259644063
587,4141.28,3.1315166012135913
588,4144.0199999999995,3.0969746059865524
589,4146.76,3.103965610759513
590,4149.5,3.069231615532474
591,4152.24,3.0402026203054358
592,4154.98,2.978090625078397
593,4157.719999999999,3.0406886298513585
594,4160.46,3.064770634624319
595,4163.2,3.1093446393972806
596,4165.9400000000005,3.1065146441702414
597,4168.68,3.0714516489432024
598,4171.42,3.107713653716164
599,4174.16,3.0882866584891246
600,4176.9,3.0795316632620864
601,4179.64,3.0659486680350474
602,4182.38,3.111482672808008
603,4185.12,3.12799267758097
604,4187.86,3.102503682353931
605,4190.599999999999,3.166034687126892
606,4193.33,3.1576769108605354
607,4196.07,3.140472915633497
608,4198.81,3.160576920406458
609,4201.55,3.129984925179419
610,4204.29,3.11886992995238
611,4207.03,3.1697539347253416
612,4209.7699999999995,3.1705999394983033
