,lambda (Angstroms),Total Flux (erg/s/cm^2/Angstrom)
0,100.04,3.5552226909326987
1,101.89999999999999,3.5453328283649532
2,104.03,3.534007340499162
3,104.712855,3.5303765114571433
4,105.97,3.4952643140798836
5,107.94,3.440241998747951
6,109.94,3.3843817812073254
7,114.07000000000001,3.2690304309621023
8,118.08000000000001,3.15703069466233
9,120.22644299999999,3.0970803248593097
10,121.11,3.076390551144826
11,125.07000000000001,2.983661365970947
12,127.10000000000001,2.9361259511505264
13,127.99,2.9152853028020806
14,130.97,2.845504253360425
15,131.87,2.8244294497285325
16,134.02,2.7740840638154953
17,137.14000000000001,2.7010247309299706
18,138.038426,2.6799867796302825
19,140.01,2.646987174112238
20,142.94,2.5979459066590054
21,146.95,2.5308281561917583
22,151.06,2.46203637512412
23,154.94,2.3970943159487805
24,158.489319,2.3376871195248423
25,158.91,2.332363847842728
26,161.87,2.2949082185514573
27,166.01999999999998,2.2423944579012933
28,169.89000000000001,2.1934238505673984
29,173.05,2.1534375458606494
30,177.08,2.102442408226173
31,179.95000000000002,2.066125841794667
32,181.970086,2.0405639616105398
33,182.04000000000002,2.039889036444565
34,185.85,2.003108752804126
35,191.06,1.9528134237138608
36,194.16,1.9228873192931042
37,198.23,1.8835972957006397
38,201.91,1.8480723923972127
39,205.19,1.8164087825305926
40,208.929613,1.780308210645549
41,209.96999999999997,1.7727574745460197
42,215.86,1.7300111765404322
43,219.87,1.7009087543285297
44,222.93,1.6787008222378514
45,227.07000000000002,1.6486551731439918
46,230.23,1.6257310535295004
47,233.97,1.5986062670208934
48,239.88329199999998,1.5557045873144992
49,239.97,1.5552198691796533
50,246.13,1.5207697137885263
51,251.86,1.488731415576358
52,257.14,1.4591929236268208
53,260.11,1.4425954295914558
54,263.73,1.4223568553167352
55,269.25,1.391489015593128
56,274.26,1.363473439123169
57,275.42287,1.3569708447120963
58,278.72,1.34282209106141
59,283.9,1.3205934684003646
60,289.84,1.2950986743342232
61,295.90999999999997,1.269052503998789
62,300.72,1.2484088200349606
63,307.72,1.2183718821038174
64,316.227766,1.1818650252475722
65,317.80999999999995,1.1767945730415401
66,328.21999999999997,1.1434313897748094
67,338.19,1.1114773091267494
68,347.67,1.0810938814244815
69,357.41,1.0498769597611808
70,363.078055,1.031712904183165
71,365.73,1.025349303621773
72,375.11,1.0028360046084055
73,384.74,0.979716914996494
74,394.6,0.9560590958579221
75,404.73,0.9317476260489229
76,414.15,0.9091368208917886
77,416.86938299999997,0.9026091377693233
78,421.85,0.8934796831899177
79,429.7,0.8790906312714495
80,440.72,0.8588941295767334
81,450.99,0.8400688074035272
82,460.43,0.8227635753354584
83,470.07,0.8050935098083204
84,478.630092,0.789404001138034
85,479.90999999999997,0.7875999757494664
86,489.96,0.7734281464706403
87,500.21999999999997,0.758967901353749
88,506.01,0.7508051944328135
89,511.87000000000006,0.7425750724991893
90,520.19,0.7308457073053752
91,529.86,0.7172112103382858
92,539.71,0.7033155375814264
93,549.5408739999999,0.6894665531548283
94,549.75,0.6892418870802579
95,559.97,0.6782676336782056
96,570.38,0.6670833886297355
97,579.65,0.6571081497597724
98,590.42,0.6455405250707211
99,600.02,0.6352118977885585
100,609.77,0.6247159199644869
101,619.67,0.6141142087985069
102,629.74,0.6032894885383633
103,630.957344,0.6019810286273111
104,639.97,0.5943031813503548
105,650.37,0.5854517297967982
106,657.9,0.5790366759397518
107,665.52,0.5725557388716652
108,674.78,0.5646668298912868
109,685.74,0.5553117355579232
110,695.2800000000001,0.5472352971876413
111,704.96,0.538961282922408
112,716.41,0.5292570433067134
113,724.43596,0.5224246077084975
114,726.38,0.5211968921821231
115,734.7900000000001,0.5158870388502509
116,745.01,0.5094563106490936
117,755.3700000000001,0.5029224395260027
118,764.1199999999999,0.497389800255149
119,774.75,0.49071721440404303
120,785.53,0.4839259267151511
121,794.6300000000001,0.4781940613894631
122,805.6800000000001,0.47122706407255627
123,815.01,0.4653439843822631
124,824.45,0.45942627851759327
125,831.763771,0.45472874167618366
126,835.92,0.4527236206922279
127,845.5999999999999,0.44829219188554964
128,855.39,0.4436862908947044
129,865.29,0.4390591974196925
130,875.31,0.4343762225346805
131,885.4499999999999,0.4296502813396683
132,895.6999999999999,0.4248547053604893
133,903.9899999999999,0.42094619644464604
134,914.46,0.41655982589713336
135,925.0400000000001,0.4202865455654539
136,935.7600000000001,0.42765500987210764
137,944.41,0.44496002002626395
138,954.992586,0.4572379969920993
139,955.3499999999999,0.45765632370797854
140,964.19,0.4647840539331918
141,975.35,0.39997477168357404
142,984.38,0.4510098648095555
143,995.78,0.44750407885564497
144,1004.99,0.46971925420340666
145,1014.2900000000001,0.45976143566205857
146,1026.04,0.400985473472721
147,1035.53,0.42576074783214113
148,1045.1100000000001,0.47803446830245133
149,1054.78,0.4724193148836518
150,1064.54,0.4460341975757425
151,1074.39,0.4591643163787232
152,1084.33,0.4332145612925943
153,1094.3700000000001,0.45579993299634314
154,1096.4782,0.45400040662750724
155,1104.49,0.4478338961899825
156,1114.71,0.44121234684241945
157,1125.03,0.42691399485936155
158,1135.44,0.4474555305043584
159,1145.94,0.4324018537774099
160,1153.89,0.4365565942555775
161,1164.56,0.43733008304828813
162,1175.34,0.39680503894195446
163,1186.21,0.42520586246367537
164,1194.4299999999998,0.3856487258260073
165,1205.49,0.3579579043402882
166,1213.8400000000001,0.3268216542764768
167,1225.07,0.3688512983104168
168,1236.41,0.4073655394453125
169,1244.98,0.4176787835834127
170,1253.61,0.4101632861402161
171,1258.92541,0.40028340265036455
172,1265.21,0.3892859995208511
173,1273.98,0.41825943167211943
174,1285.77,0.4219517550544974
175,1294.68,0.39159815898469147
176,1303.65,0.3879617508201393
177,1315.72,0.4127539177603685
178,1324.84,0.404516179358951
179,1334.02,0.38754312886278725
180,1346.3600000000001,0.40595694137665866
181,1355.7,0.39940365862783855
182,1365.09,0.38305286580006326
183,1374.56,0.38689795684595973
184,1384.08,0.38640153781290104
185,1393.6799999999998,0.36638690265351415
186,1406.57,0.36793880429887904
187,1416.3200000000002,0.36921133890262664
188,1426.1399999999999,0.3692133593958372
189,1436.03,0.36621256577851047
190,1442.65,0.3716301313248499
191,1445.43977,0.3726543277234743
192,1445.98,0.37289674158467917
193,1456.0,0.36749033058197983
194,1466.1,0.35613523126788177
195,1476.26,0.35389211572023455
196,1486.49,0.3539282979001134
197,1493.35,0.35463487519766657
198,1503.7,0.34644862491044726
199,1510.64,0.3320042138966015
200,1517.6200000000001,0.33847395872705655
201,1524.62,0.33410993147966184
202,1535.1899999999998,0.3176066883360958
203,1545.83,0.3250759429200558
204,1556.55,0.316839709192617
205,1563.73,0.31798713324457495
206,1574.5700000000002,0.32348706705003794
207,1585.49,0.3266065125441022
208,1596.48,0.3279902557656925
209,1603.85,0.32314364507807836
210,1614.96,0.32166815583257036
211,1626.16,0.31345399223673875
212,1633.66,0.31939016304310164
213,1644.99,0.31915688094124706
214,1656.39,0.30746169656691846
215,1659.58691,0.3116601793308948
216,1664.03,0.31774633592158286
217,1671.7199999999998,0.3034835236375836
218,1675.5700000000002,0.3188410570194564
219,1683.3000000000002,0.32251566092643763
220,1694.97,0.31301600964499793
221,1706.7199999999998,0.3070249907455192
222,1714.6,0.3019931803686773
223,1726.48,0.3001209890898851
224,1734.4499999999998,0.30747359014274933
225,1746.47,0.3027081055323889
226,1754.54,0.3107386970627043
227,1766.7,0.29693021912077566
228,1774.8500000000001,0.3008641430330521
229,1783.05,0.30202276218405416
230,1795.41,0.31079696519702804
231,1803.69,0.307631716729991
232,1816.2,0.29797170545914176
233,1824.5800000000002,0.298503047469556
234,1833.0,0.2925519056709508
235,1845.71,0.27990597535500406
236,1854.22,0.28174344498610493
237,1867.0800000000002,0.28584200038633495
238,1875.6999999999998,0.2920770395426323
239,1884.35,0.28232441584216494
240,1893.05,0.2787240873804232
241,1905.46072,0.28235167901136515
242,1906.17,0.2825840310767961
243,1914.97,0.2789184768985806
244,1923.81,0.27439845065591867
245,1937.15,0.27100771716303285
246,1946.0900000000001,0.2835456107592549
247,1955.07,0.2762856322910304
248,1968.6200000000001,0.2873947704598009
249,1977.71,0.2882237438143487
250,1982.2699999999998,0.2826879284674553
251,1996.01,0.2783982743301051
252,2005.22,0.2788181314913136
253,2014.4799999999998,0.2749848485719642
254,2023.78,0.27636479358816823
255,2033.12,0.2744793665399259
256,2047.2099999999998,0.2791071318386695
257,2056.66,0.2718726566131994
258,2066.15,0.27095500932328287
259,2075.69,0.28188172195280836
260,2085.27,0.2885349625178874
261,2094.9,0.27931786300240835
262,2104.57,0.27698639142248294
263,2114.28,0.279213147778111
264,2124.04,0.2786195640531811
265,2133.8399999999997,0.2663670082638048
266,2143.69,0.2738914123938704
267,2153.59,0.2768258764433779
268,2163.5299999999997,0.26920536842843906
269,2173.5099999999998,0.2679002883490538
270,2183.5499999999997,0.27003270017299885
271,2187.7616199999998,0.27261534233529033
272,2193.63,0.27639768253571756
273,2203.75,0.2706895136827937
274,2213.92,0.25943477028020123
275,2224.14,0.25712705232794014
276,2234.41,0.2711787598260105
277,2244.7200000000003,0.2634700476843459
278,2255.08,0.25283226099301276
279,2265.49,0.253763899752011
280,2275.95,0.25904676396134074
281,2286.45,0.26636480853093547
282,2297.0099999999998,0.255169123640928
283,2307.61,0.2600667191111855
284,2312.93,0.25271890702644695
285,2323.61,0.22458866321723472
286,2334.33,0.2363495997682877
287,2345.11,0.22532860685973832
288,2355.93,0.24568159431145412
289,2366.81,0.22554715230356753
290,2377.73,0.23411439065594614
291,2383.21,0.216191400012268
292,2394.21,0.2254894990851768
293,2405.2599999999998,0.22133292360841705
294,2416.3599999999997,0.2254465735819887
295,2427.52,0.24270339409595798
296,2433.11,0.2385896994430089
297,2444.34,0.24815293558744217
298,2455.63,0.24724204227227314
299,2466.96,0.24400202931736925
300,2472.65,0.23595168556508297
301,2484.06,0.23194213333070934
302,2495.5299999999997,0.22622945163673336
303,2507.05,0.24951499539308875
304,2511.88643,0.22395702502832615
305,2512.83,0.21898651001943847
306,2518.62,0.21516717917375883
307,2524.43,0.2133242724011511
308,2536.08,0.2198530949655435
309,2547.78,0.22059247771261573
310,2553.66,0.23866975519575973
311,2565.44,0.22927713423511958
312,2577.29,0.24056069753023118
313,2583.2300000000005,0.23700814723259092
314,2595.15,0.23269079478345428
315,2607.1299999999997,0.22504701455353335
316,2613.14,0.2200233485116448
317,2625.2,0.23459676457401155
318,2637.32,0.250598652855594
319,2643.4,0.2758332710694572
320,2655.6000000000004,0.2910562556433274
321,2667.86,0.2587379124364133
322,2674.01,0.27110231490602815
323,2686.35,0.2758490679914018
324,2692.54,0.2567948186071605
325,2704.97,0.26892408002135776
326,2717.46,0.2495136136547707
327,2723.7200000000003,0.24634544852628115
328,2736.29,0.25857817845198183
329,2742.6,0.22062007350617208
330,2755.2599999999998,0.23187681176069638
331,2767.98,0.2449135222344364
332,2774.36,0.25502120154437835
333,2787.1600000000003,0.22910730831040604
334,2793.59,0.18485544780302782
335,2806.48,0.19420586289787917
336,2812.9500000000003,0.24990045053664472
337,2825.94,0.2743981859968557
338,2832.4500000000003,0.2689386217817651
339,2845.53,0.2572132655707997
340,2852.0800000000004,0.2345397495018529
341,2865.2499999999995,0.27459090161971117
342,2871.8500000000004,0.28360944573344415
343,2884.0315,0.27855693475917986
344,2885.11,0.27812506583441915
345,2891.7599999999998,0.2826879939148367
346,2911.8100000000004,0.31492683196180987
347,2931.99,0.30038078995621986
348,2952.3100000000004,0.29453862327863856
349,2972.7799999999997,0.30301458730963815
350,2993.38,0.3054227712880745
351,3007.2,0.31064570723865653
352,3028.0499999999997,0.3126067757313943
353,3049.04,0.3174027195521408
354,3070.1699999999996,0.3234688387008961
355,3091.45,0.32619248855823224
356,3112.88,0.3325375691241493
357,3127.2499999999995,0.32585555100619434
358,3148.93,0.3280313160864128
359,3170.75,0.33571055649464004
360,3192.7299999999996,0.3153752829920201
361,3207.4700000000003,0.3311198139552313
362,3229.7,0.3099041249669129
363,3252.09,0.3451455220677473
364,3267.1,0.36711664830640406
365,3289.75,0.364927585302112
366,3311.31121,0.36285408506612016
367,3312.55,0.3627474052668055
368,3320.19,0.35935871295432353
369,3327.84,0.3776469765419561
370,3335.5099999999998,0.39479275192981783
371,3343.2000000000003,0.3635777391179086
372,3350.9100000000003,0.36085253810622847
373,3358.63,0.3851794929946629
374,3366.3700000000003,0.35547925968332644
375,3374.13,0.32422603817221907
376,3381.9100000000003,0.34104162846134084
377,3389.71,0.38167883055069174
378,3397.52,0.36037048854015713
379,3405.36,0.37884621422996617
380,3413.21,0.3702364958198898
381,3421.07,0.390108433309928
382,3428.9599999999996,0.37898673850030984
383,3436.8700000000003,0.37612295549092073
384,3444.79,0.32246442838164624
385,3452.73,0.39570211307260084
386,3460.69,0.3669425095637845
387,3468.6699999999996,0.36839691785519735
388,3476.66,0.36002798204672465
389,3484.68,0.3764006139385957
390,3492.71,0.36287380173058126
391,3500.7599999999998,0.3505854013227959
392,3508.83,0.38318611271523967
393,3516.92,0.35401083590791255
394,3525.03,0.37011427090081456
395,3533.15,0.3924539617938311
396,3541.3,0.41069112038719124
397,3549.46,0.412397534880666
398,3557.6400000000003,0.39032766117436984
399,3565.85,0.41091645516841735
400,3574.0699999999997,0.3454707050625794
401,3582.2999999999997,0.348838510856856
402,3590.56,0.3165172843514763
403,3598.8399999999997,0.38984346964632566
404,3607.14,0.37126396674140416
405,3615.4500000000003,0.3713047197365971
406,3623.79,0.3627673404321339
407,3632.14,0.45033361702778507
408,3640.51,0.40995540542366543
409,3648.9,0.3901988056197749
410,3654.6400000000003,0.5511027922855279
411,3657.38,0.4175004089169153
412,3660.1099999999997,0.34651306964818807
413,3662.84,0.3738957303794609
414,3665.57,0.3760127911107337
415,3668.2999999999997,0.37179825184200654
416,3671.04,0.43562816847339386
417,3673.77,0.39690522920466664
418,3676.4999999999995,0.3520568899359394
419,3679.23,0.38622005066721227
420,3681.96,0.3715862113984851
421,3684.7000000000003,0.3699168280298724
422,3687.43,0.3326979887611452
423,3690.1600000000003,0.33185534949241796
424,3692.89,0.3515238102236908
425,3695.6299999999997,0.39144642685507813
426,3698.36,0.35403348758635095
427,3701.09,0.36079614831762374
428,3703.8199999999997,0.4262898090488966
429,3706.55,0.4247922697801693
430,3709.29,0.40468598641155673
431,3712.02,0.38095504714282946
432,3714.75,0.4009268078741023
433,3717.48,0.4379283686053751
434,3720.21,0.3565336293366479
435,3722.95,0.4441373459680353
436,3725.6800000000003,0.634564806699308
437,3728.41,0.7747886674305808
438,3731.14,0.7307776281618537
439,3733.8700000000003,0.6367076888931265
440,3736.61,0.5262116055245137
441,3739.3399999999997,0.39723326625578664
442,3742.07,0.4000417269870594
443,3744.7999999999997,0.3598995877183322
444,3747.54,0.42064850434971957
445,3750.27,0.35081346508099237
446,3753.0,0.41923032581226516
447,3755.73,0.42934078654353797
448,3758.46,0.4397665472748108
449,3761.2000000000003,0.43990426390619813
450,3763.93,0.41025422463747097
451,3766.66,0.3360039853687437
452,3769.3900000000003,0.44208304610001653
453,3772.12,0.4604415068312893
454,3774.8599999999997,0.3945705234626767
455,3777.59,0.4615561841939495
456,3780.3199999999997,0.4931357449252223
457,3783.05,0.542218505656495
458,3785.78,0.5246979663877679
459,3788.5200000000004,0.4649278830191552
460,3791.25,0.458445143750428
461,3793.98,0.3589534044817008
462,3796.7099999999996,0.37704496521297365
463,3799.44,0.3881379259442464
464,3801.8939600000003,0.4625985207678956
465,3802.18,0.47127986763123436
466,3804.9100000000003,0.44382035573556544
467,3807.64,0.46820224383989656
468,3810.3700000000003,0.47235223194422765
469,3813.11,0.5188437467449116
470,3815.8399999999997,0.4999963348492427
471,3818.57,0.4362453229535738
472,3821.3,0.4042251110579049
473,3824.0299999999997,0.438819999162236
474,3826.77,0.46254471396291996
475,3829.5,0.44692360206725107
476,3832.23,0.39941409017158225
477,3834.96,0.3777279782759133
478,3837.69,0.3819627663802444
479,3840.4300000000003,0.43183888118092834
480,3843.16,0.5019004692852594
481,3845.8900000000003,0.5073604573895906
482,3848.62,0.49792534549392165
483,3851.35,0.5274988335982528
484,3854.09,0.5052887483989368
485,3856.82,0.5225993365032678
486,3859.5499999999997,0.506650724607599
487,3862.28,0.53476861271193
488,3865.0099999999998,0.5617950008162611
489,3867.75,0.5710730156169451
490,3870.48,0.5440624037212762
491,3873.21,0.5466598918256073
492,3875.94,0.4896042799299384
493,3878.68,0.5297035947306223
494,3881.4100000000003,0.45463588283495343
495,3884.14,0.4192921709392845
496,3886.87,0.43563225904361563
497,3889.6,0.43364454714794676
498,3892.34,0.3635235619486307
499,3895.0699999999997,0.46113105005296184
500,3897.8,0.4704482381572929
501,3900.5299999999997,0.49339892626162407
502,3903.26,0.4859167143659551
503,3906.0,0.4870318291666391
504,3908.7300000000005,0.4980713172709702
505,3911.46,0.47791390537530126
506,3914.19,0.5611967934796324
507,3916.92,0.5033528815839635
508,3919.66,0.5082280963846475
509,3922.39,0.5097701844889786
510,3925.1200000000003,0.4360244725933097
511,3927.85,0.44239406069764076
512,3930.5899999999997,0.45347987549832475
513,3933.32,0.3524914636026558
514,3936.0499999999997,0.3699230517069869
515,3938.78,0.409539539811318
516,3941.5099999999998,0.48398002791564915
517,3944.2500000000005,0.46773794271633307
518,3946.98,0.5210002308206642
519,3949.71,0.5188185189249953
520,3952.44,0.5446804070293264
521,3955.17,0.5224122951336575
522,3957.91,0.5145758099343415
523,3960.6400000000003,0.49663799803867253
524,3963.37,0.4488979861430037
525,3966.1000000000004,0.39919277424733474
526,3968.83,0.3469646623516659
527,3971.5699999999997,0.3543027771523498
528,3974.3,0.42469176525668095
529,3977.0299999999997,0.45654555336101205
530,3979.7599999999998,0.4986244414653431
531,3982.4900000000002,0.5398059295696742
532,3985.23,0.5496056443703582
533,3987.96,0.5797734324746893
534,3990.69,0.5041961205790204
535,3993.4199999999996,0.5721475086833514
536,3996.1600000000003,0.5873204234840355
537,3998.89,0.6311823115883665
538,4001.6200000000003,0.6248889996926976
539,4004.35,0.5980481877970287
540,4007.08,0.6209989759013599
541,4009.82,0.5572208907020438
542,4012.5499999999997,0.6105681788063749
543,4015.2799999999997,0.552372666910706
544,4018.01,0.6309008550150371
545,4020.74,0.6350267431193682
546,4023.48,0.6489500579200521
547,4026.21,0.6041091460243833
548,4028.9399999999996,0.5803857341287144
549,4031.67,0.5918255222330454
550,4034.4,0.5689268103373766
551,4037.1400000000003,0.6206337251380605
552,4039.87,0.6111987132423916
553,4042.6,0.6210376013467228
554,4045.33,0.6224706894510539
555,4048.0699999999997,0.6075381042517378
556,4050.8,0.6177528923560689
557,4053.53,0.5847987804604
558,4056.2599999999998,0.5666305685647312
559,4058.9900000000002,0.5800112566690623
560,4061.73,0.5979496714697462
561,4064.4599999999996,0.5983638595740773
562,4067.19,0.6124115476784083
563,4069.92,0.5918053357827394
564,4072.65,0.5756384238870706
565,4075.39,0.5758557386877545
566,4078.12,0.5581363267920857
567,4080.85,0.5579682148964168
568,4083.58,0.5874325030007478
569,4086.3100000000004,0.603663591105079
570,4089.05,0.546132405905763
571,4091.7799999999997,0.588611594010094
572,4094.51,0.5684904821144251
573,4097.24,0.5290348702187563
574,4099.97,0.5146751583230873
575,4102.71,0.5386786731237713
576,4105.4400000000005,0.5533570612281024
577,4108.17,0.5550691493324335
578,4110.900000000001,0.5479871374367646
579,4113.64,0.5502908522374486
580,4116.37,0.5371320403417796
581,4119.1,0.5960831284461108
582,4121.83,0.5762774165504418
583,4124.5599999999995,0.596644604654773
584,4127.3,0.5551001194554569
585,4130.03,0.585110207559788
586,4132.76,0.6052226956641191
