,lambda (Angstroms),Total Flux (erg/s/cm^2/Angstrom)
0,102.00000000000001,161.15100681339598
1,103.9,160.691733064515
2,104.712855,160.49524733479885
3,106.08,158.75933311444462
4,108.05,156.2579520721304
5,110.06,153.70578243400467
6,113.91999999999999,148.80460024594626
7,117.92999999999999,143.71295803958395
8,120.22644299999999,140.7971046678605
9,120.95,140.02685641648839
10,124.92,135.80064061162696
11,126.95,133.63962742441765
12,128.12,132.3941184492546
13,131.1,129.22179428573196
14,132.01,128.253076365254
15,133.85,126.29432727528538
16,136.97,122.97298714150384
17,138.038426,121.83560814425135
18,140.16,120.22127610612463
19,143.09,117.99205110692026
20,147.10000000000002,114.941435124301
21,150.87,112.07287372655172
22,155.1,108.85431652296829
23,158.489319,106.27544579938179
24,159.07999999999998,105.93566720530897
25,162.04,104.23297467608101
26,165.80999999999997,102.06438746523663
27,170.07000000000002,99.61388719547611
28,172.82999999999998,98.02627174356087
29,176.85,95.71385196757558
30,180.14,93.8213375302817
31,181.81,92.86072463922063
32,181.970086,92.76863866419325
33,186.04,90.98261806109798
34,190.82,88.88501367609997
35,193.92,87.52465656256152
36,197.98,85.7429960246176
37,202.12,83.92625060455653
38,204.93999999999997,82.68876856442802
39,208.929613,80.93789126553311
40,210.19,80.52204326825152
41,216.07999999999998,78.57906957748585
42,220.1,77.25289166929265
43,223.16,76.24333492426499
44,226.79000000000002,75.04585757338903
45,229.94,74.00891245859586
46,234.21999999999997,72.60115872185783
47,239.88329199999998,70.73514468819545
48,240.22000000000003,70.64968656750413
49,245.82,69.22515095644953
50,252.13,67.62170335926119
51,256.81,66.42959540037984
52,259.78999999999996,65.67378549181863
53,264.01,64.60152354902391
54,268.92,63.35312464209922
55,273.92,62.08180878115759
56,275.42287,61.69969427958371
57,279.01,60.99974156296541
58,284.2,59.986987575193794
59,290.15,58.82526208824947
60,296.21999999999997,57.64105256459364
61,301.03000000000003,56.70228477640838
62,308.05,55.332630788786666
63,316.227766,53.73707499893959
64,318.14000000000004,53.45842335166291
65,327.81,52.04898086222129
66,337.77000000000004,50.59713818444067
67,348.03000000000003,49.10154109389558
68,356.96,47.799855231939674
69,363.078055,46.908144817976115
70,366.10999999999996,46.577200200456694
71,374.64,45.64590184708302
72,385.14,44.49918394541553
73,395.02000000000004,43.42100437239889
74,405.15000000000003,42.31526289315208
75,413.63,41.38937556902444
76,416.86938299999997,41.03567781316137
77,422.29999999999995,40.582815163466236
78,430.15,39.928233843928794
79,441.17999999999995,39.00867968008191
80,451.46,38.15144894300613
81,459.84999999999997,37.4517922617935
82,469.47999999999996,36.648838915252654
83,478.630092,35.886020886859924
84,480.42,35.771251445601635
85,490.47,35.12650722087619
86,499.59000000000003,34.541835026229826
87,506.53999999999996,34.09598264843462
88,512.41,33.72039572750543
89,519.54,33.26314193356589
90,530.42,32.56534639995267
91,540.28,31.9327369944907
92,549.5408739999999,31.33916635639097
93,550.3199999999999,31.301073654429892
94,560.55,30.801055136993572
95,569.6600000000001,30.355765594134834
96,580.25,29.837471027727155
97,589.68,29.376674253560545
98,600.64,28.840357943765625
99,610.4,28.362486694875262
100,620.3199999999999,27.878653143330958
101,630.4,27.385734022132713
102,630.957344,27.358473989537522
103,640.64,26.983029609745504
104,649.56,26.6375559520114
105,658.59,26.287642569215556
106,664.69,26.051427302155243
107,675.49,25.632550380638623
108,684.8799999999999,25.268080639458894
109,694.4100000000001,24.900329330018756
110,705.69,24.462343677323616
111,715.51,24.0829387636298
112,724.43596,23.73706866462702
113,725.47,23.707331701754143
114,735.56,23.417163487481286
115,745.7900000000001,23.1238326792641
116,754.43,22.875759315843137
117,764.9200000000001,22.573927550300784
118,775.56,22.269077940532384
119,784.54,22.01133471753235
120,795.46,21.6976240698753
121,804.67,21.433094890395317
122,815.86,21.111473425131358
123,825.31,20.84093151888968
124,831.763771,20.652597688776407
125,834.87,20.584524523268783
126,844.53,20.38104231050021
127,854.3100000000001,20.170966766144446
128,864.1999999999999,19.9595848911671
129,874.21,19.745654414602562
130,884.34,19.52963814645084
131,894.5699999999999,19.310806148643128
132,904.9300000000001,19.087295298282626
133,915.41,18.878166816334943
134,926.01,18.929343142800068
135,934.58,19.12237071528178
136,945.4,19.54455637050373
137,954.15,20.005347025604657
138,954.992586,19.988317594915504
139,965.1999999999999,19.786759187036278
140,974.13,17.8511780210932
141,985.4100000000001,18.714886422007204
142,994.53,18.823390818490875
143,1006.04,19.748917563395143
144,1015.35,19.56656232230555
145,1024.75,17.79357898973389
146,1034.23,18.07214802028928
147,1043.8,20.001192959362598
148,1055.89,19.668117336937982
149,1065.6599999999999,18.35732518382893
150,1075.52,18.865805939237802
151,1085.47,17.681080603164606
152,1095.51,18.682816175609343
153,1096.4782,18.646034890315015
154,1105.6499999999999,18.33258964876875
155,1115.88,17.88713049000799
156,1126.2,17.288707540994213
157,1134.01,18.28938440903708
158,1144.5,17.65789718954536
159,1155.09,17.8119418697725
160,1165.78,17.717465449718496
161,1173.8600000000001,16.10373194700228
162,1184.72,17.251320256470336
163,1195.6799999999998,15.53539846565726
164,1203.97,14.563632452350642
165,1215.11,14.162186081031507
166,1226.36,15.287267299403116
167,1234.86,16.783609775506104
168,1246.28,17.02112972339977
169,1254.9199999999998,16.51712685910917
170,1258.92541,16.09769196056473
171,1263.6200000000001,15.629313716081047
172,1275.31,16.87721332066648
173,1284.15,17.082128456212686
174,1296.03,15.397697158734065
175,1305.02,15.213151740019182
176,1314.06,16.4503641365506
177,1326.2199999999998,16.01622640445127
178,1335.4199999999998,15.106333409770857
179,1344.67,16.15755823033674
180,1353.99,15.840860192247451
181,1366.52,14.973238492970756
182,1375.99,15.170355900620372
183,1385.5300000000002,15.084556449614809
184,1395.14,14.316127139954071
185,1404.81,14.340112808588898
186,1414.55,14.257595618568546
187,1424.3500000000001,14.343993406843754
188,1434.22,14.138053336463788
189,1440.84,14.359584275074186
190,1445.43977,14.381318311278584
191,1447.4899999999998,14.398611094325792
192,1454.1699999999998,14.149300677501433
193,1464.25,13.604129102413177
194,1474.3999999999999,13.526756335831255
195,1484.6200000000001,13.575678377755663
196,1494.92,13.58120048654445
197,1505.28,13.185202145481522
198,1512.23,12.570605704324443
199,1515.71,12.876855612924926
200,1526.22,12.603700147232708
201,1533.26,11.975099031298054
202,1543.8899999999999,12.323662665902406
203,1554.5900000000001,12.015661109013086
204,1565.3700000000001,11.944912618988148
205,1576.22,12.08638293746954
206,1583.49,12.260008763769976
207,1594.47,12.232144440905985
208,1605.52,12.080761926548327
209,1616.65,12.010756479055043
210,1624.11,11.67906121415838
211,1635.37,11.868030125319716
212,1646.71,11.829787103345428
213,1654.31,11.407000455461429
214,1659.58691,11.53467928932209
215,1665.78,11.700435551045768
216,1673.47,11.110325479151069
217,1677.32,11.632099417149172
218,1685.07,11.838734032599898
219,1696.75,11.466685169175964
220,1704.58,11.234003367753923
221,1716.39,10.90613082691174
222,1724.32,10.844433504398744
223,1736.27,11.045896234029218
224,1744.28,10.897304494643453
225,1756.37,11.129742494746587
226,1764.48,10.679437234269864
227,1776.71,10.697257504845657
228,1784.91,10.72588477538707
229,1793.15,10.996428837492102
230,1805.58,10.88008606588598
231,1813.9099999999999,10.453593659009147
232,1826.49,10.471341105766585
233,1834.9199999999998,10.238772177798797
234,1843.39,9.872430041394622
235,1856.17,9.776462445970145
236,1864.73,9.847267840584108
237,1873.34,10.138991974652594
238,1886.33,9.732832284937103
239,1895.03,9.552011950023724
240,1903.78,9.699332354564868
241,1905.46072,9.669073692339458
242,1916.98,9.48017015141424
243,1925.82,9.395124787236554
244,1934.71,9.443983387062389
245,1943.64,9.552450958091036
246,1957.12,9.265763253439994
247,1966.15,9.586793752475682
248,1975.23,9.63841621551489
249,1984.34,9.383024656956213
250,1993.5,9.237222062401052
251,2002.7,9.30347143904871
252,2016.5900000000001,9.08191143922653
253,2025.8899999999999,9.224665743881227
254,2035.2500000000002,8.973739005340144
255,2044.64,9.100016245201179
256,2054.08,8.89198044906573
257,2063.56,8.837299624133099
258,2073.08,9.056612770403282
259,2077.86,8.87128132913978
260,2082.65,9.007797880676984
261,2097.09,8.732496484893524
262,2106.77,8.68365651597497
263,2116.4900000000002,8.675856518259232
264,2126.26,8.675294484547017
265,2136.08,8.35215041483832
266,2145.94,8.426262316332439
267,2155.84,8.512054189029373
268,2165.79,8.346725025729828
269,2175.79,8.270238826433804
270,2185.83,8.168011598340593
271,2187.7616199999998,8.188758180354375
272,2195.92,8.287996127955136
273,2206.06,8.158225297278449
274,2216.24,7.938197374567533
275,2226.4700000000003,7.800244586813831
276,2236.75,8.003509934017346
277,2247.0699999999997,7.815688189186635
278,2257.44,7.619108579313138
279,2262.65,7.683461841854996
280,2273.09,7.7339998209216
281,2283.58,7.793257934945421
282,2294.12,7.584637183926457
283,2304.71,7.545449567864708
284,2315.35,7.343077086760175
285,2326.04,6.663255740612858
286,2336.77,7.034180302431312
287,2347.56,6.924036226198426
288,2352.9700000000003,7.129655028569147
289,2363.83,6.845480541276363
290,2374.74,6.891801188940794
291,2385.71,6.6697071985538825
292,2396.72,6.794676116132745
293,2402.24,6.67151741540934
294,2413.33,6.710271148919747
295,2424.47,6.85015601738737
296,2435.66,6.716506020812208
297,2446.9,6.831123159194259
298,2452.54,6.777658182368173
299,2463.86,6.71212813668177
300,2475.24,6.574159452944029
301,2486.66,6.591664677172057
302,2492.39,6.441500743268959
303,2503.9,6.684182010419974
304,2511.88643,6.4296072324294276
305,2515.46,6.318408606070955
306,2527.07,6.251623658520543
307,2532.89,6.286460909619304
308,2544.5800000000004,6.210601494730041
309,2556.33,6.379262979336646
310,2562.2200000000003,6.271797946513913
311,2574.0499999999997,6.395808963781668
312,2585.9300000000003,6.31920706396264
313,2597.87,6.243578063639478
314,2603.85,6.137796380060541
315,2615.8700000000003,6.0741559123985285
316,2627.95,6.168112344232381
317,2634.0099999999998,6.264194193314596
318,2646.1600000000003,6.474266341226954
319,2652.26,6.554515456639743
320,2664.5099999999998,6.192162770378543
321,2676.81,6.300006167030562
322,2682.98,6.274930998521858
323,2695.36,6.114532927835028
324,2707.8,6.17493875664406
325,2714.04,6.0030363042138655
326,2726.5699999999997,5.959477482266694
327,2732.8599999999997,6.070346112749718
328,2745.47,5.660261823463698
329,2758.14,5.689111433673541
330,2764.4999999999995,5.769707780235073
331,2777.2599999999998,5.84953273968871
332,2783.66,5.6763463525808175
333,2796.5099999999998,5.221997661278252
334,2802.96,5.329262357083578
335,2815.9,5.712159015024806
336,2822.3900000000003,5.863781977160708
337,2835.41,5.74566816776309
338,2841.95,5.660153212812212
339,2855.07,5.51340156924103
340,2868.25,5.765485825165714
341,2874.86,5.769700586293343
342,2884.0315,5.720568166308617
343,2888.1299999999997,5.70128301818152
344,2894.79,5.675241914913155
345,2908.15,5.9055270410895275
346,2928.31,5.743339728493396
347,2948.6099999999997,5.657538080393125
348,2969.04,5.688892763610437
349,2989.62,5.653536444501887
350,3010.35,5.659585123067471
351,3031.2099999999996,5.613183132950641
352,3052.23,5.571814473686222
353,3073.38,5.551173145739387
354,3087.57,5.552955925712645
355,3108.97,5.510862927222704
356,3130.52,5.4320039264068996
357,3152.22,5.39972592326523
358,3166.77,5.374745697656413
359,3188.72,5.192120023971638
360,3210.83,5.2529716811392735
361,3233.08,5.068644002802769
362,3248.0,5.219554104790156
363,3270.52,5.274612422267095
364,3293.1899999999996,5.203825737418173
365,3308.39,5.1776721683972795
366,3311.31121,5.163722436658343
367,3323.66,5.110396009619084
368,3331.3199999999997,5.14216264627956
369,3338.9999999999995,4.986344088779882
370,3346.7000000000003,5.1383513371200475
371,3354.42,5.0311693913000575
372,3362.1499999999996,4.91383334839999
373,3369.9,4.923340111339767
374,3377.6699999999996,4.947478680119389
375,3385.45,4.982071151818933
376,3393.26,5.084490332278243
377,3401.0800000000004,5.231535415657476
378,3408.9199999999996,4.9825533048765545
379,3416.7799999999997,4.967579999935477
380,3424.65,5.097573597914321
381,3432.5499999999997,5.163534904652933
382,3440.46,5.045693114311467
383,3448.39,4.844040129809845
384,3456.34,4.877813951148068
385,3464.31,4.757719578326135
386,3472.2999999999997,4.963550011344047
387,3480.3,4.770554347281882
388,3488.3199999999997,4.867296489059561
389,3496.36,4.822640436677084
390,3504.4199999999996,4.9127841901344524
391,3512.5,4.827045749431665
392,3520.6,4.928366114568723
393,3528.7200000000003,4.681871285545625
394,3536.8500000000004,4.866644359442448
395,3545.0,4.955437239179117
396,3553.1800000000003,4.966323827675553
397,3561.37,4.897622319091911
398,3569.58,4.682555616348115
399,3577.81,4.64377871944416
400,3586.05,4.506389725460131
401,3594.3199999999997,4.670553440235867
402,3602.61,4.866377960851447
403,3610.91,4.664157384386951
404,3619.2400000000002,4.76257351668222
405,3627.5800000000004,4.855829551897413
406,3635.9399999999996,4.60409039295245
407,3643.5099999999998,4.9598669033336265
408,3646.19,4.837675885872801
409,3648.8599999999997,5.003229965492053
410,3651.53,5.1154210451113045
411,3654.21,4.48784702765048
412,3656.88,4.760126107269732
413,3659.5499999999997,5.004631186888984
414,3662.22,4.943160266508237
415,3664.8999999999996,4.693336249047411
416,3667.57,4.8440663286666625
417,3670.2400000000002,4.659487408285915
418,3672.91,4.535915487905168
419,3675.59,4.923477470444341
420,3678.2599999999998,4.821282550063595
421,3680.93,4.570077629682847
422,3683.61,4.648699612222021
423,3686.28,4.8526356918412725
424,3688.95,4.835789771460526
425,3691.62,4.686940851079777
426,3694.2999999999997,4.615616833618953
427,3696.97,4.7839789132382045
428,3699.6400000000003,4.917858992857456
429,3702.31,4.617504072476709
430,3704.9900000000002,4.683643055015883
431,3707.66,4.552894134635135
432,3710.33,4.543537214254387
433,3713.0,4.74856629387364
434,3715.6800000000003,4.753697276412814
435,3718.3500000000004,4.5413443560320665
436,3721.02,5.527620435651318
437,3723.7,6.301042418190494
438,3726.37,7.482356497809746
439,3729.04,8.321030577428997
440,3731.7099999999996,7.264711657048251
441,3734.3900000000003,6.228328639587424
442,3737.06,5.596723719206677
443,3739.73,4.865413798825929
444,3742.4,4.730451878445182
445,3745.08,4.897853860984356
446,3747.7500000000005,4.669585940603607
447,3750.42,4.49062402022286
448,3753.1,4.326462002762035
449,3755.77,4.864772082381288
450,3758.44,4.80845016200054
451,3761.1099999999997,4.789731241619792
452,3763.79,5.037177224158967
453,3766.4599999999996,4.689858303778219
454,3769.13,4.918136383397471
455,3771.8,4.630264463016722
456,3774.48,4.781439445555898
457,3777.15,5.02547752517515
458,3779.8199999999997,5.076972604794403
459,3782.4999999999995,5.443311587333577
460,3785.17,5.543177666952829
461,3787.84,5.18400074657208
462,3790.51,5.083834826191333
463,3793.19,4.847896808730507
464,3795.8599999999997,4.82699388834976
465,3798.5299999999997,4.504638967969012
466,3801.2000000000003,4.859927047588264
467,3801.8939600000003,4.817782179022171
468,3803.88,4.697807233883092
469,3806.55,4.850177648675652
470,3809.22,5.0838400634682115
471,3811.89,5.35073747826077
472,3814.5699999999997,5.087419014457048
473,3817.2400000000002,5.178938429249607
474,3819.9100000000003,5.261407844042166
475,3822.59,4.888868380238444
476,3825.2599999999998,4.5909347950310035
477,3827.93,4.612239209823563
478,3830.6,4.565357624616121
479,3833.28,4.701949160812399
480,3835.9500000000003,4.510115575604958
481,3838.62,4.589774990397518
482,3841.29,4.640569405190077
483,3843.97,4.825217941386354
484,3846.64,4.748690356178914
485,3849.3100000000004,5.2728827709714725
486,3851.9900000000002,5.08305530716775
487,3854.66,5.57572872196031
488,3857.33,5.504820136752869
489,3860.0,5.420336551545429
490,3862.68,6.078690087741705
491,3865.3500000000004,5.964405502534264
492,3868.02,6.217729917326825
493,3870.69,6.3537193321193834
494,3873.37,6.046396868315661
495,3876.04,5.66826428310822
496,3878.71,5.51856069790078
497,3881.3799999999997,5.081447112693339
498,3884.06,5.078544648889616
499,3886.73,4.573870063682175
500,3889.4,4.903803478474734
501,3892.08,5.045386014671012
502,3894.75,4.898177429463571
503,3897.4199999999996,5.126847844256131
504,3900.09,5.07512925904869
505,3902.77,5.366032795244967
506,3905.44,5.641980210037527
507,3908.11,5.616007624830086
508,3910.7799999999997,5.695514039622646
509,3913.4600000000005,5.9831375758189225
510,3916.13,6.020202990611482
511,3918.8,5.548295405404041
512,3921.48,5.586583941600319
513,3924.15,5.417688356392878
514,3926.8199999999997,5.347091771185438
515,3929.49,5.170549185977997
516,3932.1699999999996,5.344897722174274
517,3934.84,5.026836136966833
518,3937.51,5.170000551759392
519,3940.18,5.021544966551952
520,3942.86,5.188247502748229
521,3945.5299999999997,5.513032917540789
522,3948.2,5.626396332333348
523,3950.8700000000003,5.539883747125907
524,3953.55,5.610939283322184
525,3956.22,5.490256698114743
526,3958.89,5.314963112907304
527,3961.5699999999997,4.97347464910358
528,3964.24,5.00975806389614
529,3966.9100000000003,4.914195478688699
530,3969.58,5.009458893481259
531,3972.26,4.8116754296775355
532,3974.93,4.833915844470095
533,3977.6,4.939009259262654
534,3980.27,4.921461674055213
535,3982.9500000000003,5.218608210251491
536,3985.6200000000003,5.42808562504405
537,3988.29,5.45859703983661
538,3990.97,5.693639576032886
539,3993.64,5.659710990825446
540,3996.31,5.532318405618005
541,3998.9799999999996,5.609639820410566
542,4001.6600000000003,5.625459356606841
543,4004.33,5.658154771399401
544,4007.0,5.593643186191961
545,4009.67,5.70201460098452
546,4012.35,5.393602137180798
547,4015.0200000000004,5.576867551973356
548,4017.69,5.622825966765916
549,4020.36,5.781127381558475
550,4023.04,5.921926917754753
551,4025.71,5.847897332547312
552,4028.3799999999997,5.603482747339871
553,4031.0600000000004,5.594649283536148
554,4033.73,5.654338698328708
555,4036.4,5.707787113121267
556,4039.07,5.563075527913826
557,4041.75,5.445333064110104
558,4044.42,5.608470478902663
559,4047.0899999999997,5.563774893695223
560,4049.76,5.592726308487782
561,4052.44,5.618999844684058
562,4055.11,5.893387259476619
563,4057.78,5.748052674269178
564,4060.46,5.680395210465455
565,4063.1299999999997,5.895022625258014
566,4065.8,5.909307040050574
567,4068.4700000000003,5.9111094548431335
568,4071.15,5.67041499103941
569,4073.82,5.77285540583197
570,4076.49,5.76888482062453
571,4079.16,5.798148235417088
572,4081.8399999999997,5.867172771613365
573,4084.51,5.714505186405924
574,4087.1800000000003,5.776690601198484
575,4089.85,5.903318015991044
576,4092.5299999999997,5.761701552187321
577,4095.2,5.49076196697988
578,4097.87,5.528606381772439
579,4100.55,5.287444917968717
580,4103.22,5.293302332761276
581,4105.889999999999,5.306493747553835
582,4108.56,5.442794162346394
583,4111.24,5.445507698542672
584,4113.91,5.4006561133352315
585,4116.58,5.422741528127791
586,4119.25,5.492260942920351
587,4121.929999999999,5.904710479116628
588,4124.6,5.774354893909186
589,4127.27,5.628551308701745
590,4129.95,5.558085844898024
591,4132.62,5.744784259690583
592,4135.29,5.6557756744831424
593,4137.96,5.681450089275701
594,4140.64,5.779185625471978
595,4143.31,5.753994040264537
596,4145.9800000000005,5.633936455057097
597,4148.65,5.774293869849657
598,4151.33,5.726140406045934
599,4154.0,5.727942820838493
600,4156.67,5.775149235631053
601,4159.35,5.762414771827329
602,4162.02,5.709450186619889
603,4164.69,5.526355601412449
604,4167.36,5.613038016205008
605,4170.04,5.681595552401285
606,4172.71,5.346527967193845
