,lambda (Angstroms),Total Flux (erg/s/cm^2/Angstrom)
0,102.01,34.320950924291765
1,103.91,34.22313605375302
2,104.712855,34.181803865391764
3,106.08,33.81209388648193
4,108.05,33.279356935791
5,110.06,32.735802991177444
6,113.93,31.689258829160348
7,117.94000000000001,30.604855188414067
8,120.22644299999999,29.986544187528306
9,120.96000000000001,29.820230057422894
10,124.92,28.922407590705262
11,126.95,28.46216021509025
12,128.13,28.194627257836384
13,131.10999999999999,27.518993179348488
14,132.02,27.312675390282383
15,133.86,26.895505355244417
16,136.98,26.18813007844634
17,138.038426,25.948160724369508
18,139.84,25.65620163602058
19,143.1,25.127893263532222
20,147.11,24.478041553979075
21,150.88,23.867083712239335
22,155.11,23.181579290388374
23,158.489319,22.6339343454853
24,159.09,22.560339716997593
25,162.05,22.197684496863385
26,165.82,21.735789165979543
27,170.07999999999998,21.213859694001552
28,172.84,20.875708205342992
29,176.87,20.381958024525154
30,180.15,19.98009683527618
31,181.82,19.775490681241262
32,181.970086,19.75710234636576
33,186.06,19.374817934145323
34,190.82999999999998,18.9289658592694
35,193.93,18.639208745925455
36,197.99,18.259720397853044
37,202.14,17.871819747197186
38,204.95,17.60916894596874
39,208.929613,17.237194374629592
40,210.21,17.147218875487273
41,216.1,16.73331613895595
42,220.10999999999999,16.4515249725849
43,223.17,16.236492311991487
44,226.79999999999998,15.981404551263418
45,229.95999999999998,15.759344708668696
46,234.23,15.459282853059797
47,239.88329199999998,15.06201415593255
48,240.24,15.042697598136336
49,245.84,14.739444685004576
50,252.14000000000001,14.39828519883017
51,256.83,14.14431084559777
52,259.8,13.98347856962902
53,264.02,13.754955887208276
54,268.93,13.489068106537871
55,273.93,13.218306621165794
56,275.42287,13.137464282661526
57,279.03000000000003,12.987553877026691
58,284.21,12.772275842187412
59,290.16,12.524996986336152
60,296.24,12.272315459788329
61,301.05,12.072414429583864
62,308.07,11.780667036248323
63,316.227766,11.441634726655698
64,318.15999999999997,11.381656576443001
65,327.83,11.081491754232417
66,337.79,10.772325096802797
67,348.05,10.453846197095409
68,356.98,10.176651672164516
69,363.078055,9.987363100880827
70,366.14,9.916184317874604
71,374.67,9.717893637520064
72,385.16,9.474040098440742
73,395.03999999999996,9.244367222420241
74,405.18,9.008650263618094
75,413.66,8.811521993430294
76,416.86938299999997,8.736915794046721
77,422.32,8.640154845304343
78,430.17,8.500799461920318
79,441.21,8.304814526266357
80,451.49,8.12232114338823
81,459.88,7.973379484899296
82,469.51,7.802425199107045
83,478.630092,7.64052303064106
84,480.45,7.615675657592819
85,490.51,7.478325088777325
86,499.63,7.35380931337954
87,506.58000000000004,7.25892094899897
88,512.4399999999999,7.178927680368244
89,519.57,7.081583413453113
90,530.45,6.933040531349614
91,540.3100000000001,6.798421113698632
92,549.5408739999999,6.6724071816445525
93,550.36,6.663877219696814
94,560.59,6.557342702539671
95,569.7,6.462474272326175
96,580.29,6.352176315994646
97,589.7199999999999,6.25398963200725
98,600.6800000000001,6.139852299453711
99,610.44,6.038232689414794
100,620.36,5.934944753453929
101,630.44,5.829988930071112
102,630.957344,5.824601161022818
103,640.69,5.744252026610993
104,649.6,5.670737816770287
105,658.6400000000001,5.596137929746943
106,664.73,5.54588295858343
107,675.53,5.456724355764392
108,684.93,5.379127527173747
109,694.4599999999999,5.300594657000465
110,705.74,5.20746189069169
111,715.56,5.126514691972527
112,724.43596,5.053280767947652
113,725.51,5.046704401870149
114,735.61,4.984858722604761
115,745.84,4.922316991482594
116,754.48,4.869474331239533
117,764.9699999999999,4.805297188503801
118,775.61,4.740240127779474
119,784.59,4.685361319395596
120,795.51,4.618550123625893
121,804.72,4.562229732526172
122,815.91,4.4937655221769965
123,825.36,4.436110610895522
124,831.763771,4.396610214557404
125,834.92,4.3820265024874745
126,844.59,4.338338754000444
127,854.37,4.29366749425141
128,864.26,4.248641588240373
129,874.2700000000001,4.203083505398058
130,884.39,4.157117006293741
131,894.63,4.110493614358148
132,904.99,4.063065638591278
133,915.47,4.01776890199313
134,923.94,4.0255319718188645
135,934.6400000000001,4.044903872696711
136,945.46,4.118255954743281
137,954.21,4.20205893162937
138,954.992586,4.2005735491200875
139,965.26,4.182101577297668
140,974.19,3.800011839535753
141,985.4699999999999,4.0022223113101765
142,994.59,4.014493545510773
143,1006.11,4.193877599237843
144,1015.42,4.154821215400953
145,1024.81,3.7771730555482783
146,1034.3,3.8680159756758727
147,1043.87,4.284109819787684
148,1055.95,4.2266675414042645
149,1065.72,3.9702908454766144
150,1075.59,4.090432629529235
151,1085.54,3.84661273756607
152,1095.58,4.077071147585148
153,1096.4782,4.071051027634202
154,1105.72,4.016616502307962
155,1115.95,3.936259564823546
156,1126.28,3.8128229465230556
157,1134.08,4.0563202428692495
158,1144.5800000000002,3.920747857181431
159,1155.1699999999998,3.9746742887591484
160,1165.86,3.9763693395207897
161,1173.94,3.594191189581974
162,1184.8,3.89880217295629
163,1195.76,3.4728703755145305
164,1204.05,3.229849265861959
165,1215.19,3.0895559029512647
166,1223.62,3.44133842015619
167,1234.94,3.853947991776561
168,1246.36,3.9491617825808603
169,1255.0,3.8443646400720275
170,1258.92541,3.7396968170507927
171,1263.7,3.6174171179502945
172,1275.3999999999999,3.9824562197008664
173,1284.24,4.057297496579077
174,1296.1200000000001,3.627201692202733
175,1305.1,3.5954717087600097
176,1314.15,3.9537065951568193
177,1326.31,3.85449427013861
178,1335.5,3.6223358962144863
179,1344.7600000000002,3.9350773921298954
180,1354.08,3.863587919336334
181,1363.47,3.645824316382306
182,1376.0800000000002,3.7099447260468104
183,1385.62,3.709985701320354
184,1395.23,3.49759254643343
185,1404.9,3.5300364228375347
186,1414.64,3.5243941690811726
187,1424.4399999999998,3.5663439466158406
188,1434.32,3.5291394325385452
189,1440.94,3.612118551648697
190,1445.43977,3.6244510575892255
191,1447.59,3.6320429647492882
192,1454.27,3.569047615391881
193,1464.3500000000001,3.4190795253435784
194,1474.5,3.4078356082810517
195,1484.72,3.4311828642043003
196,1495.01,3.4523162931133244
197,1505.38,3.3417296340060925
198,1512.3200000000002,3.153994498595852
199,1515.81,3.2601364088866682
200,1526.32,3.184028095750987
201,1533.36,2.989875350320427
202,1543.99,3.1164769051603614
203,1554.69,3.0258306329860716
204,1565.47,3.024404272795526
205,1576.32,3.085630085590756
206,1583.6,3.1560900761114263
207,1594.58,3.163113495880239
208,1605.63,3.1246040886348276
209,1616.7599999999998,3.1191055933731606
210,1624.22,3.0228248858572533
211,1635.48,3.0994669975691695
212,1646.82,3.099819021264829
213,1654.42,2.9747966597204734
214,1659.58691,3.024819152823023
215,1665.88,3.0891876777311715
216,1673.5700000000002,2.9039783822142624
217,1677.43,3.067129549874176
218,1685.17,3.140939305751826
219,1696.8600000000001,3.0278581217995937
220,1704.69,2.956054770187449
221,1716.5,2.8506681095821578
222,1724.43,2.8368728607591294
223,1736.3799999999999,2.9117351440586017
224,1744.4,2.8710467877457786
225,1756.49,2.953080014950015
226,1764.5900000000001,2.816525340868485
227,1776.8300000000002,2.8275557222563963
228,1785.03,2.847902150963985
229,1793.2699999999998,2.937408420787219
230,1805.7,2.9158247974744524
231,1814.0300000000002,2.770442959807892
232,1826.61,2.7926074906788005
233,1835.04,2.7222457558013566
234,1843.5099999999998,2.6019398620395604
235,1856.29,2.572819598488703
236,1864.8500000000001,2.5988225972371115
237,1873.46,2.7160446473800786
238,1886.45,2.5742057996863665
239,1895.1599999999999,2.5071129526184506
240,1903.9,2.5769267363872697
241,1905.46072,2.5674215458193936
242,1917.1,2.500512676483008
243,1925.9499999999998,2.477363993168583
244,1934.84,2.5206318197600814
245,1943.77,2.5417281562575034
246,1957.24,2.439785367077243
247,1966.28,2.5521566058159544
248,1975.35,2.5829617269841085
249,1984.47,2.4913359855346675
250,1993.63,2.443158753991149
251,2002.83,2.4788620323535553
252,2016.7199999999998,2.4064425971854915
253,2026.03,2.4679867777891866
254,2035.3799999999999,2.3726754682988056
255,2044.77,2.411811668714348
256,2054.21,2.3460740065122945
257,2063.69,2.3388258542161644
258,2073.2200000000003,2.406168839302439
259,2078.0,2.3202387730602974
260,2082.79,2.3645953342946373
261,2097.22,2.275568782856541
262,2106.9,2.277404180090029
263,2116.63,2.2742747147059204
264,2126.4,2.280985759227736
265,2136.21,2.186611213655475
266,2146.08,2.1943196329420998
267,2155.98,2.2262158346581664
268,2165.9300000000003,2.181682173756638
269,2175.9300000000003,2.1564976502375135
270,2185.9700000000003,2.1133938366243123
271,2187.7616199999998,2.1198804108208797
272,2196.06,2.1524404607314462
273,2206.2000000000003,2.1139644196303986
274,2216.38,2.0568354146591297
275,2226.61,2.0083223048500853
276,2236.89,2.0542733902032637
277,2247.2200000000003,2.002708070718666
278,2257.5899999999997,1.9643215873638478
279,2262.79,1.9918408842351052
280,2273.24,2.011067873139844
281,2283.73,2.028840798174362
282,2294.27,1.9739766183711036
283,2304.86,1.9617879337300685
284,2315.5,1.9154716442512574
285,2326.19,1.70887824993467
286,2336.9300000000003,1.851638650780306
287,2342.31,1.837515510235569
288,2353.12,1.8841914243083182
289,2363.99,1.8213951925757357
290,2374.9,1.835417996972932
291,2385.86,1.783665596532352
292,2396.87,1.8341401912539959
293,2402.4,1.7938277361959294
294,2413.4900000000002,1.8095338031771309
295,2424.63,1.839437265320556
296,2435.8199999999997,1.798588022626205
297,2447.06,1.8424048750940774
298,2452.7,1.825354969392903
299,2464.02,1.8188743941203334
300,2475.4,1.7853122730424316
301,2486.8199999999997,1.8157206880943093
302,2492.56,1.7622491727175822
303,2504.0600000000004,1.8342191600290172
304,2511.88643,1.777792862018258
305,2515.62,1.7514783990570073
306,2527.2299999999996,1.7410567862847453
307,2533.06,1.7480628685016022
308,2544.75,1.7226783592589023
309,2556.4900000000002,1.7653690272221787
310,2562.39,1.7532118375274028
311,2574.22,1.7961452844614374
312,2586.1,1.783138508601448
313,2592.06,1.776664471553844
314,2604.0200000000004,1.743879499223417
315,2616.04,1.7350451795401618
316,2622.07,1.7603524705809248
317,2634.18,1.7635083298684275
318,2646.3399999999997,1.8131761663619066
319,2652.4399999999996,1.8107065854910367
320,2664.68,1.7429060255140776
321,2676.98,1.7751053181842908
322,2683.15,1.762103665401788
323,2695.5299999999997,1.7343642616015638
324,2707.98,1.7436576858897062
325,2714.22,1.7145677611955703
326,2726.75,1.7154837890132755
327,2733.03,1.7523202660839208
328,2745.65,1.6545868728723832
329,2751.98,1.657734727149005
330,2764.68,1.67391613746703
331,2777.44,1.7049799004322268
332,2783.84,1.6880491827972155
333,2796.69,1.54477292473317
334,2803.14,1.5952175843041356
335,2816.0800000000004,1.6953873052108475
336,2822.5699999999997,1.7052995665465942
337,2835.6,1.6587458664240637
338,2842.1400000000003,1.6460354049657866
339,2855.26,1.6386345838140142
340,2861.84,1.6746117241205183
341,2875.05,1.6547671819395036
342,2884.0315,1.6552627620677467
343,2888.3199999999997,1.656094587024621
344,2894.9700000000003,1.6399519991564837
345,2908.3399999999997,1.6822498667058083
346,2928.5,1.6556409329581927
347,2948.7999999999997,1.6418188857817744
348,2969.2400000000002,1.644648025176553
349,2989.82,1.6391133511425287
350,3010.54,1.6398639636797017
351,3031.41,1.6342451261145858
352,3052.42,1.620113075120667
353,3066.51,1.612091802179005
354,3087.7700000000004,1.6084409343479382
355,3109.17,1.5900682530880688
356,3130.73,1.5800495850524243
357,3152.43,1.5762557035879772
358,3166.98,1.5639928436659627
359,3188.93,1.5315130453643677
360,3211.03,1.5417066969604836
361,3233.29,1.5213742617808248
362,3248.22,1.5254207082663456
363,3270.73,1.5233635562495387
364,3293.4,1.513072817456957
365,3308.6,1.5089187737583583
366,3311.31121,1.5092711889908679
367,3323.88,1.5121281942826865
368,3331.54,1.5066575119680825
369,3339.22,1.4749647028067039
370,3346.92,1.5039554667985509
371,3354.63,1.4682534673670105
372,3362.3599999999997,1.474846941088696
373,3370.12,1.4536624245402194
374,3377.89,1.454229544568356
375,3385.67,1.4827922011731052
376,3393.48,1.493702967507693
377,3401.2999999999997,1.5089769704188933
378,3409.14,1.4545619464833193
379,3417.0,1.4772545957009708
380,3424.88,1.486102218071848
381,3432.77,1.495077777019338
382,3440.68,1.4874495091200535
383,3448.62,1.4574857509506076
384,3456.5699999999997,1.4339666293577742
385,3464.53,1.4279455443415534
386,3472.52,1.4455404690551714
387,3480.53,1.4374563669220146
388,3488.55,1.4452867013654709
389,3496.59,1.4471772089621529
390,3504.65,1.42515558971206
391,3512.73,1.419099543615193
392,3520.83,1.4307498706715513
393,3528.9500000000003,1.4226560708811355
394,3537.0800000000004,1.436421107667332
395,3545.2299999999996,1.4423214176067551
396,3553.4100000000003,1.4442029372760157
397,3561.6,1.4420359935218894
398,3569.81,1.4157824229209883
399,3578.04,1.3806412254733131
400,3586.29,1.3709000011788635
401,3594.55,1.3762926134610267
402,3602.84,1.3972267354730281
403,3611.15,1.3911176306382549
404,3619.4700000000003,1.402627662380095
405,3627.8100000000004,1.4264833672751602
406,3636.17,1.4021659453234512
407,3636.96,1.3696409348758616
408,3639.6299999999997,1.5193840008314763
409,3642.2900000000004,1.3330856302104777
410,3644.96,1.239302796166092
411,3647.63,1.2507472621217066
412,3650.29,1.1895938915007083
413,3652.96,1.517635157456323
414,3655.63,1.3280819234119372
415,3658.2999999999997,1.6125703893675518
416,3660.9599999999996,1.6452507187465537
417,3663.63,1.2319820847021679
418,3666.3,1.4320774506577822
419,3668.96,1.3259019800367842
420,3671.63,1.3634555459923985
421,3674.2999999999997,1.196351411948013
422,3676.96,1.2727255413270147
423,3679.6299999999997,1.3324049072826294
424,3682.3,1.4466534732382437
425,3684.96,1.5478815026172452
426,3687.63,1.2261485685728597
427,3690.3,1.1793269345284743
428,3692.96,1.086375663907476
429,3695.6299999999997,1.2936316298630903
430,3698.2999999999997,1.386795395818705
431,3700.9599999999996,1.2800275251977067
432,3703.63,1.145205491153321
433,3706.3,1.3556910571089353
434,3708.96,1.280415786487937
435,3711.63,1.5862592524435515
436,3714.2999999999997,1.257814918399166
437,3716.96,1.3368809477781678
438,3719.6299999999997,1.5308935137337822
439,3722.3,1.9180424796893965
440,3724.96,2.2462188090683983
441,3727.63,3.203699775024013
442,3730.2999999999997,3.7354787409796275
443,3732.96,3.610326070358629
444,3735.6299999999997,2.6792630363142433
445,3738.3,1.970625002269858
446,3740.96,1.6778633316488596
447,3743.63,1.5414252976044742
448,3746.3,1.4504776635600884
449,3748.96,1.5402395929390902
450,3751.63,1.4146046588947048
451,3754.2999999999997,1.2262718248503193
452,3756.9599999999996,1.4512276542293208
453,3759.63,1.3862816201849353
454,3762.3,1.4540356861405495
455,3764.96,1.4392521155195515
456,3767.63,1.3928966814751658
457,3770.2999999999997,1.5581080474307805
458,3772.96,1.4358900768097822
459,3775.6299999999997,1.5498873427653965
460,3778.3,1.764894308721011
461,3780.96,1.6777056381000128
462,3783.63,1.6298606040556272
463,3786.3,1.8892795700112415
464,3788.96,1.7844158993902433
465,3791.6299999999997,1.825198865345858
466,3794.2999999999997,1.7578118313014723
467,3796.9599999999996,1.649501160680474
468,3799.63,1.5001974266360882
469,3801.8939600000003,1.500330352423681
470,3802.3,1.5003820251389346
471,3804.96,1.5044975877255913
472,3807.63,1.6530235723520477
473,3810.2999999999997,1.5691315569785043
474,3812.96,1.679927219565161
475,3815.6299999999997,1.6590742041916173
476,3818.3,1.5867201888180738
477,3820.9700000000003,1.65871317344453
478,3823.63,1.765022836031187
479,3826.3,1.725094820657643
480,3828.97,1.7026808052840996
481,3831.6299999999997,1.4717219678707565
482,3834.2999999999997,1.4943309524972128
483,3836.9700000000003,1.4463461371236692
484,3839.63,1.291400099710326
485,3842.3,1.3154808843367825
486,3844.97,1.582531068963239
487,3847.63,1.6760467315498957
488,3850.2999999999997,1.5919747161763522
489,3852.97,1.5996717008028085
490,3855.63,1.7250033633894652
491,3858.3,1.7844513480159216
492,3860.9700000000003,1.709495332642378
493,3863.63,1.8650099952290349
494,3866.2999999999997,1.8573819798554914
495,3868.97,1.884619964481948
496,3871.6299999999997,1.8083986270686045
497,3874.3,1.7698516116950609
498,3876.9700000000003,1.7067935963215173
499,3879.63,1.6091632589081744
500,3882.3,1.8197232435346304
501,3884.97,1.705397228161087
502,3887.63,1.7052958907477438
503,3890.2999999999997,1.4328058753742003
504,3892.9700000000003,1.4730725600006567
505,3895.63,1.5195545225873135
506,3898.3,1.5748225072137698
507,3900.9700000000003,1.5756474918402261
508,3903.63,1.7199641544268829
509,3906.2999999999997,1.8354901390533396
510,3908.97,1.9139601236797958
511,3911.6299999999997,1.6920277862664528
512,3914.3,1.775414770892909
513,3916.9700000000003,2.0784787555193653
514,3919.63,1.8028574181060222
515,3922.3,1.8797844027324784
516,3924.97,1.808309387358935
517,3927.6299999999997,2.0056170499455916
518,3930.2999999999997,1.8141110345720484
519,3932.9700000000003,1.6001920191985046
520,3935.63,1.7102706817851614
521,3938.3,1.736790666411618
522,3940.97,1.7151126510380743
523,3943.63,1.7709093136247311
524,3946.2999999999997,1.7552412982511876
525,3948.97,1.891152282877644
526,3951.6299999999997,1.8417579454643007
527,3954.3,1.735254930090757
528,3956.9700000000003,1.6441669147172133
529,3959.63,1.6869705773038701
530,3962.3,1.5883275619303268
531,3964.97,1.6568925465567832
532,3967.6299999999997,1.4837512091434402
533,3970.2999999999997,1.5617021937698963
534,3972.9700000000003,1.2855693783963527
535,3975.63,1.4215589409830096
536,3978.3,1.467119225609466
537,3980.97,1.6043588102359223
538,3983.64,1.6992477948623788
539,3986.2999999999997,1.6818484574490355
540,3988.97,1.6563114420754919
541,3991.6400000000003,1.8173084267019481
542,3994.3,1.8355290892886051
543,3996.9700000000003,1.9066240739150615
544,3999.64,1.7291330585415179
545,4002.2999999999997,1.9286117211281748
546,4004.97,1.880553705754631
547,4007.64,1.6798786903810876
548,4010.3,1.7294123529677443
549,4012.9700000000003,1.7590903375942009
550,4015.64,1.7393503222206572
551,4018.3,1.9231989848073139
552,4020.97,1.9094339694337705
553,4023.64,1.8502509540602265
554,4026.2999999999997,1.9497436166468836
555,4028.9700000000003,1.9895786012733399
556,4031.6400000000003,1.8519235858997964
557,4034.3,1.8389032484864531
558,4036.97,1.8761542331129095
559,4039.64,1.8491642177393661
560,4042.2999999999997,1.9136638803260229
561,4044.97,1.8041278649524792
562,4047.6400000000003,1.9039698495789354
563,4050.3,1.7747585121655924
564,4052.9700000000003,1.7069434967920487
565,4055.64,1.7711844814185052
566,4058.3,1.809071144005162
567,4060.97,1.9910461286316183
568,4063.64,1.7909621132580749
569,4066.2999999999997,1.8018797758447316
570,4068.9700000000003,1.862889760471188
571,4071.6400000000003,1.9427227450976443
572,4074.3,1.846349407684301
573,4076.97,1.9310823923107578
574,4079.64,1.776326376937214
575,4082.2999999999997,1.801133039523871
576,4084.97,1.8430320241503273
577,4087.6400000000003,1.8467990087767836
578,4090.3,1.8543956713634404
579,4092.9700000000003,1.6731546559898969
580,4095.64,1.8408626406163533
581,4098.3,1.66829630320301
582,4100.97,1.6741982878294666
583,4103.64,1.6104582724559229
584,4106.3,1.5062779350425797
585,4108.97,1.617083919669036
586,4111.639999999999,1.4767749042954925
587,4114.3,1.7091275668821493
588,4116.969999999999,1.7594965515086058
589,4119.64,1.7423215361350621
590,4122.3,1.826166198721719
591,4124.97,1.8673471833481752
592,4127.64,1.8521461679746316
593,4130.3,1.7404478305612887
594,4132.97,1.647833815187745
595,4135.639999999999,1.7663027998142016
596,4138.3,1.917475462400858
597,4140.97,1.8834684470273146
598,4143.64,1.7534584316537707
599,4146.31,1.8083314162802273
600,4148.97,1.7118500788668842
601,4151.639999999999,1.6750620634933406
602,4154.31,1.6866890481197967
