,lambda (Angstroms),Total Flux (erg/s/cm^2/Angstrom)
0,102.08999999999999,11.41851539934536
1,103.97999999999999,11.386140160984333
2,104.712855,11.373586558526792
3,105.92,11.264967056293429
4,107.89,11.087705586942791
5,109.89,10.907745070288502
6,114.02000000000001,10.536126174559747
7,118.02,10.176204970360162
8,120.22644299999999,9.977678131995502
9,121.05,9.915553400013373
10,125.02,9.616064716437712
11,127.05,9.462925137102426
12,127.93,9.396540304212152
13,130.91,9.171734678220545
14,132.12,9.080459265818922
15,133.96,8.941653547912898
16,137.07999999999998,8.706294810739207
17,138.038426,8.633993682646256
18,139.95000000000002,8.530920013215544
19,142.88,8.373030901731077
20,146.88,8.157581000735563
21,151.0,7.935459067679179
22,154.87,7.726826356991268
23,158.489319,7.531715081569191
24,158.83999999999997,7.517424089830719
25,162.17,7.381711915974006
26,165.94,7.2280893642656565
27,169.81,7.070379367559207
28,172.97,6.9416062204792635
29,177.0,6.777378967035855
30,179.87,6.6604257915103995
31,181.95,6.575666163029932
32,181.970086,6.574847643245246
33,186.19,6.443670850929143
34,190.97,6.2950945267555065
35,194.07,6.198744369958797
36,198.14,6.072229777745052
37,201.82,5.9578572869670205
38,205.1,5.855905868969212
39,208.929613,5.7368282719793795
40,209.88,5.714612912018464
41,215.76000000000002,5.577306319256921
42,219.77,5.483635290780087
43,222.82,5.412361705529627
44,226.96999999999997,5.31542497658228
45,230.12,5.242773123995739
46,233.86,5.157233012426323
47,239.86,5.018562373261484
48,239.88329199999998,5.018016418050253
49,246.01999999999998,4.907089705952814
50,251.75,4.8044337102731065
51,257.02,4.708262114579904
52,259.99,4.655916190819218
53,264.22,4.580130656008544
54,269.13,4.49172399004391
55,274.13,4.401647531147133
56,275.42287,4.378364241362006
57,279.23,4.325753957914795
58,283.77,4.263021580659421
59,289.71,4.180592101263622
60,295.78000000000003,4.0967803312547835
61,301.28,4.020581350703119
62,308.28999999999996,3.923835298799997
63,316.227766,3.814305353255036
64,317.66,3.799555290935223
65,328.07000000000005,3.692069071211513
66,338.04,3.589043941148557
67,348.31,3.4828872448169057
68,357.24,3.3906543739520907
69,363.078055,3.330451727081689
70,366.41,3.3047338931461887
71,374.94,3.2386543011441162
72,384.55999999999995,3.163887258873315
73,395.33,3.0808895273923866
74,404.53999999999996,3.0097840333878043
75,413.96000000000004,2.936787746588329
76,416.86938299999997,2.914203734296977
77,421.66,2.885774209887171
78,430.48999999999995,2.8334894197302223
79,440.52,2.7742750937705183
80,450.78,2.713529366406952
81,460.22,2.6575248560919356
82,469.84999999999997,2.6005529833998176
83,478.630092,2.5487295686234694
84,479.69,2.543919249024514
85,489.73999999999995,2.497902002190822
86,499.99,2.4515076604101895
87,505.78,2.424895044246301
88,511.64,2.398847112000984
89,519.95,2.360961648905662
90,529.62,2.3167863373711546
91,539.46,2.2716610037817473
92,549.49,2.2259268785427495
93,549.5408739999999,2.225697062914249
94,559.71,2.1907153775203065
95,570.12,2.154815208843828
96,579.38,2.1225341604438097
97,590.15,2.0851568316373092
98,599.74,2.0514409152014372
99,609.49,2.0169197425966665
100,619.39,1.9835398565210534
101,629.45,1.9484424042765407
102,630.957344,1.9432347460118256
103,639.68,1.9193644356896236
104,650.0699999999999,1.8906270278027373
105,657.6,1.8696745158847143
106,665.22,1.8489346799676716
107,674.4699999999999,1.8235456230683744
108,685.4300000000001,1.7929760681876932
109,694.97,1.767018976291553
110,704.63,1.7399385573967194
111,716.08,1.7089122595213724
112,724.43596,1.685900977683065
113,726.04,1.6826193095549562
114,734.4499999999999,1.6654042715763153
115,744.6700000000001,1.6443944331718314
116,755.03,1.62317526873441
117,765.53,1.60120534526405
118,774.4,1.5835251181771843
119,785.1700000000001,1.5612789176433006
120,794.26,1.5428431195046752
121,805.3100000000001,1.5202996429049151
122,814.64,1.5012081687098242
123,824.0699999999999,1.4819501264912056
124,831.763771,1.4658805822479046
125,835.53,1.4599537872634571
126,845.21,1.4455857807574033
127,854.99,1.4305750687461223
128,864.89,1.4154927147285674
129,874.91,1.4001850857047395
130,885.04,1.3846936989251606
131,895.29,1.3690117891393088
132,905.66,1.3530999933471828
133,914.04,1.340302527409091
134,924.62,1.3270889773559869
135,935.33,1.314123724046087
136,943.9799999999999,1.30468527234388
137,954.9100000000001,1.2911565195224786
138,954.992586,1.291032349268104
139,965.97,1.2748889640852321
140,974.91,1.2510140035091595
141,983.93,1.2437293590621603
142,995.3199999999999,1.2276309914389536
143,1004.53,1.2193431422985028
144,1016.16,1.2023477090625156
145,1025.57,1.1803276402447476
146,1035.05,1.169395963539919
147,1044.63,1.1647243369964313
148,1054.3,1.1495427845981516
149,1064.05,1.1296893503289447
150,1073.9,1.1180770762210792
151,1083.83,1.0984308002422876
152,1093.86,1.0892971444248367
153,1096.4782,1.0851120185582093
154,1103.98,1.075148422156167
155,1114.2,1.0614560967803954
156,1124.51,1.046292333783898
157,1134.9099999999999,1.038820523166675
158,1145.42,1.0240706032352307
159,1156.01,1.0122484365298081
160,1164.03,1.0025042274384495
161,1174.8,0.9818502454915748
162,1185.67,0.9751592950772268
163,1193.8899999999999,0.9588997390509217
164,1204.93,0.941597314241869
165,1216.08,0.9262845851185961
166,1224.51,0.9225039263105967
167,1235.84,0.9153206869458718
168,1244.4099999999999,0.9064322212834098
169,1255.92,0.8909024766772325
170,1258.92541,0.886261993373956
171,1264.6299999999999,0.8794538526836415
172,1276.33,0.8747276887063821
173,1285.1799999999998,0.8681917239030708
174,1294.09,0.8538987796434656
175,1306.06,0.8433010931128849
176,1315.11,0.8410262601219279
177,1324.23,0.8317523927652951
178,1336.4799999999998,0.817727398772011
179,1345.75,0.8144116577746439
180,1355.07,0.8053979222303655
181,1364.47,0.794166617411029
182,1373.9299999999998,0.7869703331353991
183,1383.45,0.7786834094034751
184,1396.25,0.7637148953941658
185,1405.93,0.7557124631121257
186,1415.67,0.7486543113737918
187,1425.49,0.7407151803604
188,1435.37,0.7321146098907144
189,1441.99,0.7274723098796497
190,1445.43977,0.7247055841620027
191,1448.6499999999999,0.7229748690263014
192,1455.34,0.7180084783722507
193,1465.42,0.7100102198082996
194,1475.58,0.7040165022081273
195,1485.81,0.6983956517012604
196,1496.11,0.6924180982876996
197,1506.48,0.6847947819674447
198,1513.43,0.6782547719456731
199,1516.9199999999998,0.6775055327404956
200,1523.92,0.6726346520710853
201,1534.49,0.6634903431602759
202,1545.1200000000001,0.6580954774722998
203,1555.83,0.6509409527481024
204,1566.62,0.6451412089876827
205,1573.85,0.6419749973391348
206,1584.76,0.6364533700243823
207,1595.74,0.630124419802936
208,1606.8,0.6232314705452677
209,1614.22,0.6188520924356928
210,1625.4099999999999,0.6112121834941642
211,1636.68,0.6058168955164136
212,1644.2300000000002,0.6016323877229781
213,1655.6299999999999,0.5935194700613672
214,1659.58691,0.5919912208044786
215,1663.27,0.5912392347963564
216,1670.95,0.5856101037372199
217,1678.6599999999999,0.5853524157989461
218,1686.41,0.5829863153551558
219,1694.1899999999998,0.5785511480322285
220,1705.94,0.5729878770368046
221,1713.81,0.5685578690764654
222,1725.69,0.5635457849381136
223,1733.6599999999999,0.5618494907139835
224,1745.67,0.5565969734327035
225,1753.73,0.5546910885711617
226,1765.8899999999999,0.5482304668941954
227,1774.04,0.545051281395242
228,1786.34,0.5407627309489683
229,1794.5800000000002,0.5388914848126031
230,1807.02,0.5339820655970225
231,1815.3600000000001,0.5286686731968663
232,1823.74,0.5261016882911937
233,1836.3799999999999,0.5204026665480316
234,1844.8600000000001,0.5154055353785683
235,1853.3700000000001,0.5122376173299675
236,1866.22,0.5078639374328445
237,1874.8400000000001,0.5064326374940741
238,1883.4899999999998,0.5011094906761665
239,1896.55,0.4951163726250825
240,1905.3,0.493586649543384
241,1905.46072,0.49350552551840354
242,1914.09,0.49013104029898313
243,1922.9299999999998,0.4871466324510552
244,1936.26,0.484994065515209
245,1945.19,0.4836577003136257
246,1954.17,0.4791644121377894
247,1967.72,0.47843092611523014
248,1976.8,0.4771515219908879
249,1985.9299999999998,0.47330753489229266
250,1995.09,0.4705215020091455
251,2004.3,0.46968008615174545
252,2013.55,0.466869835914943
253,2022.85,0.46606061270388754
254,2036.8700000000001,0.46035662272335026
255,2046.27,0.4592399435637889
256,2055.7200000000003,0.45297745142997436
257,2065.2000000000003,0.45214207351160823
258,2074.74,0.4542913040241386
259,2079.52,0.450783535685553
260,2084.31,0.451577838752117
261,2093.93,0.4475925105058425
262,2103.6,0.44629450928531494
263,2113.31,0.44505875368538506
264,2123.06,0.44319329370605276
265,2132.86,0.43993908075246735
266,2142.71,0.43766437482462917
267,2152.6,0.4371671545173885
268,2162.53,0.43417724983074535
269,2172.52,0.4324706935749988
270,2182.54,0.4294568315347004
271,2187.7616199999998,0.42935873780353706
272,2192.6200000000003,0.4297575394724856
273,2202.74,0.4283301799576448
274,2212.91,0.42582881103808634
275,2223.12,0.4243865625947538
276,2233.38,0.4245436747467036
277,2243.69,0.4229871174939359
278,2254.0499999999997,0.42035789083645064
279,2264.4500000000003,0.4205260046551912
280,2274.9,0.4201094390692142
281,2285.4,0.41945907407851973
282,2295.95,0.41458866968310765
283,2306.55,0.4156814058829778
284,2317.2000000000003,0.4132180326781304
285,2322.54,0.40621878625429153
286,2333.26,0.41083768388283953
287,2344.03,0.4099194521066699
288,2354.85,0.40976449092578293
289,2365.7200000000003,0.40723808034017794
290,2376.64,0.4060541103498557
291,2387.61,0.40289867095481574
292,2393.11,0.40507787643588056
293,2404.16,0.4034466179932924
294,2415.2599999999998,0.4031114701459868
295,2426.4,0.4038455827749069
296,2437.6,0.4013815461181661
297,2443.2200000000003,0.4034603230279086
298,2454.5,0.4024123673236196
299,2465.83,0.40082464221461306
300,2477.21,0.39886553770088884
301,2482.92,0.39778872568213963
302,2494.38,0.3813420021208673
303,2505.8999999999996,0.39533607927393394
304,2511.6699999999996,0.3914449079695237
305,2511.88643,0.3915521342295793
306,2517.46,0.3946132261463198
307,2523.2700000000004,0.39480669072737445
308,2534.9100000000003,0.39563876580886814
309,2546.61,0.39387657864851383
310,2552.4799999999996,0.3972375309877208
311,2564.27,0.3958877654645944
312,2576.1,0.3973633817802361
313,2582.04,0.3974694698372869
314,2593.96,0.3963502477901567
315,2605.9300000000003,0.39568211554148647
316,2617.9599999999996,0.3941004210509684
317,2624.0,0.39632615870493926
318,2636.1099999999997,0.39835101789195715
319,2642.1800000000003,0.401050689425004
320,2654.38,0.4041433002492499
321,2666.6299999999997,0.3966232508719559
322,2672.78,0.39863554608253876
323,2685.12,0.40020064834247276
324,2697.51,0.3954401904008667
325,2703.7299999999996,0.3972737813292938
326,2716.21,0.39486547502491576
327,2722.4700000000003,0.39539717779211075
328,2735.0400000000004,0.3956819231249608
329,2747.6600000000003,0.3921475082562709
330,2753.9900000000002,0.39379880674130996
331,2766.71,0.3946885714695402
332,2773.08,0.39791538179334723
333,2785.89,0.39452939815880544
334,2792.31,0.3880282482810726
335,2805.2,0.3908988883240668
336,2818.14,0.396082668165521
337,2824.64,0.3983530419653242
338,2837.6800000000003,0.39390900140369844
339,2844.2200000000003,0.3936950870422695
340,2857.3500000000004,0.39109969811787193
341,2863.9300000000003,0.3959347955952111
342,2877.15,0.39786245830804146
343,2883.79,0.3983615235435327
344,2884.0315,0.39838036298121404
345,2897.1000000000004,0.40000334410252303
346,2910.47,0.40668755575608456
347,2930.64,0.40548800549821884
348,2950.96,0.40353940166877744
349,2971.41,0.40490476474397064
350,2992.0099999999998,0.40480717424758816
351,3012.75,0.4028140404177351
352,3026.66,0.40712189921362446
353,3047.64,0.4086806196692505
354,3068.7599999999998,0.41235789679140594
355,3090.03,0.4107406203419857
356,3111.4500000000003,0.41721919032099
357,3133.0200000000004,0.4138552067284186
358,3147.4800000000005,0.41716220242853075
359,3169.2999999999997,0.41866956288333346
360,3191.27,0.4138588697665605
361,3213.39,0.41536122307821194
362,3228.22,0.4128724399684376
363,3250.6000000000004,0.4229351270893579
364,3273.13,0.4266810606387027
365,3288.2400000000002,0.42809029086198724
366,3311.0299999999997,0.4243814582206011
367,3311.31121,0.4247408242681915
368,3318.66,0.4343700277804301
369,3326.31,0.43564973116747663
370,3333.9800000000005,0.4380211617529206
371,3341.67,0.42819501953676226
372,3349.37,0.44232759091980256
373,3357.0899999999997,0.4301689895012404
374,3364.83,0.4205633152810757
375,3372.5899999999997,0.4177200682593086
376,3380.36,0.43131483483674016
377,3388.1499999999996,0.4402186286125693
378,3395.96,0.4366006495867958
379,3403.79,0.43737419775942
380,3411.6400000000003,0.4305386731304415
381,3419.4999999999995,0.43344456210066196
382,3427.3900000000003,0.44086499186847855
383,3435.2899999999995,0.442237735235494
384,3443.21,0.42757840580090684
385,3451.14,0.43877388996551847
386,3459.1,0.4350874149277264
387,3467.0800000000004,0.43475386708833175
388,3475.07,0.43665263284813594
389,3483.08,0.43407222580633764
390,3491.11,0.4422404459629369
391,3499.16,0.4367653933179335
392,3507.22,0.442153354272129
393,3515.31,0.4310184560239207
394,3523.4100000000003,0.4420596713749111
395,3531.5299999999997,0.4394000139242991
396,3539.6699999999996,0.4490905836720846
397,3547.83,0.4542316806182676
398,3556.01,0.44901250476284804
399,3564.21,0.449897456105826
400,3572.42,0.4382334210480028
401,3580.66,0.4332479267877758
402,3586.66,0.36328418630702797
403,3589.3399999999997,0.470239030892294
404,3592.0200000000004,0.45572567547755993
405,3594.71,0.5211733336620247
406,3597.39,0.38270777824729063
407,3600.07,0.42338412283255666
408,3602.75,0.4080286674178226
409,3605.43,0.44606631200308866
410,3608.11,0.43427585658835455
411,3610.79,0.4357777011736206
412,3613.47,0.41219694575888655
413,3616.15,0.4254750903441525
414,3618.83,0.37170263492941846
415,3621.5199999999995,0.4808027931138832
416,3624.2000000000003,0.5024884376991492
417,3626.88,0.5304902822844152
418,3629.56,0.3858347268696811
419,3632.24,0.40447447145494714
420,3634.9199999999996,0.46025371604021315
421,3637.6,0.43079196062547914
422,3640.28,0.4691665052107451
423,3642.96,0.36489234979601104
424,3645.64,0.33573929438127703
425,3648.3300000000004,0.43307735256574176
426,3651.01,0.5161424971510077
427,3653.69,0.4952568417362737
428,3656.37,0.4749886863215397
429,3659.0499999999997,0.46665133090680566
430,3661.7300000000005,0.41877417549207163
431,3664.4100000000003,0.3984499200773376
432,3667.09,0.4904843646626036
433,3669.77,0.5093348092478696
434,3672.45,0.47569025383313557
435,3675.14,0.4072341120176003
436,3677.82,0.39290315660286623
437,3680.5,0.41479930118813224
438,3683.18,0.3943347457733982
439,3685.86,0.44882259035866423
440,3688.54,0.4332705349439302
441,3691.2200000000003,0.46833257952919616
442,3693.9,0.43082812411446214
443,3696.58,0.48683206869972817
444,3699.2599999999998,0.45857731328499407
445,3701.95,0.5351695714694589
446,3704.6299999999997,0.47881481605472487
447,3707.31,0.4673613606399908
448,3709.9900000000002,0.4578168052252568
449,3712.67,0.4457036498105228
450,3715.35,0.4364396943957888
451,3718.0299999999997,0.47860403898105475
452,3720.71,0.5360676835663206
453,3723.39,0.6347554281515866
454,3726.07,0.6640347727368526
455,3728.7599999999998,0.6305835309213175
456,3731.4399999999996,0.5131299755065833
457,3734.1200000000003,0.46483192009184926
458,3736.8,0.4387107646771153
459,3739.48,0.44563050926238135
460,3742.16,0.3852893538476473
461,3744.8399999999997,0.4522833984329133
462,3747.5199999999995,0.5022377430181793
463,3750.2000000000003,0.4864892876034452
464,3752.88,0.4276920321887112
465,3755.5699999999997,0.445010190373176
466,3758.25,0.4648430349584419
467,3760.9300000000003,0.5558527795437078
468,3763.61,0.5239347241289739
469,3766.29,0.45743186871423985
470,3768.97,0.4740224132995059
471,3771.6499999999996,0.46673765788477184
472,3774.3300000000004,0.5065720024700378
473,3777.01,0.5720082470553037
474,3779.69,0.5844441916405697
475,3782.38,0.5900416498250345
476,3785.06,0.5145136944103004
477,3787.74,0.5018812389955665
478,3790.42,0.5272162835808324
479,3793.1,0.5092921281660984
480,3795.78,0.5174751727513643
481,3798.46,0.5078464173366304
482,3801.14,0.48660976192189637
483,3801.8939600000003,0.47546635819633365
484,3803.82,0.4470437355617226
485,3806.5,0.5706225054954869
486,3809.19,0.5846889171081086
487,3811.87,0.5280724870418727
488,3814.5499999999997,0.548584156975637
489,3817.2299999999996,0.5235769269094013
490,3819.9100000000003,0.5409443968431655
491,3822.59,0.5336786667769298
492,3825.27,0.5393261367106941
493,3827.95,0.5057147066444584
494,3830.6299999999997,0.42730007657822267
495,3833.31,0.43216144651198696
496,3836.0,0.43560315812460854
497,3838.68,0.4516934280583728
498,3841.3599999999997,0.4730330979921371
499,3844.0400000000004,0.5536189679259013
500,3846.7200000000003,0.5451602378596656
501,3849.4,0.5233251077934299
502,3852.08,0.6221859777271941
503,3854.7599999999998,0.6145273476609584
504,3857.4399999999996,0.6175361175947227
505,3860.1200000000003,0.6016521875284869
506,3862.81,0.5869165991411085
507,3865.49,0.5961712690748728
508,3868.17,0.6018328390086372
509,3870.85,0.5805591089424014
510,3873.53,0.5613627788761656
511,3876.21,0.5376327488099298
512,3878.89,0.5444733187436942
513,3881.5699999999997,0.5182026886774584
514,3884.25,0.4786960586112228
515,3886.9300000000003,0.458447028544987
516,3889.62,0.47266824015760855
517,3892.3,0.4485172100913728
518,3894.98,0.46998318002513717
519,3897.66,0.5202231499589014
520,3900.34,0.5285936198926657
521,3903.02,0.5330198898264299
522,3905.7,0.5763822597601942
523,3908.38,0.5442727296939585
524,3911.06,0.5711426996277228
525,3913.74,0.603458769561487
526,3916.4300000000003,0.5898179811741087
527,3919.11,0.5759693511078728
528,3921.79,0.5695879210416372
529,3924.47,0.5325377909754014
530,3927.1499999999996,0.5274897609091658
531,3929.8300000000004,0.50027873084293
532,3932.51,0.4326299007766942
533,3935.19,0.4867718707104585
534,3937.87,0.4379873406442228
535,3940.5499999999997,0.5066007105779871
536,3943.2400000000002,0.5294680221906086
537,3945.92,0.4973725921243729
538,3948.6,0.5154979620581372
539,3951.2799999999997,0.5937539319919014
540,3953.96,0.5714837019256658
541,3956.6400000000003,0.51882537185943
542,3959.32,0.5170758417931942
543,3962.0,0.4897244117269585
544,3964.68,0.44120668166072285
545,3967.3599999999997,0.39600135159448707
546,3970.0400000000004,0.43360892152825137
547,3972.73,0.431029233140873
548,3975.41,0.5185348030746373
549,3978.09,0.5456854730084015
550,3980.77,0.5985081429421658
551,3983.4500000000003,0.61838821287593
552,3986.13,0.6381418828096943
553,3988.81,0.6146785527434586
554,3991.49,0.6389098226772228
555,3994.17,0.6520806926109871
556,3996.85,0.6352143625447514
557,3999.54,0.625573674157373
558,4002.2200000000003,0.7122090440911373
559,4004.9,0.6615580140249016
560,4007.58,0.6683424839586658
561,4010.2599999999998,0.6400086538924301
562,4012.94,0.6755952238261943
563,4015.62,0.6171117937599586
564,4018.3,0.6620743636937229
565,4020.98,0.6658270336274872
566,4023.66,0.6632073035612513
567,4026.3500000000004,0.664851415173873
568,4029.03,0.6521397851076374
569,4031.71,0.6375193550414016
570,4034.39,0.6265341249751659
571,4037.0699999999997,0.6820515949089301
572,4039.7499999999995,0.6576619648426945
573,4042.4300000000003,0.6532316347764586
574,4045.11,0.7042859047102229
575,4047.79,0.6657197746439872
576,4050.47,0.6511693445777514
577,4053.1600000000003,0.686654456190373
578,4055.84,0.6923300261241374
579,4058.52,0.5785587960579016
580,4061.2,0.6664716659916659
581,4063.88,0.6762597359254302
582,4066.5600000000004,0.6322616058591944
583,4069.2400000000002,0.6146514757929586
584,4071.92,0.604452245726723
585,4074.6,0.6104225156604872
586,4077.2799999999997,0.6471178855942515
587,4079.97,0.6128719972068731
588,4082.65,0.6672385671406373
589,4085.33,0.6484633370744016
