,lambda (Angstroms),Total Flux (erg/s/cm^2/Angstrom)
0,100.00999999999999,1.4247278731946171
1,102.11,1.4202534002972909
2,104.0,1.4162263738654801
3,104.712855,1.4147074928872414
4,105.94,1.4009729545069944
5,107.91,1.3789241833157349
6,109.91000000000001,1.3565396545340396
7,114.03999999999999,1.3103155854537833
8,118.05,1.2654345892828585
9,120.22644299999999,1.2410753442481866
10,121.07,1.233159826740521
11,125.03999999999999,1.1959072089494533
12,127.07,1.1768586429070942
13,127.95,1.1686011408544903
14,130.93,1.140638225662877
15,132.14,1.1292841826060218
16,133.98,1.1120184982978136
17,137.1,1.0827419401008995
18,138.038426,1.07393620420076
19,139.97,1.0609807973521215
20,142.91,1.041262007224889
21,146.91,1.0144337424697092
22,151.03,0.9868003402877237
23,154.9,0.9608437892984996
24,158.489319,0.9367698285945417
25,158.86999999999998,0.9348395185956426
26,161.82999999999998,0.9198303532964265
27,165.98000000000002,0.898787124085407
28,169.84,0.8792144492076925
29,173.0,0.863191236016921
30,177.03,0.8427566318142349
31,179.91,0.8281532957592407
32,181.970086,0.8177074267393674
33,181.99,0.8176303925772308
34,185.79999999999998,0.8028920821065751
35,191.01,0.7827381136018781
36,194.11,0.7707463812893575
37,198.17999999999998,0.7550024540007229
38,201.85999999999999,0.7407673296855568
39,205.14000000000001,0.7280793956009737
40,208.929613,0.7134200737743631
41,209.92000000000002,0.7105398497225406
42,215.79999999999998,0.6934405720161003
43,219.81,0.6817792228451945
44,222.87,0.6728804539070471
45,227.01,0.6608411519795534
46,230.17,0.6516598442648
47,233.91,0.6408014917637308
48,239.88329199999998,0.6234425264829961
49,239.91,0.6233827290125787
50,246.06,0.6096006278164504
51,251.8,0.5967418305247306
52,257.07,0.5849219227217233
53,260.05,0.5782542809479733
54,264.27,0.5688014286252805
55,269.18,0.557799752888095
56,274.19,0.5465736905837371
57,275.42287,0.5438111235368356
58,279.28999999999996,0.5371613135279218
59,283.82,0.5293724022840052
60,289.77,0.5191374853303621
61,295.83000000000004,0.5087186145529372
62,301.33,0.49925771248385553
63,308.35,0.4871878032107001
64,316.227766,0.47364310510788554
65,317.72,0.4717270531489489
66,328.13,0.4583572357287903
67,338.1,0.4455518513194741
68,348.38,0.4323477940207007
69,357.31,0.4208781741824667
70,363.078055,0.41347027784909446
71,365.64,0.4110064592427381
72,375.02,0.4019837510012504
73,384.64,0.3927268650060358
74,395.41,0.38236990265754717
75,404.62,0.37351112840828254
76,414.04999999999995,0.3644392646514351
77,416.86938299999997,0.3617269183932904
78,421.74,0.35814871025271694
79,429.59,0.35238108465988704
80,440.6,0.3442934792733829
81,450.87,0.3367481125189419
82,460.31,0.3298119722910037
83,469.95000000000005,0.3227294854976432
84,478.630092,0.31635249028347034
85,479.79,0.31569712581374515
86,489.83,0.3100228992780584
87,500.09,0.30422642767824304
88,505.88,0.3009613658359495
89,511.73999999999995,0.29769086581870613
90,520.0500000000001,0.2929955095782123
91,529.72,0.28753165599583275
92,539.5699999999999,0.2819604366064389
93,549.5408739999999,0.2763422678280712
94,549.6,0.27631687615505124
95,559.8199999999999,0.2719272118003175
96,570.23,0.2674499384807697
97,579.49,0.26345290261141213
98,590.27,0.25882252502354225
99,599.86,0.2546875617310866
100,609.61,0.2504957992577349
101,619.51,0.24625520676479323
102,629.58,0.24192298152964942
103,630.957344,0.24132993448227796
104,639.81,0.23830913658479758
105,650.1999999999999,0.23477501072507223
106,657.73,0.23220864857495357
107,665.35,0.229618835875232
108,674.6,0.2264652013438114
109,685.57,0.22271135343108883
110,695.1,0.21950322321201446
111,704.77,0.21618395174911323
112,716.22,0.21232394217184122
113,724.43596,0.20952564006662633
114,726.19,0.2090826947266723
115,734.6,0.2069610120323681
116,744.82,0.20440007579648356
117,755.1800000000001,0.20179149238887462
118,765.68,0.1991436784095412
119,774.55,0.19692767473671385
120,785.32,0.194226895604769
121,794.42,0.19193817444268005
122,805.4699999999999,0.1891554829672863
123,814.8,0.18680558171593575
124,824.23,0.1844559298562106
125,831.763771,0.18250072272188073
126,835.7,0.18173130677442403
127,845.37,0.17999917757178804
128,855.16,0.1781655431236177
129,865.07,0.17632706962991312
130,875.08,0.17447004446493
131,885.22,0.1725964351172848
132,895.47,0.17069067456123316
133,905.8299999999999,0.1687407393967751
134,914.22,0.16756343334650456
135,924.8000000000001,0.17205929606523368
136,935.51,0.1790321843013007
137,944.17,0.19358779614857807
138,954.992586,0.2038648281825744
139,955.1,0.20396726749207378
140,963.9399999999999,0.21241382573086448
141,975.1,0.16772651513639664
142,984.12,0.21195745191398624
143,995.52,0.2093067993712503
144,1004.73,0.22185217960646098
145,1014.03,0.2123870641110711
146,1025.77,0.17113774880828864
147,1035.26,0.19394520677051982
148,1044.84,0.2282857090021505
149,1054.51,0.22668967550318062
150,1064.26,0.212844211354788
151,1074.1100000000001,0.221277776394617
152,1084.05,0.2074703857038455
153,1094.0800000000002,0.21975110928247338
154,1096.4782,0.21865162649325798
155,1104.2,0.2153711077293703
156,1114.42,0.21285500251050343
157,1124.73,0.20501686763706733
158,1135.14,0.21505054425855422
159,1145.64,0.20678060122547182
160,1156.24,0.2084474096873125
161,1164.26,0.20981347158013913
162,1175.03,0.1885290595833489
163,1185.9,0.2023841390814817
164,1194.1200000000001,0.18107962396415433
165,1205.17,0.1648214641531486
166,1216.32,0.1390024358370659
167,1224.75,0.1675797348590769
168,1236.09,0.18971353838334798
169,1244.6599999999999,0.19660012349825118
170,1256.17,0.19366033656389134
171,1258.92541,0.19046275165626464
172,1264.8799999999999,0.18381226985770915
173,1273.65,0.1977697364928217
174,1285.4299999999998,0.19950302139152482
175,1294.34,0.18669298934122297
176,1306.32,0.1840676089750483
177,1315.37,0.19539471823933208
178,1324.49,0.19142443816090865
179,1333.67,0.1843618715030219
180,1346.01,0.19164254166006742
181,1355.34,0.1887160535535224
182,1364.74,0.18158549610427016
183,1374.1999999999998,0.18275568207555465
184,1383.72,0.1829411014673758
185,1396.53,0.1731815817519587
186,1406.21,0.1745794669318777
187,1415.95,0.17506744553233333
188,1425.77,0.17419548202683796
189,1435.65,0.17273596194187923
190,1442.28,0.17518092991118328
191,1445.43977,0.1754147744033448
192,1445.6,0.1754318717422402
193,1455.62,0.17306856865076112
194,1465.71,0.16822818508858306
195,1475.87,0.16670532105570607
196,1486.1,0.16611923655213012
197,1496.4099999999999,0.16590710579632678
198,1503.31,0.16259207654171545
199,1513.73,0.15615189218909947
200,1517.22,0.1590142944356801
201,1524.23,0.15690492158425612
202,1534.79,0.14946931629024224
203,1545.43,0.15291037474400096
204,1556.14,0.14849297272706072
205,1563.32,0.14859301158965357
206,1574.16,0.15124188441284386
207,1585.0700000000002,0.15230738676533517
208,1596.06,0.15305541286559915
209,1603.43,0.14988574187915193
210,1614.54,0.14887529860107485
211,1625.73,0.14534306907077035
212,1633.24,0.14746190714292523
213,1644.56,0.1469485024527513
214,1655.96,0.1415911815103499
215,1659.58691,0.143779453406161
216,1663.6000000000001,0.14629159840992018
217,1671.28,0.14005547713467723
218,1675.1299999999999,0.14550417215945782
219,1686.74,0.14664031120821167
220,1694.53,0.14276955721939102
221,1706.28,0.1399801455417733
222,1714.15,0.13762613685216885
223,1726.03,0.13636062378577746
224,1734.0,0.13901056172019335
225,1746.02,0.13658144792743032
226,1754.0800000000002,0.13928011182346445
227,1766.24,0.13344469730432978
228,1774.39,0.1352401371619822
229,1786.69,0.1349104519164759
230,1794.9399999999998,0.13728320839814856
231,1803.22,0.1361759968670273
232,1815.72,0.13241001486956158
233,1824.1,0.13228235996246057
234,1836.75,0.12971199790102528
235,1845.22,0.12488068895554254
236,1853.74,0.12486801332206991
237,1866.59,0.12553144450867518
238,1875.21,0.1279923954992228
239,1883.86,0.12371817847697658
240,1896.92,0.1209876135740244
241,1905.46072,0.12281545465743238
242,1905.6799999999998,0.12286548511678272
243,1914.47,0.12105326439998826
244,1923.31,0.11955422414555561
245,1936.64,0.11947075341121316
246,1945.5800000000002,0.12221714408150414
247,1954.56,0.11877502312168456
248,1968.1100000000001,0.12194807842173404
249,1977.19,0.12251718838663805
250,1981.75,0.1196158025540348
251,1995.49,0.11762090761105917
252,2004.7,0.11784171477810387
253,2013.9499999999998,0.11647187031503806
254,2023.25,0.11727198631433403
255,2037.27,0.1152781499605845
256,2046.6799999999998,0.11621314897707644
257,2056.12,0.11341209427098546
258,2065.61,0.1134667800272563
259,2075.15,0.11614231624588894
260,2079.9300000000003,0.1147792964476776
261,2084.73,0.11577063083441101
262,2094.35,0.11263544379282256
263,2104.02,0.11268847721359587
264,2113.73,0.11260080900425865
265,2123.48,0.11265664916481088
266,2133.29,0.10889261188019728
267,2143.13,0.11003689087300075
268,2153.0299999999997,0.11064241242063841
269,2162.96,0.10842710024569313
270,2172.95,0.10748816062558203
271,2182.98,0.10723813937536036
272,2187.7616199999998,0.10798310205787727
273,2193.05,0.10887336939561759
274,2203.1800000000003,0.10706048940764656
275,2213.34,0.10421964210480496
276,2223.56,0.10303065017222215
277,2233.82,0.10612270848647853
278,2244.14,0.10367807217099376
279,2254.4900000000002,0.10130909854063835
280,2264.9,0.10129755028054177
281,2275.35,0.1023296822672844
282,2285.86,0.10338650962428583
283,2296.4100000000003,0.10033147722812646
284,2307.0099999999998,0.10063171264051612
285,2317.66,0.09874626586145478
286,2323.0,0.09073237381448881
287,2333.72,0.09516428996739609
288,2344.49,0.09226673392885235
289,2355.31,0.09604139569885764
290,2366.19,0.09157810283912172
291,2377.11,0.09295161022622503
292,2382.59,0.08874936404319628
293,2393.5899999999997,0.09082155192397799
294,2404.63,0.08924836005159889
295,2415.73,0.08956012354947862
296,2426.8799999999997,0.09230011485590736
297,2432.48,0.09049374941339623
298,2443.71,0.09235380121350338
299,2454.99,0.09151791082215954
300,2466.3199999999997,0.0904522682393647
301,2477.7,0.08837622346511886
302,2483.41,0.08819509120141555
303,2494.8799999999997,0.08596371448255795
304,2506.39,0.09022494801053953
305,2511.88643,0.08504503884074258
306,2512.17,0.08477969574788069
307,2517.96,0.08453041878742416
308,2523.77,0.083034140749384
309,2535.42,0.08367753805692828
310,2547.12,0.0832840476705135
311,2552.99,0.08648334639972252
312,2564.77,0.08465003170297328
313,2576.6099999999997,0.08667656377347321
314,2582.55,0.08596455373113955
315,2594.47,0.08488911149130503
316,2606.4500000000003,0.08297017601871964
317,2612.4599999999996,0.08198060720484335
318,2624.52,0.0839180574219235
319,2636.6299999999997,0.08595891994504463
320,2642.7099999999996,0.09034144235962568
321,2654.91,0.09218476503362052
322,2667.1600000000003,0.08669005001365634
323,2673.31,0.08844519365669473
324,2685.65,0.08898818878760428
325,2698.04,0.0850923162245548
326,2704.26,0.08680865109605054
327,2716.75,0.08303571314508298
328,2723.01,0.08210635586141149
329,2735.5800000000004,0.08413997360010947
330,2741.8799999999997,0.07756390416127076
331,2754.54,0.07897894205084247
332,2767.25,0.08099678224645515
333,2773.63,0.08260827849728196
334,2786.44,0.07839393330497657
335,2792.8599999999997,0.06931474740063616
336,2805.75,0.0713178078979963
337,2812.2200000000003,0.08074233429969685
338,2825.2,0.08348068494793072
339,2838.2400000000002,0.08164994236341375
340,2844.78,0.07916014999357164
341,2857.9100000000003,0.07550291755992838
342,2864.5,0.08143842749612726
343,2877.72,0.08260643521335777
344,2884.0315,0.0817802391820169
345,2884.36,0.08173912440660466
346,2897.67,0.0821741168193182
347,2911.05,0.08681258255050583
348,2931.22,0.0838964901736788
349,2951.5400000000004,0.08240120633643908
350,2972.0,0.0827113791361475
351,2992.6000000000004,0.08241814857280408
352,3013.3500000000004,0.08236317654904796
353,3027.2599999999998,0.08256929312011074
354,3048.24,0.08263512485705515
355,3069.3700000000003,0.08257629513358689
356,3090.64,0.08214404204706677
357,3112.07,0.0825752694027731
358,3126.43,0.08104982159259778
359,3148.1,0.0804888946116438
360,3169.9300000000003,0.0811444180729163
361,3191.8999999999996,0.07793975817113694
362,3206.6299999999997,0.07954384075861029
363,3228.86,0.07639144032544892
364,3251.2400000000002,0.08072313843187484
365,3266.25,0.08336333429324452
366,3288.89,0.08236557186828847
367,3311.31121,0.08113965223373522
368,3311.6800000000003,0.0811209734918309
369,3319.32,0.07948338150029585
370,3326.9700000000003,0.08010417169201796
371,3334.64,0.08281795625025437
372,3342.33,0.07897459517500509
373,3350.0299999999997,0.08112071628301297
374,3357.76,0.0804775039407923
375,3365.5,0.07332330378182877
376,3373.25,0.07308943580612241
377,3381.0299999999997,0.07748308438018751
378,3388.82,0.07983118513750975
379,3396.6400000000003,0.07650651244460346
380,3404.47,0.08071636193495432
381,3412.31,0.07684905360856235
382,3420.18,0.07893032183194182
383,3428.0699999999997,0.07955410442183561
384,3435.97,0.07954649919498653
385,3443.89,0.07410312833465177
386,3451.8300000000004,0.08030650184083131
387,3459.78,0.07839319753026802
388,3467.7599999999998,0.07776358976947617
389,3475.7500000000005,0.07850446419194149
390,3483.77,0.07824377516417827
391,3491.7999999999997,0.07911806831967218
392,3499.85,0.07400474584168042
393,3507.92,0.07909939773020294
394,3516.0000000000005,0.07514866180198264
395,3524.1099999999997,0.07621562242353377
396,3532.23,0.07856206522834208
397,3540.37,0.0798367123996647
398,3548.54,0.08195111612075875
399,3556.72,0.07930192202510998
400,3564.91,0.07993945011271836
401,3573.13,0.07179509475009818
402,3581.37,0.07372444375399233
403,3589.62,0.06745136494114361
404,3597.9,0.07572050267806636
405,3606.19,0.07485691259824627
406,3614.51,0.07424109906819763
407,3619.71,0.061888864361917234
408,3622.45,0.06133759257437718
409,3625.1899999999996,0.07237099078683712
410,3627.94,0.08112111118255422
411,3630.68,0.07053641939501416
412,3633.4300000000003,0.06212023979073125
413,3636.17,0.0706218380031912
414,3638.9100000000003,0.06953103621565114
415,3641.66,0.07741137661136824
416,3644.3999999999996,0.07366142482382819
417,3647.15,0.08071904521954529
418,3649.89,0.07583755343200523
419,3652.63,0.07296113164446517
420,3655.3799999999997,0.07966978204018227
421,3658.1200000000003,0.09529412025264221
422,3660.87,0.08122714064835931
423,3663.61,0.07428115886081925
424,3666.35,0.09284249707327921
425,3669.1000000000004,0.0825811974689963
426,3671.84,0.07272017568145624
427,3674.5899999999997,0.07399111607717333
428,3677.33,0.08595318428963328
429,3680.0699999999997,0.08386577250209322
430,3682.82,0.08673977289781032
431,3685.56,0.08194929111027026
432,3688.3100000000004,0.07359892150598735
433,3691.05,0.0841007997184473
434,3693.79,0.09168554793090725
435,3696.54,0.08366163832662435
436,3699.2799999999997,0.0768639165390843
437,3702.03,0.08526717693480139
438,3704.77,0.08374713514726133
439,3707.5099999999998,0.08562599335972128
440,3710.26,0.07964144375543837
441,3713.0,0.07177320196789833
442,3715.7400000000002,0.08112430018035825
443,3718.49,0.08990759057607536
444,3721.23,0.0870654587885353
445,3723.98,0.09062458918425241
446,3726.7200000000003,0.08254225739671234
447,3729.46,0.08535247560917228
448,3732.21,0.07247269600488938
449,3734.9500000000003,0.07928236421734933
450,3737.7,0.06344798461306642
451,3740.44,0.07971033282552636
452,3743.18,0.08036344103798632
453,3745.9300000000003,0.0788643814337034
454,3748.67,0.08399762964616336
455,3751.4199999999996,0.08360655004188046
456,3754.1600000000003,0.08437741825434039
457,3756.9,0.07673932646680034
458,3759.65,0.09042026686251745
459,3762.39,0.08650761507497738
460,3765.1400000000003,0.08975629547069447
461,3767.88,0.08327438368315443
462,3770.62,0.08986890189561436
463,3773.37,0.09222904229133147
464,3776.1099999999997,0.09091776050379141
465,3778.86,0.09900518089950851
466,3781.6,0.09698202911196845
467,3784.34,0.0954138273244284
468,3787.09,0.10253241772014549
469,3789.83,0.09889811593260545
470,3792.58,0.09160214632832253
471,3795.3199999999997,0.08986800454078248
472,3798.06,0.08440845275324242
473,3800.81,0.08577838314895952
474,3801.8939600000003,0.08820933680836823
475,3803.55,0.0919279695086952
476,3806.3,0.0914322715909708
477,3809.0400000000004,0.09709251312021992
478,3811.78,0.09897381464946904
479,3814.5299999999997,0.10031937673174462
480,3817.27,0.10216322826099375
481,3820.02,0.09909290034326934
482,3822.76,0.09155362187251846
483,3825.5,0.09158292340176759
484,3828.2500000000005,0.08463197548404316
485,3830.9900000000002,0.0858013570132923
486,3833.74,0.07909666909556788
487,3836.48,0.08264795062481702
488,3839.22,0.07942818215406613
489,3841.9700000000003,0.08640475423634172
490,3844.71,0.09644342576559085
491,3847.4599999999996,0.09504310784786643
492,3850.2,0.09567189937711555
493,3852.94,0.09801889090636469
494,3855.69,0.10039216298864026
495,3858.43,0.1000789045178894
496,3861.1800000000003,0.10270374660016497
497,3863.92,0.1030809781294141
498,3866.6600000000003,0.10771354965866323
499,3869.41,0.1067039417409388
500,3872.1499999999996,0.10164828327018793
501,3874.9,0.09943436535246353
502,3877.64,0.10004176688171265
503,3880.38,0.09820835841096176
504,3883.13,0.09625137049323736
505,3885.8700000000003,0.08941327202248647
506,3888.62,0.08408953410476207
507,3891.3599999999997,0.0873838956340112
508,3894.1,0.09405577716326032
509,3896.85,0.0973497092455359
510,3899.59,0.09827290077478502
511,3902.34,0.10120819285706062
512,3905.0800000000004,0.10230802438630973
513,3907.82,0.10200013591555887
514,3910.5699999999997,0.10581324799783445
515,3913.31,0.10574620952708358
516,3916.06,0.10555557160935916
517,3918.8,0.10625931313860829
518,3921.54,0.10587648466785742
519,3924.2899999999995,0.099680226750133
520,3927.03,0.09160566827938212
521,3929.7799999999997,0.08370734036165772
522,3932.52,0.07821272189090683
523,3935.2599999999998,0.07719823342015597
524,3938.01,0.07976426550243154
525,3940.75,0.08682150703168068
526,3943.5,0.09150713911395625
527,3946.24,0.09754205064320538
528,3948.9800000000005,0.1016875121724545
529,3951.73,0.09903469425473009
530,3954.47,0.10012915578397921
531,3957.2200000000003,0.1002918078662548
532,3959.96,0.09371599939550393
533,3962.7000000000003,0.08884765092475305
534,3965.45,0.08029094300702863
535,3968.1899999999996,0.07413795453627776
536,3970.94,0.07144345661855334
537,3973.68,0.07346815814780247
538,3976.42,0.0808251396770516
539,3979.17,0.09115244175932717
540,3981.9100000000003,0.0999546532885763
541,3984.66,0.1093986953708519
542,3987.3999999999996,0.11423466690010102
543,3990.14,0.11671550842935015
544,3992.89,0.11515991051162573
545,3995.63,0.11587973204087486
546,3998.38,0.11522339412315044
547,4001.1200000000003,0.12026811565239956
548,4003.86,0.11849896718164869
549,4006.6099999999997,0.12017098926392428
550,4009.35,0.1196329607931734
551,4012.1,0.12332826287544899
552,4014.84,0.1241658344046981
553,4017.58,0.12357430593394725
554,4020.33,0.1252677080162228
555,4023.07,0.12462267954547193
556,4025.82,0.12231768162774753
557,4028.56,0.12409195315699666
558,4031.2999999999997,0.12450672468624578
559,4034.05,0.12279592676852136
560,4036.79,0.12149779829777049
561,4039.54,0.12581940038004608
562,4042.2799999999997,0.1232794719092952
563,4045.0199999999995,0.12225434343854433
564,4047.77,0.12220284552081992
565,4050.5099999999998,0.12412701705006905
566,4053.26,0.12574011913234462
567,4056.0,0.11862910066159375
568,4058.7400000000002,0.11900106219084286
569,4061.49,0.12117086427311846
570,4064.2299999999996,0.12190133580236759
571,4066.98,0.12259923788464316
572,4069.72,0.1209211094138923
573,4072.46,0.12386228094314142
574,4075.21,0.124774183025417
575,4077.9500000000003,0.11822519455466612
576,4080.7,0.1169425966369417
577,4083.44,0.11747506816619084
578,4086.18,0.12400779969543996
579,4088.9300000000003,0.12681460177771556
580,4091.67,0.12358957330696468
581,4094.4199999999996,0.11985017538924027
582,4097.16,0.11430203691848939
583,4099.900000000001,0.1086040984477385
