,lambda (Angstroms),Total Flux (erg/s/cm^2/Angstrom)
0,102.03,12.262597201539846
1,103.92999999999999,12.227647706501601
2,104.712855,12.21324750388126
3,106.1,12.079216707699718
4,108.08,11.88790219891728
5,110.09,11.693689008263878
6,113.95,11.32072237281558
7,117.96,10.933262236287664
8,120.22644299999999,10.714271297453326
9,120.97999999999999,10.65322689233155
10,124.94999999999999,10.331622945572986
11,126.97999999999999,10.167175572730228
12,127.86,10.095888098889779
13,131.14000000000001,9.830180036116202
14,132.05,9.756462654713102
15,133.88,9.608217087441355
16,137.0,9.35547111864859
17,138.038426,9.27134983907777
18,139.87,9.165295378226993
19,143.13,8.976539156660914
20,147.14,8.744371311490596
21,150.91,8.526079537645636
22,155.14,8.281153173318742
23,158.489319,8.08722130710733
24,159.12,8.059613595270985
25,162.08,7.930041314501541
26,165.86,7.764576141646915
27,170.10999999999999,7.5785353314388315
28,172.87,7.457719960298944
29,176.9,7.2813107116873725
30,180.19,7.13729409826316
31,181.86,7.064193220902361
32,181.970086,7.059374339631019
33,186.09,6.921791288482824
34,190.87,6.7621672683246645
35,193.97,6.6586462337990815
36,198.03,6.523065468412025
37,202.18,6.3844810137535815
38,204.99,6.290645629491357
39,208.929613,6.159081029281796
40,209.76000000000002,6.138232808319133
41,216.14000000000001,5.978071517445275
42,220.16,5.877151891409396
43,223.22000000000003,5.800328971731337
44,226.85,5.709204045472074
45,230.0,5.63026018139172
46,233.73999999999998,5.536653682851872
47,239.73000000000002,5.386439918654628
48,239.88329199999998,5.382590442691727
49,245.88,5.266539749140545
50,252.19,5.1445287432525
51,256.88,5.053654593839515
52,259.85,4.996321701685236
53,264.08,4.9145376604170234
54,268.99,4.819554201800018
55,273.99,4.722822330617731
56,275.42287,4.695102870781887
57,279.08,4.640809259856821
58,284.27,4.563758671004844
59,290.21999999999997,4.475370912241979
60,296.3,4.385123928954882
61,301.11,4.313701274558348
62,308.13,4.209489517249891
63,316.227766,4.089276989746549
64,318.22,4.067189458802081
65,327.89,3.9599585213110755
66,337.85,3.8495005755633596
67,348.12,3.735598929955023
68,357.05,3.6365619068087276
69,363.078055,3.5697121518664487
70,366.21,3.5437020996776343
71,374.74,3.472849389387199
72,385.24,3.3855958981551275
73,395.12,3.303565485391998
74,405.26,3.2193457158193124
75,413.74,3.1489001419537916
76,416.86938299999997,3.1229016968990693
77,422.41,3.0877473903545836
78,430.26,3.0379444673099774
79,441.3,2.967912931727498
80,450.53999999999996,2.9092855670660764
81,459.97,2.849455929068542
82,469.6,2.7883579011908908
83,478.630092,2.7310741728150902
84,480.54,2.721755715858776
85,489.46999999999997,2.6781624599964746
86,499.72,2.6281572632340335
87,505.51,2.5998972113311525
88,512.54,2.565664937673596
89,519.67,2.53087235958421
90,530.55,2.477778642801249
91,540.42,2.4295928294797573
92,549.5408739999999,2.3851115704166395
93,550.47,2.3816552523739434
94,559.41,2.3484130477672176
95,569.81,2.309733159421585
96,580.4,2.2702930277263684
97,589.83,2.235238105481242
98,599.4200000000001,2.199529213415413
99,610.56,2.158015882024034
100,620.48,2.121234848140507
101,630.57,2.0836966442599847
102,630.957344,2.0822556617035097
103,639.34,2.057536334116493
104,649.73,2.0269267558706217
105,657.25,2.0047562511864103
106,664.86,1.9823500106030523
107,675.66,1.9505007637055147
108,685.06,1.9227338163502505
109,694.59,1.8947983662517747
110,704.26,1.866201920199072
111,715.6999999999999,1.832639963796495
112,724.43596,1.806909891675386
113,725.6500000000001,1.8042571689275522
114,735.75,1.7821851053423285
115,744.27,1.7636428052288524
116,754.62,1.7410576434360734
117,765.12,1.7180641637187613
118,775.77,1.6949457060769162
119,784.75,1.6753535826615389
120,795.67,1.6515618567555344
121,804.88,1.6315053811892062
122,814.2,1.611190750811554
123,825.52,1.5865965507734614
124,831.763771,1.5726646128950206
125,835.08,1.5670988519400617
126,844.75,1.5518312616308825
127,854.5400000000001,1.5358922982072147
128,864.4300000000001,1.519919347854807
129,874.4399999999999,1.5037428743879109
130,884.5699999999999,1.4874084058065267
131,894.8100000000001,1.4708418857035277
132,905.17,1.4539189104860408
133,915.65,1.438167390154066
134,924.1199999999999,1.4486286259897692
135,934.8199999999999,1.4657582416145654
136,945.65,1.5061467855319992
137,954.4,1.5454933667672297
138,954.992586,1.5455056263190838
139,965.45,1.5460917196261148
140,974.38,1.3690126386382906
141,985.6700000000001,1.4769800534252397
142,994.79,1.4763856570972491
143,1003.99,1.5497746406260298
144,1015.62,1.5246393748042604
145,1025.02,1.3669233579749713
146,1034.5,1.4139810210024542
147,1044.07,1.5682242488688056
148,1056.16,1.541840192223475
149,1065.9299999999998,1.4499809197317568
150,1075.8,1.4879991970610031
151,1085.75,1.4014989542470213
152,1095.8,1.473743761254005
153,1096.4782,1.4718088828620774
154,1105.94,1.447561207779891
155,1116.1699999999998,1.4191483043957827
156,1123.91,1.376658868697542
157,1134.31,1.4450786558730329
158,1144.8,1.3973542321683114
159,1155.39,1.406263985263354
160,1166.0900000000001,1.4026039028381379
161,1174.1699999999998,1.2780220482590963
162,1185.03,1.3673959687135029
163,1196.0,1.2397252536476502
164,1204.29,1.1621956403481137
165,1215.43,1.1011864158418603
166,1223.86,1.2069155300619938
167,1235.18,1.317733883795316
168,1243.74,1.342820637855143
169,1255.25,1.3082619575080179
170,1258.92541,1.2798965717132016
171,1263.95,1.2430103793198812
172,1275.65,1.3335150403503424
173,1284.49,1.348109402017802
174,1296.3700000000001,1.2362891070641164
175,1305.3600000000001,1.2231910554114538
176,1314.41,1.3080548184307421
177,1323.52,1.2801507961219818
178,1335.77,1.2172486416453279
179,1345.0200000000002,1.2854343535711197
180,1354.35,1.2618909850595135
181,1363.74,1.204614631219858
182,1376.3500000000001,1.2140577647749105
183,1385.8899999999999,1.208797897615133
184,1395.5,1.1436219975726314
185,1405.17,1.146614412202081
186,1414.92,1.150802846394132
187,1424.7199999999998,1.1528057428128093
188,1434.6000000000001,1.1409656587940873
189,1441.22,1.1570721775993569
190,1445.43977,1.1578239795268068
191,1447.87,1.1589429714944566
192,1454.56,1.141701044833126
193,1464.64,1.1022040436752465
194,1474.79,1.0964113695926596
195,1485.01,1.0973046225853653
196,1495.31,1.0974221779498339
197,1505.67,1.0696701850931245
198,1512.6200000000001,1.0244276161400232
199,1516.11,1.046138694608178
200,1526.62,1.0278144311985242
201,1533.66,0.9778838399136559
202,1544.2900000000002,0.9980412800616463
203,1555.0,0.9744985225813996
204,1565.78,0.9749429921764453
205,1576.6299999999999,0.9884881888467836
206,1583.91,1.0011179046772039
207,1594.8899999999999,1.001001580201657
208,1605.9399999999998,0.9867459828014024
209,1613.3600000000001,0.9834507527824077
210,1624.54,0.9572279342362677
211,1635.8,0.9719513180618906
212,1643.3500000000001,0.9725635668970105
213,1654.74,0.9382680295767483
214,1659.58691,0.9478197658335721
215,1666.2099999999998,0.9621665444223269
216,1673.9,0.9176949677489092
217,1677.76,0.9601326247112769
218,1685.51,0.9723991292341656
219,1693.29,0.9449759243552074
220,1705.02,0.9255875482330763
221,1716.8400000000001,0.9023723439054046
222,1724.77,0.8965951920172119
223,1736.72,0.913413380281537
224,1744.74,0.9021431001878037
225,1756.8300000000002,0.9183394112435099
226,1764.94,0.8854950029442361
227,1773.09,0.8884443154424997
228,1785.38,0.8896250304858934
229,1793.62,0.9088205147786164
230,1806.05,0.8998771526133913
231,1814.3899999999999,0.868063838899958
232,1826.96,0.8698636995261142
233,1835.4,0.8525524878065245
234,1843.87,0.8227049666850881
235,1856.6499999999999,0.8182295614983159
236,1865.22,0.8239207423707231
237,1873.83,0.8446614440406679
238,1886.82,0.8119650730409678
239,1895.53,0.796431476704756
240,1904.28,0.809585801166082
241,1905.46072,0.8075553852541416
242,1913.07,0.7953992194098811
243,1926.33,0.7842428747617776
244,1935.22,0.790028667527868
245,1944.15,0.8010703649858195
246,1953.1299999999999,0.7772517183085972
247,1966.66,0.801509455330555
248,1975.74,0.806673420382985
249,1984.86,0.7859897901272758
250,1994.02,0.7744709645634276
251,2003.23,0.7798359948644054
252,2017.1100000000001,0.7646718229401464
253,2026.4199999999998,0.7749451649707766
254,2035.7800000000002,0.7556717628662329
255,2045.17,0.764368314280585
256,2054.61,0.7426089215597632
257,2064.1,0.7427964847037678
258,2073.63,0.763493352539633
259,2078.41,0.7489994132170137
260,2083.2000000000003,0.7595445250673591
261,2092.81,0.7393221022869465
262,2107.32,0.7358457542594969
263,2117.05,0.7360587455546668
264,2126.82,0.7356176415416977
265,2136.63,0.7111742422205896
266,2146.5,0.7158629499372728
267,2156.4,0.7235848111728517
268,2166.36,0.709895779446222
269,2176.36,0.7045211524114532
270,2186.4,0.6971520300685452
271,2187.7616199999998,0.6984343235291635
272,2196.5,0.7076101410830457
273,2206.63,0.6971130435057193
274,2216.8199999999997,0.679656152063177
275,2227.0499999999997,0.6697535980438236
276,2237.33,0.6861250158034569
277,2242.4900000000002,0.6731985433948681
278,2252.84,0.6571520016450826
279,2263.24,0.6603145316742837
280,2273.68,0.6654929991266739
281,2284.1800000000003,0.6708827727138479
282,2294.7200000000003,0.6513028837242112
283,2305.31,0.6513200665135611
284,2315.96,0.6360938554376948
285,2326.65,0.5816867817850178
286,2337.39,0.6117720799113273
287,2342.77,0.6019383633302794
288,2353.59,0.6192202363029673
289,2364.45,0.5953519466988445
290,2375.36,0.5997412288737083
291,2386.33,0.5795655171833558
292,2397.34,0.5908979429161927
293,2402.87,0.5807782416721043
294,2413.96,0.5839075422513196
295,2425.1,0.5970063146095215
296,2436.3,0.5856433931025071
297,2447.54,0.595766409018682
298,2453.1800000000003,0.5916368856883641
299,2464.51,0.5856584108067148
300,2475.88,0.5743432733482549
301,2487.31,0.5733034420245786
302,2493.05,0.5544155622522338
303,2504.5499999999997,0.5825607714191388
304,2510.33,0.5509136290699832
305,2511.88643,0.5519136374051915
306,2516.1099999999997,0.554871217760838
307,2527.7300000000005,0.5453445488710986
308,2533.55,0.5488065763290778
309,2545.25,0.5437936026621286
310,2557.0,0.5597880885094234
311,2562.89,0.5503417992873438
312,2574.72,0.5615904803574286
313,2586.6099999999997,0.555181232844606
314,2592.57,0.5498974269424678
315,2604.54,0.5395277746524352
316,2616.56,0.5334289818766464
317,2622.59,0.5436316592944495
318,2634.69,0.5539270617414508
319,2646.8599999999997,0.5737538475083935
320,2652.9599999999996,0.583781308246138
321,2665.2,0.550285177333022
322,2677.51,0.5595306297398472
323,2683.68,0.560782373797533
324,2696.06,0.5426990095242997
325,2702.28,0.5511749130962293
326,2714.75,0.5324149559486347
327,2727.28,0.5275711702181328
328,2733.57,0.5384115571100038
329,2746.19,0.5017305785051407
330,2752.52,0.5073982130084066
331,2765.22,0.5152565296263337
332,2777.9900000000002,0.523039429564202
333,2784.39,0.5033619473874094
334,2797.24,0.4605394425480678
335,2803.6899999999996,0.4710244198855189
336,2816.63,0.511021022171816
337,2823.1299999999997,0.5267441590235111
338,2836.16,0.5161756684354472
339,2842.7000000000003,0.5054619528985371
340,2855.82,0.48853416943611205
341,2862.4,0.5182559015105971
342,2875.61,0.5210268251738109
343,2882.24,0.5153606167625399
344,2884.0315,0.5154286440300758
345,2895.54,0.516436348352195
346,2908.9100000000003,0.5397414741225199
347,2929.0699999999997,0.523865394655785
348,2949.3799999999997,0.5154709321573034
349,2969.82,0.518779271031308
350,2990.41,0.5162216268735663
351,3011.13,0.5166239840883109
352,3032.0099999999998,0.5146083660691925
353,3053.02,0.5126011494225602
354,3067.12,0.5132546444383854
355,3088.38,0.5118150227388424
356,3109.7799999999997,0.5122201102096694
357,3131.34,0.5040490224466332
358,3153.0399999999995,0.5013390438539671
359,3167.6,0.5025571975724361
360,3189.5600000000004,0.48330322172474255
361,3211.6699999999996,0.49104006284530255
362,3226.4900000000002,0.4725160193087443
363,3248.85,0.49363575537639337
364,3271.37,0.5046106162101794
365,3286.4700000000003,0.498904991014361
366,3309.2599999999998,0.4935413623910033
367,3311.31121,0.493368978456539
368,3324.53,0.49271774629717646
369,3332.19,0.49329169198669726
370,3339.88,0.4790433043042448
371,3347.57,0.5021806166217924
372,3355.2900000000004,0.4893140955673667
373,3363.03,0.4595852855982925
374,3370.7799999999997,0.4709368311718938
375,3378.55,0.4828653878308462
376,3386.3399999999997,0.48526575557514995
377,3394.14,0.4858070788621293
378,3401.9700000000003,0.5059120687771355
379,3409.81,0.4776021142348173
380,3417.67,0.47385917077785034
381,3425.55,0.48803073840623457
382,3433.4500000000003,0.50575491711997
383,3441.36,0.48092975137638116
384,3449.29,0.47162359671814347
385,3457.24,0.47516765314525705
386,3465.22,0.46186587620039743
387,3473.2000000000003,0.4837382992555378
388,3481.21,0.46634388893870504
389,3489.2400000000002,0.4791388897072235
390,3497.2799999999997,0.46490364601841766
391,3505.34,0.4821197134149629
392,3513.42,0.46827369189685947
393,3521.52,0.48517488146410725
394,3529.64,0.45202468211670627
395,3537.7799999999997,0.47791159385465654
396,3545.93,0.4823079611352824
397,3554.1,0.4855041395012594
398,3562.2999999999997,0.47633718449526335
399,3570.51,0.45183928503194287
400,3578.7400000000002,0.4516810966539736
401,3586.99,0.4307753193613557
402,3593.31,0.457539222332344
403,3596.05,0.45584004102546244
404,3598.7799999999997,0.5007626041759052
405,3601.5200000000004,0.5174135228690235
406,3604.25,0.4827358860194664
407,3606.99,0.43813690471258476
408,3609.7200000000003,0.4265621678630275
409,3612.46,0.42075078655614584
410,3615.2000000000003,0.3942996052492642
411,3617.93,0.38839926839970706
412,3620.67,0.4174533870928254
413,3623.4,0.4215011502432682
414,3626.14,0.5368464689363865
415,3628.8700000000003,0.48082233208682934
416,3631.61,0.4594090507799477
417,3634.35,0.48002756947306613
418,3637.08,0.46925893262350893
419,3639.82,0.4705974513166272
420,3642.55,0.46633811446706996
421,3645.29,0.45639373316018844
422,3648.02,0.43752439631063117
423,3650.76,0.4517577150037495
424,3653.5,0.46528833369686795
425,3656.2299999999996,0.48469009684731074
426,3658.97,0.46559121554042915
427,3661.7,0.4568683786908719
428,3664.44,0.49162159738399025
429,3667.17,0.481824260534433
430,3669.9100000000003,0.4823360792275514
431,3672.65,0.4410227979206698
432,3675.3799999999997,0.4717693610711126
433,3678.12,0.49073467976423096
434,3680.85,0.4691791429146737
435,3683.59,0.47498116160779214
436,3686.32,0.46299332475823485
437,3689.06,0.42273384345135323
438,3691.79,0.463502806601796
439,3694.5299999999997,0.47298322529491443
440,3697.2699999999995,0.4675850439880328
441,3700.0,0.4794648071384756
442,3702.74,0.517483025831594
443,3705.4700000000003,0.47048928898203674
444,3708.21,0.4427113076751551
445,3710.9399999999996,0.4707301708255979
446,3713.68,0.4758502895187162
447,3716.4199999999996,0.4578053082118346
448,3719.15,0.45879487136227737
449,3721.89,0.5230983900553958
450,3724.6200000000003,0.5857721532058385
451,3727.36,0.616846771898957
452,3730.0899999999997,0.5792764350493997
453,3732.83,0.5092596537425181
454,3735.5699999999997,0.4766253724356365
455,3738.3,0.4664767355860792
456,3741.04,0.49436925427919765
457,3743.77,0.4828567174296404
458,3746.51,0.44949923612275877
459,3749.24,0.4461491992732016
460,3751.9799999999996,0.43010871796632
461,3754.72,0.45851793665943835
462,3757.45,0.4695917998098811
463,3760.19,0.4652061185029995
464,3762.92,0.4715271816534422
465,3765.6600000000003,0.48815740034656063
466,3768.39,0.49199876349700344
467,3771.1299999999997,0.4870137821901218
468,3773.86,0.4814113453405645
469,3776.6,0.5148212640336829
470,3779.34,0.5580674827268013
471,3782.07,0.5599252458772441
472,3784.81,0.5674421645703625
473,3787.54,0.5594016277208053
474,3790.2799999999997,0.5393106464139237
475,3793.01,0.47973220956436635
476,3795.75,0.4508795282574848
477,3798.49,0.45434654695060317
478,3801.2200000000003,0.5154082101010459
479,3801.8939600000003,0.5143548693325837
480,3803.96,0.5111764297871298
481,3806.6899999999996,0.5316163554914419
482,3809.43,0.5559595816562093
483,3812.16,0.5692704073605213
484,3814.9,0.5088678335252885
485,3817.64,0.5131663596900559
486,3820.3700000000003,0.5246997853943679
487,3823.11,0.5223443115591352
488,3825.8399999999997,0.4511571372634472
489,3828.58,0.4656021634282146
490,3831.31,0.45211058913252655
491,3834.05,0.43159101529729393
492,3836.79,0.4484745414620612
493,3839.52,0.48877306716637325
494,3842.26,0.5127236933311405
495,3844.99,0.49675241903545264
496,3847.7299999999996,0.54417804520022
497,3850.46,0.532959970904532
498,3853.2,0.5508970970692992
499,3855.9300000000003,0.5248209227736113
500,3858.67,0.5661298489383786
501,3861.4100000000003,0.5658613751031459
502,3864.14,0.5736341008074579
503,3866.8799999999997,0.5618968269722253
504,3869.61,0.5707026526765373
505,3872.35,0.5427228788413045
506,3875.0800000000004,0.5270411045456166
507,3877.82,0.539584830710384
508,3880.56,0.5185484568751513
509,3883.29,0.5156167825794633
510,3886.0299999999997,0.4876578087442307
511,3888.76,0.5086763344485427
512,3891.5,0.50950316061331
513,3894.23,0.541556786317622
514,3896.9700000000003,0.5251906124823893
515,3899.71,0.5363084386471567
516,3902.4399999999996,0.5593522643514688
517,3905.18,0.5787564905162361
518,3907.91,0.583780816220548
519,3910.65,0.6170716423853153
520,3913.38,0.6108751680896274
521,3916.1200000000003,0.5981663942543947
522,3918.86,0.5546676204191621
523,3921.5899999999997,0.547603046123474
524,3924.33,0.5376841722882414
525,3927.06,0.5013170979925534
526,3929.8,0.4876374241573207
527,3932.53,0.4584201498616327
528,3935.27,0.4865451760264001
529,3938.0,0.5104361017307121
530,3940.74,0.5326302278954795
531,3943.4799999999996,0.5424254540602468
532,3946.21,0.5655106797645588
533,3948.95,0.5635270059293261
534,3951.6800000000003,0.5607814316336381
535,3954.42,0.5382364577984055
536,3957.1499999999996,0.5425787835027174
537,3959.89,0.4969308096674848
538,3962.6299999999997,0.4603960358322522
539,3965.36,0.44161436153656414
540,3968.1,0.4284306877013315
541,3970.8300000000004,0.4452749134056434
542,3973.57,0.46503073957041086
543,3976.2999999999997,0.4999358652747228
544,3979.04,0.5372771914394902
545,3981.7799999999997,0.5672824176042576
546,3984.51,0.5814818433085694
547,3987.25,0.5987575694733368
548,3989.98,0.6028106951776488
549,3992.7200000000003,0.6167387213424163
550,3995.45,0.6200480470467282
551,3998.1899999999996,0.6120508732114955
552,4000.93,0.6155845993762629
553,4003.66,0.6396618250805748
554,4006.4,0.6301561512453422
555,4009.13,0.6119535769496542
556,4011.8700000000003,0.6214800031144215
557,4014.6,0.6288808288187335
558,4017.3399999999997,0.6297487549835009
559,4020.07,0.6454155806878129
560,4022.81,0.6291112068525803
561,4025.55,0.6171877330173475
562,4028.28,0.6261591587216595
563,4031.02,0.6252706848864269
564,4033.75,0.6249636105907389
565,4036.49,0.6347586367555063
566,4039.2200000000003,0.6416429624598182
567,4041.96,0.6338730886245856
568,4044.7,0.6167422147893529
569,4047.4300000000003,0.622799840493665
570,4050.17,0.6165799666584323
571,4052.8999999999996,0.5985838923627442
572,4055.64,0.6017870185275116
573,4058.37,0.6034223442318236
574,4061.11,0.609167170396591
575,4063.85,0.6149946965613583
576,4066.5800000000004,0.6027021222656703
577,4069.32,0.6098728484304377
578,4072.0499999999997,0.6119422741347497
579,4074.79,0.613946800299517
580,4077.52,0.6010549260038289
581,4080.26,0.5961989521685963
582,4083.0,0.5985547783333637
583,4085.73,0.6103572040376757
584,4088.4700000000003,0.598826430202443
585,4091.2,0.562211455906755
586,4093.9399999999996,0.5508047820715224
587,4096.67,0.5509522077758344
588,4099.41,0.5356192339406016
589,4102.14,0.5488886596449136
590,4104.88,0.5699667858096811
591,4107.62,0.5847008119744483
592,4110.349999999999,0.5818106376787604
593,4113.09,0.5909445638435278
594,4115.82,0.5877649895478397
595,4118.56,0.6043381157126071
596,4121.29,0.614322041416919
597,4124.03,0.6129170675816864
598,4126.77,0.5943808937464538
