,lambda (Angstroms),Total Flux (erg/s/cm^2/Angstrom)
0,102.05000000000001,7.08100009979593
1,103.95,7.0608180054960235
2,104.712855,7.0527148415250975
3,105.88,6.987592088027888
4,108.10000000000001,6.863723577466117
5,110.11,6.751572358460349
6,113.98,6.535639414413853
7,117.97999999999999,6.312452908976138
8,120.22644299999999,6.187108968870736
9,121.01,6.1504544754588855
10,124.97,5.965207206525642
11,127.0,5.870244591429717
12,127.88000000000001,5.829078531779906
13,130.86,5.689675284186926
14,132.07,5.633071952607502
15,133.91,5.5469974644003885
16,137.03,5.401045072415705
17,138.038426,5.353871294487523
18,139.9,5.291625281842497
19,143.16,5.1826196933430415
20,147.17,5.048536165165328
21,150.94,4.9224775564000485
22,155.17,4.781037795050391
23,158.489319,4.670048752884662
24,159.14999999999998,4.65334726292775
25,162.10999999999999,4.578520822451513
26,165.89,4.48296544932369
27,170.14000000000001,4.375528849938723
28,172.91,4.305505483193875
29,176.93,4.203883124343758
30,179.81,4.131079056631154
31,181.89000000000001,4.078498342912557
32,181.970086,4.076473833919559
33,186.13000000000002,3.996247396043923
34,190.9,3.9042551208593252
35,194.0,3.8444697988436087
36,198.07000000000002,3.765977461765882
37,202.21,3.686135161698839
38,205.03,3.6317498511584905
39,208.929613,3.5565435454760133
40,209.79999999999998,3.5439236602424566
41,216.17999999999998,3.4514191817709032
42,220.20000000000002,3.393132676232833
43,222.75,3.356159913477848
44,226.89000000000001,3.2961335675275674
45,230.04,3.2504630070075278
46,233.78,3.1962395350076167
47,239.78,3.1092477065670647
48,239.88329199999998,3.107750064659721
49,245.93,3.0401894848394773
50,252.24,2.9696888680224074
51,256.93,2.9172851980193233
52,259.9,2.8841037337936823
53,264.13,2.836843026500496
54,269.04,2.781984054231809
55,274.04,2.726119415929012
56,275.42287,2.7106687305527437
57,279.13,2.678881423788545
58,284.32,2.634379178022094
59,290.28000000000003,2.583273312278809
60,295.67,2.537056786200973
61,301.17,2.489895912967875
62,308.19,2.4297027256002472
63,316.227766,2.360782891151023
64,318.28000000000003,2.3476399766248424
65,327.95,2.2857110225858115
66,337.92,2.221860372327659
67,348.19000000000005,2.1560883141703844
68,357.12,2.0988985431038545
69,363.078055,2.060742333765747
70,366.28000000000003,2.0453861463823757
71,374.81,2.004476221219951
72,385.31,1.9541157026337428
73,395.2,1.9066859028109904
74,405.33,1.8581036090652392
75,413.82,1.8173852911166473
76,416.86938299999997,1.8027600111803503
77,421.51,1.7857634110258538
78,430.34000000000003,1.7534230190948743
79,441.37999999999994,1.7129905903012492
80,450.62,1.6791490825464754
81,460.06,1.6445738372996075
82,469.68999999999994,1.6093042167802496
83,478.630092,1.5765622399633956
84,479.53000000000003,1.5740275605209382
85,489.57,1.5457450420718015
86,499.82,1.5168759356180614
87,505.61,1.5005666682782803
88,511.46,1.4841174829857553
89,519.77,1.460712618430733
90,529.43,1.4335049015389743
91,540.52,1.40226209880682
92,549.5408739999999,1.376874142567908
93,550.57,1.3746653397093986
94,559.52,1.3554557246157928
95,569.92,1.333128756271826
96,580.51,1.3103689896943636
97,589.9499999999999,1.2901205614775322
98,599.53,1.2695440748254936
99,610.68,1.2456112614072024
100,620.6,1.2243456130268031
101,630.68,1.2027146688918815
102,630.957344,1.20211899401382
103,639.46,1.1876441804111824
104,649.85,1.1699973023437487
105,657.37,1.1572222797938831
106,664.99,1.1442715460712798
107,674.24,1.1285239819930544
108,685.1899999999999,1.1098720942782905
109,694.72,1.0937948763763994
110,704.39,1.077302664712676
111,715.8299999999999,1.057950883931498
112,724.43596,1.0433290495245169
113,725.7900000000001,1.0416229482676138
114,734.2,1.0310338230730784
115,744.41,1.0182567400338154
116,754.77,1.0052468756074915
117,765.27,0.9920459055132447
118,774.13,0.9809780439575275
119,784.9000000000001,0.967483452146571
120,795.82,0.953760447048554
121,805.0300000000001,0.9422049878230289
122,814.3499999999999,0.9305039387869924
123,825.6800000000001,0.9163767533043427
124,831.763771,0.9084600096246885
125,835.24,0.9050465096936914
126,844.91,0.8964084012496351
127,854.7,0.8872420044619088
128,864.5899999999999,0.8781013858877914
129,874.61,0.8688460786913648
130,884.7299999999999,0.859561693708547
131,894.9799999999999,0.8500773811034199
132,905.34,0.8402919104332622
133,915.8199999999999,0.832386786419435
134,924.3,0.8583846661334373
135,935.0,0.8968866779895486
136,945.83,0.970342140223351
137,954.58,1.0424478964140962
138,954.992586,1.0428701989862912
139,965.63,1.0539753199776876
140,974.57,0.8114488770551583
141,985.85,0.9750621583341148
142,994.98,0.9970831414792276
143,1004.18,1.1329346879124191
144,1015.8100000000001,1.120408745631769
145,1025.21,0.8955654300308994
146,1034.7,0.9759806815147022
147,1044.27,1.2484672481848809
148,1053.93,1.2333550819397319
149,1066.14,1.0929938497603047
150,1076.0,1.1807222214810946
151,1085.96,1.0511026121848541
152,1096.0,1.204391118074989
153,1096.4782,1.2030775180702684
154,1106.15,1.1781305863225167
155,1113.81,1.147493813071169
156,1124.12,1.0851858870631537
157,1134.52,1.2345801139803834
158,1145.02,1.1684423219256637
159,1155.61,1.210324082796189
160,1166.31,1.2245524527975697
161,1174.39,1.007814459864033
162,1185.26,1.2003288076130993
163,1196.22,0.9756609082874108
164,1204.52,0.8436899336155846
165,1215.6599999999999,0.7687283401403868
166,1224.0900000000001,0.9835258308050259
167,1235.41,1.2287510431803184
168,1243.98,1.297624327284228
169,1255.49,1.248603573612816
170,1258.92541,1.2021120711431559
171,1264.19,1.1320107542521542
172,1275.89,1.3419624352755715
173,1284.73,1.3894590098265978
174,1293.64,1.1678142992213536
175,1305.6100000000001,1.1553899374991572
176,1314.66,1.3594424565813732
177,1323.77,1.3161221883867857
178,1336.02,1.1978890860395088
179,1345.2800000000002,1.370872049652914
180,1354.6,1.3398624259895164
181,1363.99,1.2296062171698485
182,1373.45,1.2781238231939105
183,1386.1599999999999,1.284311018391144
184,1395.77,1.1688825562231986
185,1405.44,1.19864170677845
186,1415.18,1.2071620721774314
187,1424.9899999999998,1.2374621524201426
188,1434.8700000000001,1.2266913475065837
189,1441.49,1.2773520512993204
190,1445.43977,1.2879802610069637
191,1448.15,1.2957148570461603
192,1454.83,1.265893677600781
193,1464.92,1.188720683947506
194,1475.07,1.1901787835926259
195,1485.29,1.2095985087525396
196,1495.59,1.2278142916436465
197,1505.96,1.175014200049547
198,1512.91,1.0755898904469443
199,1516.3999999999999,1.1351176339702418
200,1523.4,1.1062175854496346
201,1533.95,1.0008272737507198
202,1544.5900000000001,1.0775920519993971
203,1555.29,1.0355800235464692
204,1566.07,1.0419290528247345
205,1573.3,1.0906546452813075
206,1584.21,1.1316327933727612
207,1595.19,1.1466882669790093
208,1606.25,1.13198959831645
209,1613.66,1.1379580706682075
210,1624.85,1.087600120818837
211,1636.1100000000001,1.1401460964842607
212,1643.66,1.153566419865606
213,1655.06,1.0828694465606175
214,1659.58691,1.1131875687419681
215,1666.53,1.1604713949773497
216,1670.37,1.056909658573576
217,1678.0800000000002,1.163017069075374
218,1685.8300000000002,1.209128223989633
219,1693.6100000000001,1.1496004622132374
220,1705.35,1.1121144972704502
221,1713.22,1.0653434854220911
222,1725.09,1.060541314819801
223,1733.06,1.117305714002594
224,1745.07,1.0963427988439163
225,1753.12,1.1564189868516306
226,1765.28,1.0770514882396804
227,1773.42,1.097704126175431
228,1785.72,1.1124409830070934
229,1793.96,1.1766435319739958
230,1806.3899999999999,1.1694327831461555
231,1814.73,1.0921537431442097
232,1823.11,1.1135832475547245
233,1835.7499999999998,1.0741603818923027
234,1844.22,1.0061903362308542
235,1857.0,1.0044362260120447
236,1865.57,1.030161291381748
237,1874.19,1.1019499622670268
238,1882.8400000000001,1.0306606164616512
239,1895.89,0.9973950560269516
240,1904.6399999999999,1.0437430212527277
241,1905.46072,1.0406704108033864
242,1913.43,1.0113969198798598
243,1926.69,0.9972866637066815
244,1935.5900000000001,1.02055285662212
245,1944.5200000000002,1.0553023480530037
246,1953.5,1.001990870342963
247,1967.04,1.0799373669806076
248,1976.1200000000001,1.1044584509887179
249,1985.24,1.0545762996840884
250,1994.4,1.0298130130667196
251,2003.6100000000001,1.054621057308426
252,2012.85,1.022762100065578
253,2026.81,1.0628732759194568
254,2036.1599999999999,1.0147909465665745
255,2045.56,1.050135248072768
256,2055.0,1.012879214266222
257,2064.49,1.0145062113187513
258,2074.02,1.072280973058541
259,2078.8,1.0293349031861583
260,2083.5899999999997,1.061104199485591
261,2093.21,1.0141843567717166
262,2102.87,1.0175926787451026
263,2112.58,1.0245728315775642
264,2127.22,1.0361563071148696
265,2137.04,0.9731778878372972
266,2146.9,0.9933729332469852
267,2156.81,1.0249997095157486
268,2166.77,0.9982285166435876
269,2176.77,0.9910599884586871
270,2186.8199999999997,0.975377791132862
271,2187.7616199999998,0.9787812171170915
272,2196.91,1.0124196891660586
273,2207.05,0.9898992438354335
274,2217.2400000000002,0.9495313568611664
275,2227.47,0.9222334365719855
276,2232.6099999999997,0.9762159556055741
277,2242.91,0.9399385770152942
278,2253.27,0.9068479484526438
279,2263.67,0.9264691865750796
280,2274.12,0.9467127830538734
281,2284.61,0.9659133462177534
282,2295.16,0.9232739594092628
283,2305.75,0.9205914392858586
284,2316.3900000000003,0.8849121775188121
285,2327.09,0.7264156657793952
286,2332.4500000000003,0.8330687015809584
287,2343.22,0.8137469315404425
288,2354.03,0.8658548281850127
289,2364.9,0.8087067748572125
290,2375.81,0.8271020882144987
291,2386.78,0.7808489515994141
292,2392.2799999999997,0.8225469707987794
293,2403.33,0.7937363675538675
294,2414.42,0.8103980309940417
295,2425.56,0.8480151527905742
296,2436.76,0.8192856246147358
297,2442.38,0.8582499438693598
298,2453.65,0.8465808573924225
299,2464.98,0.8424364209431146
300,2476.35,0.8165660511788931
301,2487.78,0.8356385314423009
302,2493.52,0.7965066507521839
303,2505.0299999999997,0.8655430643857643
304,2510.8,0.7905440587094619
305,2511.88643,0.7941027788873428
306,2516.59,0.8096667064677283
307,2522.39,0.7801085132439838
308,2534.0299999999997,0.7874577275328825
309,2545.73,0.7743691929263631
310,2557.4799999999996,0.8182186842403288
311,2563.38,0.8020535428575541
312,2575.21,0.8391081356442958
313,2587.1,0.8308006795356192
314,2593.06,0.8215226892574266
315,2605.0299999999997,0.797656934621526
316,2617.05,0.7883603059061104
317,2623.09,0.8179233171006937
318,2635.19,0.834895089858054
319,2647.36,0.8889373389040932
320,2653.46,0.8983822012032584
321,2665.71,0.8312454517220736
322,2678.01,0.8627456281613739
323,2684.19,0.857610791933315
324,2696.58,0.8290817950294882
325,2702.79,0.8469630343537202
326,2715.27,0.8128732641067663
327,2727.8,0.8134643197802973
328,2734.09,0.8463500605773052
329,2746.71,0.7556406429077093
330,2753.04,0.7674456844411053
331,2765.75,0.7875425934283822
332,2772.1200000000003,0.817766835698166
333,2784.92,0.7847286713423158
334,2797.77,0.6657520329069506
335,2804.2200000000003,0.7035257766495105
336,2817.17,0.8101039900551152
337,2823.66,0.8385676345340631
338,2836.69,0.8102123494124437
339,2843.23,0.7964453198118765
340,2856.36,0.7767595865312271
341,2862.94,0.8311950576670478
342,2876.16,0.8240964510432713
343,2882.79,0.8236296480995771
344,2884.0315,0.822830635021008
345,2896.09,0.8154152522017744
346,2909.46,0.866949688929307
347,2929.6299999999997,0.8403853767972451
348,2949.9399999999996,0.8301313263063091
349,2970.38,0.8419119259107044
350,2990.97,0.8410674987020205
351,3011.71,0.8498706446802572
352,3032.5800000000004,0.8457992407538252
353,3046.58,0.8436340048664248
354,3067.7,0.8444037895848607
355,3088.96,0.8483943359444226
356,3110.37,0.8410742554909052
357,3131.93,0.8321871482243085
358,3146.39,0.8364095434434649
359,3168.2,0.832328324821736
360,3190.1600000000003,0.8001315793869278
361,3212.27,0.8194139071390404
362,3227.1,0.7940064295526013
363,3249.47,0.8210465574953764
364,3272.0,0.8378342701708669
365,3287.1,0.8323481043208849
366,3309.88,0.8314326056412433
367,3311.31121,0.8313764383269155
368,3325.16,0.8311110454666162
369,3332.83,0.8325649225267928
370,3340.5099999999998,0.7990648119429802
371,3348.2099999999996,0.852051526071189
372,3355.93,0.8256309649114189
373,3363.66,0.7802234161076594
374,3371.42,0.7755309043719321
375,3379.19,0.8267614049922154
376,3386.98,0.83638053032452
377,3394.79,0.8280670803688459
378,3402.6099999999997,0.8560528427691825
379,3410.46,0.7991351422375509
380,3418.32,0.8099544540619302
381,3426.2,0.8258077905983308
382,3434.1,0.8487259518467525
383,3442.0099999999998,0.8094683254511851
384,3449.95,0.8108902361236496
385,3457.8999999999996,0.8012532591521248
386,3465.87,0.7871076068926213
387,3473.8599999999997,0.8248419793451391
388,3481.8700000000003,0.7991792765096781
389,3489.9,0.8245305983862387
390,3497.94,0.8004052326188097
391,3506.0099999999998,0.8161091039194128
392,3514.09,0.7922332875760265
393,3522.19,0.8238630959446616
394,3530.31,0.798134629025318
395,3538.4500000000003,0.8251757868179956
396,3546.6,0.8381859569666841
397,3554.78,0.8430377641834045
398,3562.97,0.8295913837561355
399,3568.73,0.649426000818276
400,3571.4,0.5554060998731223
401,3574.0699999999997,0.8302892989279687
402,3576.74,1.177173097982815
403,3579.3999999999996,0.8424516846816508
404,3582.07,0.2982046837364971
405,3584.7400000000002,0.10594626779134352
406,3587.41,0.5761185818461899
407,3590.07,0.5296563685450256
408,3592.74,1.438183867599872
409,3595.41,1.4360836666547183
410,3598.0800000000004,1.0046334657095648
411,3600.75,0.37635266476441115
412,3603.4100000000003,0.27173145146324684
413,3606.08,0.5435192505180932
414,3608.75,0.7286075495729395
415,3611.42,1.193275948627786
416,3614.08,0.31689023532662164
417,3616.7500000000005,0.467061134381468
418,3619.42,0.3205266334363144
419,3622.09,0.4724686324911608
420,3624.76,0.6357083315460071
421,3627.42,0.005490018244842881
422,3630.09,0.7481760172996892
423,3632.7599999999998,0.3826457163545356
424,3635.43,0.06992440540938201
425,3638.09,-0.1079434978917823
426,3640.76,0.9747614011630641
427,3643.43,1.4267150002179105
428,3646.1,0.7263723992727569
429,3648.7599999999998,0.4935100859715925
430,3651.43,0.38510178502643894
431,3654.1,0.7684006840812854
432,3656.7699999999995,1.1882114831361317
433,3659.44,1.029275682190978
434,3662.1,0.8707585688898137
435,3664.77,0.42645516794466015
436,3667.44,1.2927411669995066
437,3670.1099999999997,1.172974966054353
438,3672.77,0.6709059527531887
439,3675.4399999999996,0.901541751808035
440,3678.11,1.1616618508628813
441,3680.78,1.2715206499177276
442,3683.45,0.3919440489725741
443,3686.11,0.8717134356714098
444,3688.7799999999997,0.7352167347262563
445,3691.45,0.5817731337811025
446,3694.1200000000003,0.945565032835949
447,3696.78,1.1505194195347845
448,3699.4500000000003,0.5462295185896311
449,3702.12,0.7257673176444774
450,3704.79,0.6575915166993238
451,3707.46,0.6146300157541702
452,3710.12,0.7499627024530059
453,3712.7900000000004,0.9509749015078521
454,3715.46,1.1046877005626987
455,3718.13,0.5702755996175449
456,3720.79,0.9200376863163807
457,3723.46,1.417853385371227
458,3726.13,1.5859351844260734
459,3728.7999999999997,2.27091598348092
460,3731.4700000000003,1.9941947825357662
461,3734.13,1.728487069234602
462,3736.8,1.0377289682894484
463,3739.47,0.7803576673442947
464,3742.14,0.843153866399141
465,3744.7999999999997,0.8902472530979768
466,3747.47,1.134838552152823
467,3750.1400000000003,1.1275223512076695
468,3752.81,0.8647380502625159
469,3755.4700000000003,0.6816160369613516
470,3758.14,1.0903263360161979
471,3760.81,1.1932170350710443
472,3763.48,1.0603221341258906
473,3766.1499999999996,1.115323633180737
474,3768.8100000000004,0.7997930198795729
475,3771.48,0.5811189189344192
476,3774.15,0.9119026179892655
477,3776.82,1.089235117044112
478,3779.48,0.7784482037429477
479,3782.15,1.042820902797794
480,3784.8199999999997,1.1944472018526404
481,3787.4900000000002,1.0261622009074869
482,3790.1600000000003,0.8546294999623332
483,3792.82,0.32403868666116886
484,3795.4900000000002,0.8598634857160152
485,3798.16,1.2263326847708615
486,3800.83,0.655899783825708
487,3801.8939600000003,0.604296278559555
488,3803.49,0.5269087435231011
489,3806.1600000000003,1.074738904730618
490,3808.8300000000004,1.1864654659381348
491,3811.5,1.2497320271456518
492,3814.17,1.3028425883531687
493,3816.83,1.1160594957733914
494,3819.5,1.2687860569809082
495,3822.1699999999996,1.4151156181884252
496,3824.8399999999997,0.678240179395942
497,3827.5,0.9029532868161648
498,3830.17,0.8633358480236818
499,3832.84,0.9920299092311986
500,3835.5099999999998,0.8119334704387156
501,3838.18,0.7309423316462325
502,3840.8399999999997,1.0089969390664553
503,3843.5099999999998,1.200460800273972
504,3846.1800000000003,0.5153910614814889
505,3848.85,0.8972506226890059
506,3851.51,1.3393468301092286
507,3854.18,1.5126223913167456
508,3856.85,1.2740659525242626
509,3859.52,0.9478020137317794
510,3862.18,1.236034421152002
511,3864.8500000000004,1.035781182359519
512,3867.52,1.512396543567036
513,3870.19,1.4514411047745526
514,3872.86,1.3680876659820698
515,3875.52,1.4047095734022925
516,3878.19,0.9861894346098095
517,3880.8599999999997,1.4145206958173262
518,3883.53,1.303236257024843
519,3886.19,1.309645164445066
520,3888.86,0.9161613256525828
521,3891.53,0.4501263868600997
522,3894.2,0.4052345480676166
523,3896.87,1.3053524092751334
524,3899.5299999999997,1.1446303166953564
525,3902.2000000000003,1.2304338779028732
526,3904.87,0.63177343911039
527,3907.54,1.031879200317907
528,3910.2,1.1012729077381298
529,3912.87,1.5735184689456467
530,3915.54,1.4120410301531636
531,3918.2099999999996,1.3643335913606802
532,3920.88,1.2885581525681973
533,3923.54,1.1838540599884202
534,3926.21,1.457888621195937
535,3928.88,1.601817182403454
536,3931.5499999999997,0.8732280436109707
537,3934.21,0.6220000510311936
538,3936.8799999999997,1.3005462122387104
539,3939.55,0.6833830734462274
540,3942.2200000000003,0.8811062346537442
541,3944.89,0.9927544958612611
542,3947.55,0.9621370032814839
543,3950.22,1.4412123644890007
544,3952.89,1.3242789256965177
545,3955.5600000000004,1.4059884869040344
546,3958.2200000000003,1.0106220943242574
547,3960.8900000000003,1.3978559555317742
548,3963.56,1.365697516739291
549,3966.23,0.968731377946808
550,3968.9,1.071167639154325
551,3971.56,0.5769112465745476
552,3974.2300000000005,0.8169340077820646
553,3976.9,0.8369767689895815
554,3979.57,0.7235673301970984
555,3982.23,1.3164951376173213
556,3984.9,1.254753698824838
557,3987.5699999999997,0.9971243600323548
558,3990.24,1.0986358212398717
559,3992.8999999999996,1.3998197286600946
560,3995.57,1.3139072898676114
561,3998.2400000000002,2.0100678510751284
562,4000.91,1.2455364122826451
563,4003.58,1.1989709734901621
564,4006.24,1.202248880910385
565,4008.91,1.3336004421179017
566,4011.58,1.2025540033254187
567,4014.2499999999995,1.6485605645329355
568,4016.9100000000003,1.5332284719531584
569,4019.58,1.2987660331606752
570,4022.25,1.5566005943681922
571,4024.92,1.628764155575709
572,4027.5899999999997,1.312085716783226
573,4030.25,1.1474656242034489
574,4032.9199999999996,1.2525391854109655
575,4035.59,1.5553317466184824
576,4038.26,1.3454733078259995
577,4040.92,1.3059412152462222
578,4043.59,1.491046776453739
579,4046.2599999999998,1.395686337661256
580,4048.93,1.3297908988687728
581,4051.6000000000004,1.26159346007629
582,4054.26,0.8728990674965126
583,4056.9300000000003,0.9707890287040295
584,4059.6,1.3992584899115463
585,4062.27,1.4570530511190631
586,4064.93,1.486234958539286
587,4067.6,1.8049895197468029
588,4070.2700000000004,1.23551908095432
589,4072.94,1.1135666421618367
590,4075.6,1.0006731495820593
591,4078.27,1.3520641107895763
592,4080.94,1.5225846719970932
593,4083.6099999999997,1.25975823320461
594,4086.2799999999997,1.235336794412127
595,4088.9399999999996,1.48292370183235
596,4091.61,1.2505672630398668
597,4094.28,1.2436828242473834
598,4096.95,1.3387763854549004
599,4099.610000000001,1.3138882928751232
600,4102.28,1.1659538540826402
