,lambda (Angstroms),Total Flux (erg/s/cm^2/Angstrom)
0,100.07000000000001,12.63195247828678
1,101.93,12.596811539244626
2,104.07,12.556380564364957
3,104.712855,12.54423511922988
4,106.0,12.416496193428879
5,107.97,12.220989330463214
6,109.98,12.021512799834696
7,114.11,11.611643092158943
8,118.11999999999999,11.213682436431297
9,120.22644299999999,11.00463489306072
10,120.87,10.951088406747353
11,125.12,10.597471305915418
12,126.86,10.452696321395562
13,128.03,10.355347621383133
14,131.01,10.107399655534982
15,131.92000000000002,10.031684084199322
16,134.06,9.853627504814463
17,136.87,9.619824384305428
18,138.038426,9.52260667826111
19,140.06,9.402377943177957
20,142.98999999999998,9.228123773815112
21,147.0,8.989640114890591
22,151.12,8.744612775349717
23,154.99,8.514453876903376
24,158.489319,8.3063404845285
25,158.97000000000003,8.2847279879358
26,161.92000000000002,8.152089481807819
27,166.08,7.965046869791118
28,169.95,7.791043466822966
29,173.11,7.648963250837106
30,177.14000000000001,7.467766241185617
31,180.02,7.338275766945595
32,181.970086,7.250596105458847
33,182.1,7.246139858189896
34,185.91,7.115451374374549
35,191.12,6.936740910626765
36,193.78,6.8454997364541335
37,197.84,6.706236460659064
38,201.98000000000002,6.564229425261283
39,204.79000000000002,6.46784340423482
40,208.929613,6.3258487967930614
41,210.04,6.297214011144938
42,215.93,6.14532642376365
43,219.94,6.041918392146084
44,223.0,5.963008109990984
45,227.14999999999998,5.855990521954949
46,229.77999999999997,5.7882038314008595
47,234.04999999999998,5.678162943427566
48,239.88329199999998,5.527783218528108
49,240.06,5.524273121476855
50,246.21,5.402057881500807
51,251.95,5.288012218683161
52,257.21999999999997,5.18324918244222
53,260.2,5.124071050466508
54,263.82,5.052151966028898
55,268.73,4.954587063997775
56,273.72,4.855431309508916
57,275.42287,4.821593814833325
58,278.81,4.769941865490628
59,284.0,4.690797240367342
60,289.94,4.600200319310055
61,296.01,4.507642158037541
62,300.82,4.434283856874148
63,307.83000000000004,4.327389406337686
64,316.227766,4.199333029682044
65,317.92,4.180060722836202
66,328.33,4.0614935126992
67,338.31,3.947821284812717
68,347.78999999999996,3.839843176329164
69,356.71000000000004,3.7382437025648922
70,363.078055,3.665711872782178
71,365.86,3.6419833764268623
72,375.24,3.561972410310265
73,384.87,3.479813576263374
74,394.74,3.395635669647403
75,404.87,3.309226997039925
76,414.3,3.22878528251727
77,416.86938299999997,3.2068665435054564
78,422.0,3.173443000042738
79,429.84000000000003,3.1223690913946514
80,440.87,3.0505191812278927
81,451.14,2.9836142191050805
82,459.53000000000003,2.9289558775330846
83,470.23,2.8592508719406715
84,478.630092,2.80452994677358
85,480.08000000000004,2.7972659198132446
86,490.13,2.7469102064310493
87,500.39,2.6955115631304203
88,506.19,2.666525898221292
89,512.05,2.6376693344068975
90,520.37,2.5960198152765623
91,530.0400000000001,2.547618851027723
92,539.9,2.4981866839622064
93,549.5408739999999,2.4502158004739067
94,549.93,2.4487419732207822
95,560.1600000000001,2.409885230163425
96,570.5699999999999,2.3703074803836524
97,579.84,2.334815173179185
98,590.62,2.2940090442477765
99,600.22,2.257415247718879
100,609.97,2.220539559587967
101,619.88,2.18307650314824
102,629.9599999999999,2.1448224986928985
103,630.957344,2.1410192630522844
104,640.19,2.11312588841911
105,650.6,2.082073780408859
106,658.13,2.0595425162342975
107,665.75,2.0367473406273704
108,675.0100000000001,2.008820926808454
109,684.4,1.9804019716983439
110,695.52,1.947969496943878
111,705.2,1.9184710951072572
112,716.66,1.884920552052745
113,724.43596,1.8616348388429669
114,726.6300000000001,1.8567778810668272
115,735.04,1.8381972941862696
116,745.27,1.8162043934136043
117,755.63,1.7935137797200749
118,764.3800000000001,1.7744865640464853
119,775.02,1.751479382523401
120,785.8,1.7281594130855393
121,794.9000000000001,1.7082841586250062
122,804.0999999999999,1.6882137542253475
123,815.2900000000001,1.663602733037065
124,824.73,1.643729940783502
125,831.763771,1.626430654120679
126,834.28,1.621671254492973
127,845.88,1.6052195402395788
128,855.6800000000001,1.5894257807841248
129,865.5899999999999,1.5740512172021306
130,875.61,1.558589919493595
131,885.75,1.543226855465197
132,896.01,1.5271811751169362
133,904.3,1.5136080368530882
134,914.77,1.5086481504450675
135,925.3599999999999,1.7030898877171845
136,936.0799999999999,2.0021267164761167
137,944.74,2.5574084570593585
138,954.992586,2.978852026124792
139,955.68,3.0071338814928468
140,964.52,3.294665933474801
141,975.69,1.71819466001761
142,984.72,3.1589968803113937
143,996.12,3.156923979021154
144,1005.34,3.7821629676267667
145,1014.64,3.613304363942624
146,1024.03,2.224928418932505
147,1035.8799999999999,2.9662156110123874
148,1045.47,4.317438985277878
149,1055.1399999999999,4.238834767253614
150,1064.91,3.6955050588671536
151,1074.76,4.091408758190937
152,1084.7,3.557205416188746
153,1094.74,4.17369358382436
154,1096.4782,4.14092570427366
155,1104.8700000000001,3.985228610375085
156,1115.09,3.8881956483919367
157,1125.41,3.5989590096770545
158,1135.82,4.138665161903613
159,1143.7,3.8686886354430245
160,1154.28,3.9912158372256363
161,1164.96,4.064788362276514
162,1175.74,3.213095210595659
163,1183.8899999999999,3.984852056959391
164,1194.8400000000001,3.257718954834589
165,1205.9,2.6579607083048806
166,1214.26,1.962301733531972
167,1225.49,3.054176536558317
168,1233.99,3.903836014360982
169,1245.41,4.089878931597033
170,1254.04,3.9586053296484454
171,1258.92541,3.8251584599252215
172,1265.64,3.6443432218313094
173,1274.42,4.136758649173733
174,1286.21,4.192487211630131
175,1295.12,3.5974098275322945
176,1304.1,3.626034237274318
177,1316.17,4.104125975090156
178,1325.2900000000002,3.9369619725118987
179,1334.48,3.653771763773502
180,1343.73,4.004586949754985
181,1356.1599999999999,3.921422055890102
182,1365.5600000000002,3.6559272286712847
183,1375.03,3.7121941952923274
184,1384.56,3.7296525566332495
185,1394.16,3.3120527118140313
186,1403.8200000000002,3.4201312617146935
187,1413.5500000000002,3.5147246054552155
188,1426.63,3.5209296543890316
189,1436.52,3.5303233840492334
190,1443.15,3.620466000595961
191,1445.43977,3.6182648694171426
192,1446.48,3.617566506884875
193,1456.5,3.5462145762180475
194,1466.6000000000001,3.3659820333303268
195,1473.37,3.3614290991372706
196,1483.58,3.3545918394458227
197,1493.86,3.359729669061093
198,1504.22,3.2063248864554703
199,1511.16,2.963601026293017
200,1518.14,3.074981360020117
201,1525.14,3.064940290691994
202,1535.7199999999998,2.7885610744789164
203,1546.36,2.879208649100169
204,1553.4999999999998,2.7814847583854836
205,1564.2700000000002,2.8473282131477853
206,1575.1100000000001,2.957129757216806
207,1586.03,3.0026226890649337
208,1593.3500000000001,3.0299801708532392
209,1604.3899999999999,2.984938684370028
210,1615.52,2.9774698841383116
211,1626.71,2.8861578747409267
212,1634.22,2.991823027504611
213,1645.5500000000002,2.989609196720663
214,1653.1499999999999,2.868409035735844
215,1659.58691,2.944567369740838
216,1664.61,3.005006662375918
217,1672.29,2.853051942673772
218,1676.14,3.0051238891772543
219,1683.88,3.0402300076024353
220,1695.5500000000002,2.9204605233675345
221,1703.3799999999999,2.833363398983707
222,1715.19,2.722894203712569
223,1723.1,2.704576530165177
224,1735.05,2.803184623857802
225,1743.06,2.739316013855955
226,1755.14,2.829607090157789
227,1763.24,2.6906872373469324
228,1775.46,2.694618602612529
229,1783.6599999999999,2.7202428133472174
230,1796.0200000000002,2.800090467576577
231,1804.3100000000002,2.796184435502256
232,1816.8200000000002,2.6175556850499326
233,1825.1999999999998,2.6712564101666025
234,1833.6299999999999,2.5954686670560445
235,1846.34,2.439780043694811
236,1854.8600000000001,2.418405057775243
237,1863.42,2.4626552972738938
238,1876.34,2.5848081073583056
239,1885.0,2.4086654104025005
240,1893.7,2.307387938864914
241,1905.46072,2.4162084062593396
242,1906.83,2.4290498987099856
243,1915.63,2.3357360660072475
244,1924.47,2.287195474974042
245,1933.3500000000001,2.35929612561037
246,1946.7499999999998,2.4109290849039278
247,1955.74,2.2722989001314717
248,1964.7700000000002,2.409139957028548
249,1973.8400000000001,2.4641872555951574
250,1982.95,2.3507597958313005
251,1996.69,2.299579809315889
252,2005.9099999999999,2.3471425141432474
253,2015.17,2.3014884606401385
254,2024.4699999999998,2.3755096488065632
255,2033.8100000000002,2.2535980786425203
256,2043.2,2.291857310565394
257,2057.36,2.2170908615800795
258,2066.86,2.238212258094169
259,2071.63,2.32894557718598
260,2076.4,2.2145248962777915
261,2085.9900000000002,2.27712633654833
262,2095.61,2.1798014580710183
263,2105.29,2.2127259420980065
264,2115.0,2.2175291073771444
265,2124.77,2.2347006351605816
266,2134.57,2.1585538441961685
267,2144.43,2.1392924157360556
268,2154.32,2.1917296685280916
269,2164.27,2.1521822838244273
270,2174.26,2.1330251407902963
271,2184.29,2.0982872394256984
272,2187.7616199999998,2.114642203348572
273,2194.38,2.1465580203930807
274,2204.51,2.1048977240475986
275,2214.68,2.0526401195230624
276,2224.9,2.002008879774708
277,2235.17,2.059317004802536
278,2245.49,2.019825494606547
279,2255.86,1.9667953491867394
280,2266.27,1.990576895587878
281,2276.73,2.0035908067651986
282,2287.2400000000002,2.0205760827187014
283,2292.51,1.9465617301283074
284,2303.09,1.9519597167684655
285,2313.72,1.8972330681848057
286,2324.4,1.644659784377328
287,2335.13,1.8191738653460328
288,2345.91,1.7911653110909198
289,2356.74,1.8422711216119887
290,2367.62,1.77451729690924
291,2373.0699999999997,1.7898070575131022
292,2384.03,1.7274106164522447
293,2395.0299999999997,1.7731168672123336
294,2406.0899999999997,1.7267281557038408
295,2417.19,1.737402136016294
296,2422.7599999999998,1.7716319720829934
297,2433.95,1.7219380089925744
298,2445.1800000000003,1.764619737723101
299,2456.4700000000003,1.7465425041850466
300,2467.81,1.7287106354231745
301,2473.5,1.6933265469527112
302,2484.91,1.713167388877494
303,2496.38,1.6348862685336956
304,2502.14,1.7259918907498877
305,2511.88643,1.6465498480422194
306,2513.69,1.6319561416373487
307,2519.48,1.6673932449316626
308,2525.29,1.62173088053442
309,2536.9399999999996,1.6203749502025993
310,2542.79,1.5992036504222427
311,2554.5299999999997,1.6481811154784165
312,2566.32,1.6228619113056981
313,2572.2400000000002,1.6613344746048933
314,2584.11,1.6508313996659478
315,2596.04,1.6373549216523322
316,2602.02,1.6010020818768569
317,2614.0299999999997,1.5879097330970144
318,2626.1,1.6040589812425012
319,2632.1499999999996,1.6211580045465772
320,2644.3,1.674723381925837
321,2656.51,1.6827233562304265
322,2662.63,1.6086752426140538
323,2674.92,1.6342793461524163
324,2687.27,1.6298250466161084
325,2693.4599999999996,1.584398796079287
326,2705.9,1.5947108919309736
327,2712.1299999999997,1.5560977060110386
328,2724.65,1.543170931096498
329,2737.23,1.5734007531072873
330,2743.54,1.4770766964211253
331,2756.2,1.4864116476656875
332,2762.56,1.5076689217506334
333,2775.3100000000004,1.53427526838319
334,2788.12,1.4962762119410764
335,2794.55,1.3673643491055736
336,2807.44,1.4085924218972328
337,2813.9199999999996,1.5070628898328382
338,2826.9,1.519597358012492
339,2833.4199999999996,1.4770238905649837
340,2846.5,1.4591160202868536
341,2853.06,1.4342376174562317
342,2866.23,1.486828142566096
343,2872.8399999999997,1.4804970705065823
344,2884.0315,1.4744826271620717
345,2886.1,1.4734763467715273
346,2892.75,1.47027004653273
347,2912.7999999999997,1.5079529006999648
348,2932.99,1.4729416117042777
349,2953.33,1.4468769550340315
350,2966.96,1.448611945672406
351,2987.52,1.4390283497461391
352,3008.23,1.432153386145313
353,3029.08,1.4279742793815648
354,3050.08,1.4157498049432573
355,3071.2200000000003,1.4089031873420277
356,3092.5099999999998,1.3967752020662387
357,3106.78,1.3904718239598268
358,3128.32,1.3706632258931057
359,3150.0,1.3613414846634626
360,3171.84,1.3545821512476226
361,3186.48,1.3132894662106311
362,3208.57,1.326520520003859
363,3230.81,1.2927302061225276
364,3253.2,1.318134524566637
365,3268.22,1.3320823080874282
366,3290.8700000000003,1.3177837892289679
367,3311.31121,1.307270866365836
368,3313.69,1.306132416658658
369,3321.3199999999997,1.3083176341668534
370,3328.9800000000005,1.3332232496469025
371,3336.65,1.3303869977842366
372,3344.35,1.2876061438934245
373,3352.0499999999997,1.2922112900026124
374,3359.78,1.2869768340836543
375,3367.53,1.2866556434792655
376,3375.2900000000004,1.2129569855321614
377,3383.07,1.2357187928996263
378,3390.8700000000003,1.2881492655816609
379,3398.6899999999996,1.2977130035782647
380,3406.52,1.248837874232153
381,3414.38,1.2676621428578956
382,3422.25,1.3017345441409227
383,3430.13,1.2816200780812346
384,3438.04,1.2837430099934004
385,3445.97,1.2121024072201354
386,3453.91,1.2855495371041552
387,3461.8700000000003,1.2114024323027441
388,3469.85,1.2249399928159024
389,3477.85,1.1947286186436303
390,3485.87,1.2219055097859273
391,3493.91,1.2145911662427935
392,3501.96,1.2211999553569446
393,3510.03,1.2115720097856648
394,3518.1200000000003,1.1929187295289545
395,3526.23,1.1925592145868134
396,3534.3599999999997,1.2197857649592418
397,3542.5099999999998,1.2550068806462393
398,3550.68,1.2498442616478063
399,3558.8599999999997,1.2233837753066577
400,3567.07,1.2443376869373632
401,3575.29,1.1546587312253536
402,3583.5299999999997,1.134768740827913
403,3591.7900000000004,1.1089894157450417
404,3600.07,1.19836785597674
405,3608.3700000000003,1.1641468615230073
406,3616.69,1.1704393323838442
407,3625.03,1.1949614685592505
408,3633.38,1.2037933373919412
409,3641.76,1.217419504196486
410,3650.1499999999996,1.1824312036583153
411,3650.23,1.0069666649165927
412,3652.91,1.0215542170688814
413,3655.59,1.27128196922117
414,3658.2599999999998,1.1894893887161744
415,3660.9399999999996,0.9736506408684631
416,3663.6200000000003,1.1207467930207518
417,3666.29,0.904624212515756
418,3668.97,0.7547577646680448
419,3671.65,0.8423903168203335
420,3674.3199999999997,0.9209829363153377
421,3677.0000000000005,1.2099369884676263
422,3679.6800000000003,1.1457023406199152
423,3682.36,0.8623619927722039
424,3685.03,1.205256512267208
425,3687.71,1.1798190644194968
426,3690.39,1.1781097165717855
427,3693.0600000000004,1.3128590360667898
428,3695.7400000000002,1.1675279882190783
429,3698.42,1.1722022403713672
430,3701.09,1.0587946598663713
431,3703.77,1.2622261120186602
432,3706.45,1.319056664170949
433,3709.13,1.1173505163232378
434,3711.8,1.0175922358182419
435,3714.48,1.0930916879705306
436,3717.16,1.3453567401228195
437,3719.83,1.6213571596178233
438,3722.5099999999998,2.520600711770112
439,3725.19,3.834836263922401
440,3727.86,4.2701576834174055
441,3730.54,4.130530235569694
442,3733.22,2.3538087877219827
443,3735.89,1.5934942072169869
444,3738.57,1.2291377593692756
445,3741.25,0.9227310115215643
446,3743.93,1.1712735636738532
447,3746.6,1.1109193831688573
448,3749.2799999999997,1.2305518353211462
449,3751.9599999999996,0.9981133874734348
450,3754.63,0.925033106968439
451,3757.31,1.4008313591207278
452,3759.9900000000002,1.1702538112730165
453,3762.66,1.2464073307680206
454,3765.3399999999997,1.1930368829203095
455,3768.0200000000004,1.3850244350725982
456,3770.7000000000003,0.7962422872248869
457,3773.37,1.1081837067198912
458,3776.05,1.25563895887218
459,3778.73,1.4246565110244687
460,3781.3999999999996,1.3796349305194728
461,3784.0800000000004,1.1707715826717615
462,3786.76,1.7247420348240503
463,3789.43,1.3087754543190544
464,3792.11,1.359347006471343
465,3794.79,1.393925558623632
466,3797.47,1.3188261107759207
467,3800.1400000000003,1.1442869302709249
468,3801.8939600000003,1.4120421131026692
469,3802.82,1.5534323774432561
470,3805.5,1.3793813463958058
471,3808.17,1.5633909311358458
472,3810.85,1.3750009000883956
473,3813.53,1.1971438690409453
474,3816.2000000000003,1.1383326537809852
475,3818.88,1.6182924227335351
476,3821.56,1.5057043916860846
477,3824.23,1.3250139764261248
478,3826.91,1.1630682453786745
479,3829.59,1.2448109143312243
480,3832.27,1.1059316832837738
481,3834.94,1.352024468023814
482,3837.62,0.8128737369763638
483,3840.2999999999997,1.5625114059289134
484,3842.97,1.2561509906689534
485,3845.65,1.388092959621503
486,3848.33,1.145533228574053
487,3851.0,1.350416513314093
488,3853.68,1.2660504822666427
489,3856.3599999999997,1.5354244512191924
490,3859.0400000000004,1.466307420171742
491,3861.71,1.5541380049117823
492,3864.39,1.468282973864332
493,3867.07,1.6104959428168817
494,3869.74,1.3536325275569219
495,3872.4199999999996,1.6269904965094715
496,3875.1000000000004,1.073280265462021
497,3877.77,1.3993260502020612
498,3880.45,1.3288580191546109
499,3883.13,1.2259619881071608
500,3885.81,1.3656669570597102
501,3888.4800000000005,1.4068825417997504
502,3891.1600000000003,1.2518155107523001
503,3893.84,1.21081147970485
504,3896.51,1.46407406444489
505,3899.19,1.2525490333974396
506,3901.87,1.4625960023499893
507,3904.5400000000004,1.6830595870900296
508,3907.2200000000003,1.6441495560425792
509,3909.9,1.1401702249951289
510,3912.58,1.4664984939476784
511,3915.25,1.3251160786877187
512,3917.93,1.1712903476402683
513,3920.61,1.567078016592818
514,3923.28,1.485629601332858
515,3925.96,1.4484295702854078
516,3928.64,1.3878745392379574
517,3931.31,1.3503231239779976
518,3933.99,1.4553670929305476
519,3936.67,1.4091230618830972
520,3939.34,1.482766646623137
521,3942.02,1.4934636155756869
522,3944.7,1.5224975845282367
523,3947.3799999999997,1.2537565534807862
524,3950.0499999999997,1.4688971382208265
525,3952.73,1.7207611071733762
526,3955.41,1.4728920761259257
527,3958.08,1.564776660865966
528,3960.7599999999998,1.2996326298185155
529,3963.4399999999996,1.2420145987710651
530,3966.11,1.1270745835111053
531,3968.79,1.280457152463655
532,3971.47,1.2694121214162046
533,3974.15,1.4785070903687543
534,3976.8199999999997,1.3678016751087947
535,3979.5000000000005,1.319172644061344
536,3982.1800000000003,1.4469236130138938
537,3984.85,1.5679531977539343
538,3987.53,1.532049166706484
539,3990.21,1.6019491356590334
540,3992.8799999999997,1.6101997203990737
541,3995.5600000000004,1.6326436893516234
542,3998.2400000000002,1.412749658304173
543,4000.92,1.3263716272567225
544,4003.59,1.5078582119967627
545,4006.27,1.5483771809493125
546,4008.95,1.5797001499018621
547,4011.6200000000003,1.7398857346419023
548,4014.3,1.761502703594452
549,4016.98,1.6622046725470017
550,4019.65,1.4360592572870416
551,4022.33,1.4747442262395913
552,4025.0099999999998,1.5455121951921413
553,4027.6800000000003,1.4079357799321812
554,4030.36,1.420107748884731
555,4033.04,1.4837347178372808
556,4035.72,1.5283346867898304
557,4038.39,1.4757832715298707
558,4041.07,1.4483862404824202
559,4043.75,1.4700862094349698
560,4046.42,1.38851279417501
561,4049.1,1.4265637631275596
562,4051.7799999999997,1.4489527320801092
563,4054.45,1.5214383168201495
564,4057.13,1.5065462857726992
565,4059.81,1.3588422547252488
566,4062.4900000000002,1.5183172236777984
567,4065.16,1.5295588084178386
568,4067.8399999999997,1.4672807773703882
569,4070.5200000000004,1.4042027463229378
570,4073.19,1.4435703310629782
571,4075.87,1.4771683000155278
572,4078.55,1.4807102689680776
573,4081.22,1.526117853708118
574,4083.8999999999996,1.5204628226606673
575,4086.5800000000004,1.491259791613217
576,4089.26,1.3551517605657668
577,4091.93,1.368089345305807
578,4094.61,1.3880103142583566
579,4097.29,1.3069812832109062
580,4099.96,1.4207448679509465
581,4102.64,1.442913836903496
582,4105.32,1.4866588058560457
583,4107.990000000001,1.3827633905960859
584,4110.67,1.3056083595486356
585,4113.35,1.3733573285011853
586,4116.02,1.4652409132412254
587,4118.7,1.353383882193775
588,4121.38,1.4860708511463248
589,4124.06,1.4560958200988745
590,4126.7300000000005,1.4162144048389145
591,4129.41,1.4577403737914643
592,4132.09,1.368894342744014
593,4134.76,1.496679927484054
594,4137.44,1.5273548964366037
595,4140.12,1.4568448653891535
596,4142.79,1.5636054501291936
597,4145.47,1.4661964190817434
598,4148.15,1.519166388034293
599,4150.83,1.4250803569868427
