,lambda (Angstroms),Total Flux (erg/s/cm^2/Angstrom)
0,100.03,83.2487774938915
1,101.89,83.01720080768436
2,104.02,82.7520081508988
3,104.712855,82.66574521276881
4,105.96,81.85011340942069
5,107.92,80.56827502289647
6,109.92999999999999,79.25373667753392
7,114.05999999999999,76.55272007736232
8,118.07,73.93018337841198
9,120.22644299999999,72.5198714316713
10,121.09,72.0463747943725
11,125.06,69.86958547981351
12,127.09,68.7565168882477
13,127.97,68.27400439536662
14,130.95000000000002,66.64004163536944
15,131.85999999999999,66.1410798530333
16,134.01,64.96221410340448
17,137.13,63.25148799250771
18,138.038426,62.75338924955331
19,140.0,61.98460372582428
20,142.93,60.83627000026481
21,146.93,59.26857891227802
22,151.05,57.65385708717559
23,154.93,56.1331967295997
24,158.489319,54.738218560532026
25,158.9,54.61653345098455
26,161.85000000000002,53.74244608740794
27,166.01000000000002,52.50983475689828
28,169.86999999999998,51.366113669830455
29,173.03,50.4298031446289
30,177.06,49.23571092818788
31,179.94,48.382364633561515
32,181.970086,47.78084853492816
33,182.01999999999998,47.7695655142676
34,185.82999999999998,46.9083180017663
35,191.04,45.73060159225818
36,194.14000000000001,45.02984903504833
37,198.20999999999998,44.10982874631886
38,201.89,43.27796766879566
39,205.17000000000002,42.53652627116718
40,208.929613,41.68666873649773
41,209.95,41.51325699870345
42,215.83,40.51396855739715
43,219.85000000000002,39.83078156734861
44,222.91,39.31074370608517
45,227.04999999999998,38.607163108970745
46,230.21,38.07013120848133
47,233.95,37.43453071438137
48,239.88329199999998,36.42618679181547
49,239.95,36.417450549473585
50,246.11,35.610720816929515
51,251.84,34.86030583121919
52,257.11,34.17013204726947
53,260.09000000000003,33.779864719299155
54,263.71,33.305780917310045
55,269.23,32.58286783658377
56,274.23,31.928055394469844
57,275.42287,31.77183421458654
58,278.69,31.443462219026244
59,283.87,30.922831893240367
60,289.82,30.324810015028348
61,295.88,29.71573314120116
62,300.69,29.232290593663556
63,307.7,28.52773166905269
64,316.227766,27.670625826443416
65,317.78000000000003,27.554100736950065
66,328.19,26.772629287942436
67,338.15999999999997,26.024188396775056
68,347.63,25.313282542305213
69,357.37,24.582108071772506
70,363.078055,24.153609563300353
71,365.7,24.006207344172726
72,375.08,23.478875059323435
73,384.7,22.938049029688088
74,394.57,22.38317232254518
75,404.69,21.81423975906471
76,414.11999999999995,21.284097044297916
77,416.86938299999997,21.12953002745575
78,421.81000000000006,20.917419066055054
79,429.65999999999997,20.580402819980662
80,440.68,20.107293503585485
81,450.94,19.66681112192756
82,460.39,19.261102714625263
83,470.03000000000003,18.847238993281152
84,478.630092,18.47802131471434
85,479.87,18.437081577351567
86,489.92,18.10524367306528
87,500.17,17.76680658440689
88,505.97,17.575302828385553
89,511.83,17.381865295631584
90,520.14,17.1074873837617
91,529.8100000000001,16.788205094885438
92,539.66,16.462968617411274
93,549.5408739999999,16.13676302965937
94,549.6899999999999,16.133007537673745
95,559.91,15.875625806709472
96,570.32,15.613454798858095
97,579.5899999999999,15.379957897129348
98,590.37,15.108498585913603
99,599.96,14.86696466866973
100,609.7099999999999,14.621444898268297
101,619.61,14.372175276319147
102,629.68,14.118591835202592
103,630.957344,14.086421107804547
104,639.9100000000001,13.90768046733224
105,650.3100000000001,13.70012676531191
106,657.8399999999999,13.549839305786614
107,665.4599999999999,13.397752380581332
108,674.72,13.212888790407458
109,685.6800000000001,12.994055676478341
110,695.22,12.803879492800077
111,704.89,12.61076203788406
112,716.34,12.382433465097249
113,724.43596,12.220862934749096
114,726.3100000000001,12.1931064656425
115,734.7199999999999,12.06856224697261
116,744.94,11.917368948832737
117,755.3,11.764015204512871
118,765.81,11.608423070143004
119,774.68,11.477255588453119
120,785.46,11.317772109593255
121,794.55,11.183245752763375
122,805.6,11.019689967413516
123,814.93,10.881609462703636
124,824.37,10.742155207423753
125,831.763771,10.63212843807117
126,835.84,10.586727177159094
127,845.52,10.48057378668295
128,855.31,10.372360618576394
129,865.21,10.263172723839432
130,875.23,10.152678231142016
131,885.36,10.041104846814191
132,895.62,9.927950011195879
133,905.99,9.81319078294716
134,914.37,9.72469013037587
135,924.9599999999999,9.680397721866331
136,935.67,9.66914031739634
137,944.33,9.758127425584002
138,954.992586,9.80502746495088
139,955.26,9.806267698922053
140,964.0999999999999,9.79133743710588
141,975.26,9.141623835220303
142,984.2900000000001,9.491584978613961
143,995.6800000000001,9.412592089350811
144,1004.9,9.607722197954304
145,1014.1999999999999,9.486759521382991
146,1025.94,8.86577929698006
147,1035.43,9.006692955618579
148,1045.01,9.50702693093544
149,1054.68,9.396587922930642
150,1064.44,9.043318931604187
151,1074.29,9.142809156956073
152,1084.23,8.795980698986304
153,1094.26,9.021850057694873
154,1096.4782,8.98960988429447
155,1104.3899999999999,8.890161049101518
156,1114.6100000000001,8.765918377932643
157,1124.9199999999998,8.564044946450153
158,1135.33,8.79471200350808
159,1145.8300000000002,8.583381300252384
160,1153.78,8.614801139215935
161,1164.45,8.582455666478959
162,1175.23,8.042641931136448
163,1186.1,8.376958435480319
164,1194.32,7.852477193503005
165,1205.3700000000001,7.474611077219631
166,1213.73,7.16548411919891
167,1224.96,7.596639482288297
168,1236.29,8.056223433918108
169,1244.86,8.163388701832272
170,1256.38,7.997795381688883
171,1258.92541,7.907631685104422
172,1265.0900000000001,7.704977699491068
173,1273.86,8.112946598299008
174,1285.65,8.156736194301924
175,1294.56,7.677515324105657
176,1303.53,7.613332838621872
177,1315.5900000000001,7.976713165830962
178,1324.71,7.849643642128385
179,1333.89,7.57232850313829
180,1346.24,7.859777023124382
181,1355.5700000000002,7.752300845915495
182,1364.97,7.479888784204505
183,1374.43,7.539551107205998
184,1383.9499999999998,7.5162578149199755
185,1393.55,7.207041368917261
186,1406.4399999999998,7.213240351315703
187,1416.19,7.208041867094195
188,1426.01,7.217690498370586
189,1435.8899999999999,7.155204514359461
190,1442.52,7.2408610250888366
191,1445.43977,7.261093673489482
192,1445.85,7.264720184869621
193,1455.87,7.17142920075099
194,1465.96,6.97248407802075
195,1476.12,6.936604816678908
196,1486.35,6.946559416725456
197,1496.6499999999999,6.9528498781603965
198,1503.56,6.824435480928885
199,1510.5,6.5792265957209715
200,1517.48,6.682882059877855
201,1524.48,6.604621198717135
202,1535.05,6.323435268364449
203,1545.69,6.460651199400154
204,1556.4,6.320721991824253
205,1563.59,6.332661040146315
206,1574.42,6.4184098806648
207,1585.3400000000001,6.476939257254077
208,1596.33,6.488776495231749
209,1603.7,6.42359361569539
210,1614.8100000000002,6.3978069017674475
211,1626.0,6.243296886569098
212,1633.51,6.353119729809525
213,1644.83,6.351601600046763
214,1656.23,6.145714169013589
215,1659.58691,6.218611144176835
216,1663.88,6.317518274951348
217,1671.56,6.062391391661226
218,1675.4099999999999,6.312161019178549
219,1683.1499999999999,6.391771550862723
220,1694.81,6.226944194200897
221,1706.56,6.111836460000515
222,1714.44,5.993250959958047
223,1726.3200000000002,5.956515124868639
224,1734.29,6.079809247287615
225,1746.3100000000002,6.003542380471565
226,1754.3700000000001,6.134760125351985
227,1766.53,5.9120842268092915
228,1774.6899999999998,5.954820663313537
229,1786.99,5.967026733044201
230,1795.2399999999998,6.1040897920098915
231,1803.5200000000002,6.0677580584627275
232,1816.0200000000002,5.861984511441046
233,1824.4099999999999,5.892116538680094
234,1837.0500000000002,5.771936959931766
235,1845.53,5.578600609632258
236,1854.05,5.575315535982279
237,1866.8999999999999,5.60632240964399
238,1875.52,5.760023027617837
239,1884.18,5.567311922241215
240,1892.8700000000001,5.4644260243517415
241,1905.46072,5.550210612088268
242,1905.99,5.5542541728516515
243,1914.7900000000002,5.465893529691165
244,1923.63,5.417328219970859
245,1936.97,5.449601922270759
246,1945.9099999999999,5.539365946150902
247,1954.8899999999999,5.389457303471225
248,1968.4399999999998,5.566685006332068
249,1977.5200000000002,5.616276697252838
250,1982.08,5.483211709433315
251,1995.8200000000002,5.40085074613501
252,2005.03,5.452091770736366
253,2014.29,5.364067462137946
254,2023.5900000000001,5.4524264869797054
255,2032.93,5.321804845261644
256,2047.02,5.3832905495649115
257,2056.47,5.258276574807345
258,2065.96,5.2621759334899565
259,2075.5,5.410578958972794
260,2080.2799999999997,5.286794305074258
261,2085.07,5.361545984535765
262,2094.7,5.222844010259007
263,2104.3700000000003,5.226908369422427
264,2114.08,5.231293062026028
265,2123.8399999999997,5.257449421429853
266,2133.64,5.0783061142738575
267,2143.4900000000002,5.117325473918085
268,2153.38,5.1850221670024945
269,2163.32,5.098577526887127
270,2173.31,5.065371553571985
271,2183.34,5.011571913697022
272,2187.7616199999998,5.050236097299527
273,2193.42,5.103863413998302
274,2203.54,5.034819309736994
275,2213.71,4.920919530059375
276,2223.9300000000003,4.845245074965446
277,2234.2000000000003,4.976845944455205
278,2244.51,4.8678044736119155
279,2254.87,4.776877327352317
280,2265.28,4.814857505676406
281,2275.74,4.859187008584184
282,2286.24,4.899778171158914
283,2296.79,4.765162658317333
284,2307.39,4.758298470059442
285,2312.71,4.666294205763971
286,2323.39,4.237640336839982
287,2334.11,4.510753127582944
288,2344.89,4.440012907826334
289,2355.71,4.574545347736675
290,2366.58,4.4102961122307045
291,2377.5099999999998,4.451609866225162
292,2382.9900000000002,4.310667240597496
293,2393.99,4.416362649009119
294,2405.04,4.3277733820044295
295,2416.14,4.35454443958343
296,2427.29,4.447392821746119
297,2432.89,4.364342175119309
298,2444.12,4.454210876615901
299,2455.4,4.412489902696182
300,2466.73,4.385151253360152
301,2472.42,4.311143590983982
302,2483.83,4.353448260981855
303,2495.29,4.203323255563418
304,2506.81,4.403813239645407
305,2511.88643,4.219358188671919
306,2512.59,4.194068597247533
307,2518.38,4.241258979099826
308,2524.19,4.158232509075962
309,2535.8399999999997,4.166558291213997
310,2547.54,4.126254943661635
311,2553.42,4.236584492071218
312,2565.2000000000003,4.190498737014227
313,2577.04,4.279565426328761
314,2582.9800000000005,4.25813241910987
315,2594.9100000000003,4.2249462749816935
316,2606.8799999999997,4.154806427101203
317,2612.89,4.124870438315759
318,2624.95,4.194147756992557
319,2637.07,4.22289852004088
320,2643.15,4.365852549688885
321,2655.3500000000004,4.382585905232577
322,2667.61,4.196209705147796
323,2673.76,4.278300753229248
324,2686.1000000000004,4.258532145639834
325,2692.29,4.167030489968971
326,2704.72,4.201290048936848
327,2717.2000000000003,4.1037834782143285
328,2723.4599999999996,4.101135840976912
329,2736.04,4.178993010873605
330,2742.3399999999997,3.935524669883873
331,2755.0,3.951936432275934
332,2767.7200000000003,4.001305639039521
333,2774.1,4.079618890545158
334,2786.9,3.9786186898041134
335,2793.33,3.629721811619355
336,2806.22,3.7268417774355997
337,2812.69,4.033763195498525
338,2825.67,4.092623327872061
339,2832.19,4.005809616244591
340,2845.26,3.9564879151754155
341,2851.8199999999997,3.901498499795631
342,2864.9799999999996,4.025809965283745
343,2878.21,3.995254449205307
344,2884.0315,3.9970172336965426
345,2884.84,3.9975334237452813
346,2898.1600000000003,3.9662609068743295
347,2911.5299999999997,4.0973650427178265
348,2931.71,4.012866878269192
349,2952.0400000000004,3.975144671963903
350,2972.5,3.98815256271618
351,2993.1000000000004,3.9758454810689123
352,3006.92,3.984419491342444
353,3027.7599999999998,3.9666307427245293
354,3048.75,3.9487129522499584
355,3069.8799999999997,3.935968189375844
356,3091.16,3.933256384645074
357,3112.59,3.904619538057649
358,3126.9599999999996,3.871712728190114
359,3148.63,3.8685022146320414
360,3170.46,3.8499105897602037
361,3192.43,3.7450279924888212
362,3207.1699999999996,3.7878426127082037
363,3229.4,3.7036502095519532
364,3251.78,3.770034764539048
365,3266.79,3.8038405094164514
366,3289.44,3.7740251890615664
367,3311.31121,3.755438150159609
368,3312.2400000000002,3.75486743814385
369,3319.88,3.7763006160933386
370,3327.53,3.7820930783071587
371,3335.2,3.8416171090496425
372,3342.89,3.70471770832079
373,3350.59,3.8050685918562692
374,3358.32,3.715831328184744
375,3366.06,3.6750553487775504
376,3373.82,3.59029493789902
377,3381.6000000000004,3.6706620955491536
378,3389.39,3.759635537463619
379,3397.21,3.7021988321710793
380,3405.0399999999995,3.686968411142872
381,3412.89,3.641056558643328
382,3420.75,3.7135709904081153
383,3428.64,3.7035812749658987
384,3436.54,3.709036843788014
385,3444.4700000000003,3.5614382654031242
386,3452.4100000000003,3.763279971282566
387,3460.36,3.6166699614263402
388,3468.3399999999997,3.6220658043631095
389,3476.34,3.5916952158285422
390,3484.35,3.6070519115583073
391,3492.38,3.6173261758167357
392,3500.43,3.5466670086038277
393,3508.5,3.581920409919583
394,3516.59,3.5217893797640016
395,3524.7000000000003,3.592196918137084
396,3532.8199999999997,3.628408740774499
397,3540.97,3.654818416204909
398,3549.1299999999997,3.69236237589965
399,3557.3100000000004,3.6341429041230553
400,3563.81,3.8325046759387194
401,3566.47,3.886882290250976
402,3569.1299999999997,3.7170989045632323
403,3571.8,3.8932128031398205
404,3574.46,3.8729354174520774
405,3577.12,3.7377430317643334
406,3579.79,3.471396930340922
407,3582.45,3.416137544653178
408,3585.11,3.6888141589654344
409,3587.7799999999997,3.423640057542023
410,3590.4399999999996,3.5430976718542797
411,3593.1000000000004,3.7430732861665357
412,3595.77,3.746229184743124
413,3598.4300000000003,3.4906497990553804
414,3601.1,3.6861116976319686
415,3603.7599999999998,3.9226343119442255
416,3606.42,3.3666739262564818
417,3609.0899999999997,3.5527558248330697
418,3611.7500000000005,3.663809439145326
419,3614.4100000000003,3.4183920534575822
420,3617.08,3.6236269520341713
421,3619.7400000000002,3.706146566346427
422,3622.4,3.489654180658684
423,3625.07,3.4597820792352723
424,3627.73,3.6013236935475286
425,3630.39,3.6707503078597847
426,3633.0600000000004,3.613321206436373
427,3635.7200000000003,3.590307820748629
428,3638.38,3.589964435060886
429,3641.05,3.3967103336374738
430,3643.71,3.6068489479497305
431,3646.37,3.534585562261987
432,3649.04,3.5709654608385755
433,3651.7,3.6685340751508315
434,3654.37,3.61892297372742
435,3657.03,3.4438625880396767
436,3659.69,3.7521082023519328
437,3662.36,3.5156631009285206
438,3665.02,3.5893897152407774
439,3667.68,3.546050329553034
440,3670.35,3.783921228129622
441,3673.0099999999998,3.574660842441879
442,3675.6699999999996,3.6825874567541352
443,3678.34,3.5718053553307234
444,3681.0,3.6539349696429797
445,3683.6600000000003,3.5034985839552357
446,3686.33,3.4779264825318243
447,3688.99,3.629044096844081
448,3691.65,3.4827117111563375
449,3694.3199999999997,3.6471006097329255
450,3696.9800000000005,3.5570532240451818
451,3699.65,3.4404091226217703
452,3702.31,3.667940736934027
453,3704.9700000000003,3.530207351246283
454,3707.64,3.6277582498228713
455,3710.3,3.4095068641351274
456,3712.96,3.6882424784473846
457,3715.6299999999997,3.686903377023973
458,3718.2900000000004,4.110258991336229
459,3720.9500000000003,5.128320605648486
460,3723.6200000000003,6.898575504225073
461,3726.28,8.794528118537329
462,3728.94,9.138157732849585
463,3731.61,7.538743631426175
464,3734.27,5.783417245738431
465,3736.93,4.449828860050687
466,3739.6000000000004,4.150842758627276
467,3742.26,4.020732372939532
468,3744.92,4.161101987251788
469,3747.59,3.8806828858283766
470,3750.25,3.801775500140633
471,3752.92,3.7824563987172217
472,3755.58,4.088553013029478
473,3758.24,4.072966627341735
474,3760.9100000000003,4.129473525918323
475,3763.57,4.103921140230579
476,3766.23,3.9636477545428352
477,3768.9,4.042826653119424
478,3771.56,3.8566262674316802
479,3774.22,3.8623418817439368
480,3776.89,4.019498780320525
481,3779.5499999999997,4.255239394632781
482,3782.2099999999996,4.619772008945038
483,3784.88,4.621751907521626
484,3787.54,4.457637521833883
485,3790.2000000000003,4.283164136146139
486,3792.87,4.131144034722727
487,3795.5299999999997,3.9154336490349837
488,3798.2,3.6727355476115715
489,3800.8599999999997,3.7615091619238283
490,3801.8939600000003,3.880414800711201
491,3803.5200000000004,4.06767933035212
492,3806.19,4.239544843802768
493,3808.85,4.342636415255472
494,3811.51,4.611065986708177
495,3814.18,4.670359500158824
496,3816.84,4.635085071611529
497,3819.5,4.414735643064235
498,3822.1699999999996,4.439634156514882
499,3824.8300000000004,4.480382727967587
500,3827.4900000000002,4.199449299420291
501,3830.1600000000003,3.894847812870939
502,3832.82,3.743876384323644
503,3835.48,3.532905955776349
504,3838.15,3.538263469226996
505,3840.81,3.791252040679701
506,3843.47,4.109906612132406
507,3846.1400000000003,4.290566125583053
508,3848.8,4.610784697035758
509,3851.4700000000003,4.573143210486406
510,3854.13,4.502496781939111
511,3856.79,4.613601353391815
512,3859.46,4.593940866842463
513,3862.12,4.757617438295168
514,3864.7799999999997,4.804035009747873
515,3867.4500000000003,4.9553775231985195
516,3870.11,5.123745094651225
517,3872.77,4.77480066610393
518,3875.44,4.661722179554578
519,3878.1,4.651072751007282
520,3880.7599999999998,4.5163233224599875
521,3883.43,4.233805835910634
522,3886.0899999999997,4.15573040736334
523,3888.7500000000005,4.116742978816044
524,3891.42,4.1584494922666915
525,3894.08,4.330724063719396
526,3896.7400000000002,4.388085635172102
527,3899.41,4.549200148622749
528,3902.07,4.709945720075454
529,3904.74,4.859725233526101
530,3907.3999999999996,4.877022804978806
531,3910.0600000000004,5.0893633764315105
532,3912.73,5.075758889882158
533,3915.3900000000003,5.1092784613348625
534,3918.05,5.154133032787568
535,3920.72,5.162025546238215
536,3923.38,5.09235711769092
537,3926.04,5.039689689143625
538,3928.71,4.611572202594272
539,3931.3700000000003,4.298001774046977
540,3934.03,4.215432345499682
541,3936.7000000000003,4.400390858950329
542,3939.36,4.729794430403034
543,3942.02,4.8076770018557395
544,3944.69,4.802086515306387
545,3947.35,4.845767086759091
546,3950.02,4.801872600209739
547,3952.6800000000003,4.8758461716624435
548,3955.34,4.7782287431151484
549,3958.01,4.599094256565795
550,3960.67,4.258553828018501
551,3963.33,4.120480399471206
552,3966.0,3.954637912921853
553,3968.66,3.7286194843745584
554,3971.3199999999997,3.752364055827263
555,3973.9900000000002,3.8478155692779104
556,3976.65,4.009146140730615
557,3979.31,4.07940571218332
558,3981.98,4.417779225633968
559,3984.64,4.665101797086672
560,3987.2999999999997,4.722267368539377
561,3989.97,4.837649881990025
562,3992.6299999999997,4.913187453442729
563,3995.2900000000004,4.8812360248954345
564,3997.96,4.8189695383460815
565,4000.62,4.724088109798787
566,4003.29,4.780059623249434
567,4005.95,4.789540194702139
568,4008.61,4.952239766154843
569,4011.2799999999997,4.952512279605491
570,4013.9399999999996,4.884015851058196
571,4016.6000000000004,4.849132422510901
572,4019.27,4.915851935961548
573,4021.9300000000003,4.981617507414253
574,4024.59,4.9074520788669584
575,4027.2599999999998,4.9391895923176055
576,4029.92,4.9516021637703105
577,4032.58,5.093586735223015
578,4035.25,5.196069248673663
579,4037.9100000000003,5.216299820126368
580,4040.57,5.060052391579072
581,4043.2400000000002,4.97003490502972
582,4045.9,4.962513476482425
583,4048.56,5.03062304793513
584,4051.23,5.054738561385777
585,4053.89,5.119332132838482
586,4056.56,5.12624764628913
587,4059.2200000000003,5.042312217741834
588,4061.88,5.021305789194539
589,4064.55,5.140400302645186
590,4067.21,5.021481874097891
591,4069.87,5.057541445550596
592,4072.54,5.041591959001243
593,4075.2,5.106771530453948
594,4077.8599999999997,4.990002101906653
595,4080.53,4.899202615357301
596,4083.19,4.923731186810006
597,4085.85,4.822987758262711
598,4088.52,4.855115271713358
599,4091.18,4.792872843166062
600,4093.84,4.425165414618768
