,lambda (Angstroms),Total Flux (erg/s/cm^2/Angstrom)
0,102.05000000000001,1.9981647761722843
1,103.95,1.9924696563546649
2,104.712855,1.9901830508945477
3,105.88,1.9718062700625336
4,108.10000000000001,1.93685221282639
5,110.11,1.9052046228176809
6,113.98,1.8442712019123977
7,117.97999999999999,1.7812909234622787
8,120.22644299999999,1.7459205619137395
9,121.01,1.7355771630069041
10,124.97,1.683302863113176
11,127.0,1.6565056858504834
12,127.88000000000001,1.6448891793461526
13,130.86,1.6055514571939917
14,132.07,1.589578777756912
15,133.91,1.565289723185893
16,137.03,1.524103970011857
17,138.038426,1.5107921764843597
18,139.9,1.4932272175510402
19,143.16,1.4624678021703912
20,146.83,1.4278404223657164
21,150.95000000000002,1.3889663531997012
22,155.17,1.3491488371228997
23,158.489319,1.317829745852839
24,159.14999999999998,1.3131169156034557
25,162.10999999999999,1.29200245234899
26,165.89,1.2650388900080107
27,170.14999999999998,1.234651329052145
28,172.91,1.2149638235860492
29,176.94000000000003,1.1862172205316077
30,179.81,1.1657452077873087
31,181.89000000000001,1.1509083733914685
32,181.970086,1.150337113458535
33,186.13000000000002,1.127699818665029
34,190.91,1.1016886222397824
35,194.01000000000002,1.0848195620111916
36,198.07000000000002,1.0627265854759402
37,202.22,1.0401441581044393
38,205.03,1.0248537250126522
39,208.929613,1.003633570985281
40,209.81,1.000031959173063
41,216.17999999999998,0.9739749956043294
42,220.20000000000002,0.9575308856700889
43,222.75,0.9471001366047873
44,226.89000000000001,0.9301656951520625
45,230.05,0.9172602388352966
46,233.79,0.9020090695641876
47,239.78,0.8775397146989888
48,239.88329199999998,0.877117200328082
49,245.93,0.8580583743318909
50,252.24,0.8381846225117762
51,256.93,0.8233790743177446
52,259.91,0.8140150664179122
53,264.13,0.8007275372684853
54,269.04,0.7852587333301709
55,274.04,0.7695057800237407
56,275.42287,0.7651488601196798
57,279.14,0.7561629293022227
58,283.67,0.7452144721525295
59,290.28000000000003,0.729222404949114
60,295.68,0.7161760256865659
61,301.18,0.7028747745098964
62,308.19,0.6859332634499961
63,316.227766,0.6665086001355501
64,318.29,0.6627878274381909
65,327.96,0.6453348803622554
66,337.92,0.6273558681186856
67,348.19000000000005,0.6088150461786793
68,357.12,0.5926950934684307
69,363.078055,0.5819401563729562
70,366.29,0.5775999089417962
71,374.82,0.5660715608791604
72,385.32,0.551864326954462
73,395.2,0.5385220683157934
74,405.34000000000003,0.5248165039313702
75,413.83000000000004,0.5133375352065427
76,416.86938299999997,0.5092271980707657
77,421.52000000000004,0.5044255272297908
78,430.34999999999997,0.49530758206108827
79,441.39,0.4839132714695279
80,450.63,0.4743706418689828
81,460.07,0.46462139211388054
82,469.7,0.45467724032694884
83,478.630092,0.4454570517523926
84,479.53000000000003,0.4447426885295521
85,489.58000000000004,0.43675634248787554
86,499.83,0.4286209053364145
87,505.61,0.42402760755363916
88,511.46999999999997,0.41940286566695023
89,519.7800000000001,0.4128029738103997
90,529.4399999999999,0.4051254328378032
91,540.53,0.3963050785452467
92,549.5408739999999,0.3891501753015846
93,550.58,0.3885209737920511
94,559.53,0.3831184479710655
95,569.9300000000001,0.37682938350813233
96,580.52,0.37040581870453043
97,589.96,0.3647009877997143
98,599.54,0.3588832502280894
99,610.6899999999999,0.3520832203572526
100,620.61,0.34615550902337794
101,630.7,0.3400420647583785
102,630.957344,0.3398865878356525
103,639.47,0.33581349518300224
104,649.86,0.33083340160279817
105,657.38,0.327218306663998
106,665.0,0.3235853479714904
107,674.25,0.3191599927035513
108,685.1999999999999,0.31387845092258565
109,694.7399999999999,0.30935852119889484
110,704.4,0.3046839351107553
111,715.8499999999999,0.2992705509612523
112,724.43596,0.295164427818041
113,725.8000000000001,0.29468108150670785
114,734.21,0.29170778414807286
115,744.42,0.2880929453611926
116,754.7800000000001,0.2844278271719586
117,765.28,0.28064918800719446
118,774.14,0.2775938518414982
119,784.9100000000001,0.2737667031524971
120,795.83,0.2699306880611424
121,805.0400000000001,0.26669330195662067
122,814.37,0.2634088557302159
123,825.69,0.2594350035659177
124,831.763771,0.25718449150102346
125,835.26,0.25620408677394785
126,844.93,0.2538313326664935
127,854.71,0.2512602831679512
128,864.61,0.24870135197004034
129,874.62,0.24610222838104148
130,884.75,0.24347824109267413
131,894.99,0.24081611941321887
132,905.36,0.23807936672611424
133,915.84,0.23565963464792167
134,924.31,0.2390602325341535
135,935.02,0.24378173636550443
136,945.84,0.2527919288057675
137,954.6,0.2603354667518585
138,954.992586,0.26044784242839003
139,965.65,0.26355987489721333
140,974.58,0.2281968197232492
141,985.8699999999999,0.2550185671796821
142,994.99,0.2536663778530804
143,1004.1999999999999,0.2661177312962821
144,1015.83,0.2608099092164161
145,1025.23,0.22978596850698021
146,1034.71,0.24349109025959167
147,1044.29,0.2719484550897623
148,1053.95,0.2689312223819803
149,1066.15,0.25353838784420174
150,1076.02,0.2608947615992941
151,1085.97,0.2464787978164337
152,1096.02,0.25945394711113257
153,1096.4782,0.2592442045728638
154,1106.16,0.25527028101648896
155,1113.83,0.2523299102049176
156,1124.14,0.24411909337736853
157,1134.54,0.2562600163447294
158,1145.04,0.24811931241754556
159,1155.6299999999999,0.24979646828527166
160,1166.32,0.2500133972584531
161,1174.41,0.22682049548979433
162,1185.28,0.24398829405279554
163,1196.24,0.22189190241070653
164,1204.54,0.2074373801635041
165,1215.68,0.1896421681112348
166,1224.1100000000001,0.21399780890112438
167,1235.43,0.23542873643867485
168,1244.0,0.24121908357620198
169,1255.51,0.23659404401411765
170,1258.92541,0.23225724675711715
171,1264.21,0.22587121274577238
172,1275.91,0.24228433664285098
173,1284.75,0.24512028869842145
174,1293.66,0.2278923582815813
175,1305.63,0.2253203854993617
176,1314.68,0.24056109013770027
177,1323.79,0.23607567551397257
178,1336.04,0.22608637284211044
179,1345.3000000000002,0.23748417006321704
180,1354.63,0.23380235481191305
181,1364.02,0.22445139029854283
182,1373.47,0.22656834652310628
183,1386.1799999999998,0.22592128617540277
184,1395.7900000000002,0.21233603103445614
185,1405.46,0.21315730663144336
186,1415.21,0.2168592465456755
187,1425.02,0.2166071771978414
188,1434.89,0.21573118858794105
189,1441.52,0.2187982401296189
190,1445.43977,0.21898138777019027
191,1448.17,0.2192345435206835
192,1454.8500000000001,0.21654581335899264
193,1464.94,0.2097717555848219
194,1475.09,0.20889793849782157
195,1485.32,0.20925743566038185
196,1495.61,0.20942269351011256
197,1505.98,0.20459206560940385
198,1512.93,0.19629128853997996
199,1516.42,0.20049298517706066
200,1523.42,0.19781235201361216
201,1533.98,0.18747781295560986
202,1544.61,0.1907290113659731
203,1555.32,0.18623652402589688
204,1566.1,0.1877245241541862
205,1573.33,0.19193441695822439
206,1584.23,0.1940724084608546
207,1595.22,0.19490275099424043
208,1606.27,0.19172906421479674
209,1613.69,0.19113567586154134
210,1624.87,0.18645557723763362
211,1636.14,0.18994728964448152
212,1643.6899999999998,0.19035797944676208
213,1655.08,0.18400653322795088
214,1659.58691,0.1860309562684012
215,1666.55,0.18938046531761082
216,1670.3999999999999,0.18082467049661521
217,1678.11,0.19018638619275122
218,1685.8500000000001,0.19238672790326908
219,1693.63,0.1869512909662961
220,1705.37,0.18344376792772762
221,1713.24,0.17972453903390018
222,1725.12,0.1784548807291137
223,1733.08,0.18299067987843182
224,1745.1,0.18048440630742724
225,1753.15,0.1845990734998909
226,1765.3,0.1773993593245411
227,1773.45,0.1787752398982776
228,1785.7500000000002,0.17947620579483703
229,1793.99,0.1839001144117191
230,1806.42,0.1823303497039332
231,1814.76,0.17630129170208814
232,1823.14,0.17710185505275217
233,1835.78,0.17353245244563928
234,1844.25,0.1667610638394489
235,1857.03,0.16692816596611793
236,1865.6000000000001,0.16895765074120037
237,1874.21,0.173094866868792
238,1882.8700000000001,0.16689935968702
239,1895.92,0.1638435159431257
240,1904.67,0.16702012680449926
241,1905.46072,0.16676998151723663
242,1913.4599999999998,0.16439855355847766
243,1926.72,0.16160138430948037
244,1935.6200000000001,0.16204977060540227
245,1944.55,0.16701208979895085
246,1953.53,0.16183063048854396
247,1967.07,0.16801972161739592
248,1976.15,0.169188455299078
249,1985.27,0.1651916061775957
250,1994.43,0.16289522425294903
251,2003.6399999999999,0.16398831382434687
252,2012.8899999999999,0.1618878605925803
253,2026.84,0.16292371798899719
254,2036.2,0.16041682204852853
255,2045.59,0.16291517900568656
256,2055.04,0.157247071758098
257,2064.52,0.15789070740813616
258,2074.05,0.1642670345542188
259,2078.83,0.16549420957607347
260,2083.62,0.16962011889713707
261,2093.2400000000002,0.1642808947360998
262,2102.9,0.16375406777189816
263,2112.61,0.16538207230374105
264,2127.25,0.1641476963455721
265,2137.07,0.15812822816871291
266,2146.94,0.16242177148789816
267,2156.85,0.1642870120039191
268,2166.8,0.15941683971677556
269,2176.8,0.15887137892567654
270,2186.85,0.16067822963062206
271,2187.7616199999998,0.1609270461284504
272,2196.95,0.16359709380564322
273,2207.0899999999997,0.16078459200241657
274,2217.27,0.15365962342679063
275,2227.51,0.1534860096925657
276,2232.64,0.16205561363235343
277,2242.95,0.1579408855464297
278,2253.3,0.15071865068810666
279,2263.7,0.15073573986428448
280,2274.15,0.15361625307496313
281,2284.65,0.15946517032014268
282,2295.19,0.1518037807929229
283,2305.79,0.15560891610710412
284,2316.43,0.15017628464888605
285,2327.12,0.1345541172251688
286,2332.4900000000002,0.1404947805305606
287,2343.25,0.1341126887551446
288,2354.07,0.1457422118211296
289,2364.94,0.13396882892161543
290,2375.85,0.13830425924970197
291,2386.82,0.12836066441918953
292,2392.32,0.13344454821428356
293,2403.36,0.13116449903207233
294,2414.46,0.1336418746912621
295,2425.6,0.14460834357805258
296,2436.8,0.14220338730624407
297,2442.4100000000003,0.14848251997724
298,2453.69,0.14868543016063285
299,2465.0099999999998,0.14472217357162642
300,2476.39,0.13972717182402097
301,2487.82,0.1335132641109164
302,2493.56,0.13099244727161452
303,2505.0699999999997,0.14609509601371135
304,2510.8399999999997,0.12659374159511
305,2511.88643,0.1263162564076267
306,2516.63,0.1251030319115764
307,2522.43,0.12412980540589999
308,2534.0699999999997,0.13018971207381838
309,2545.77,0.13038569826064353
310,2557.52,0.1451566390465577
311,2563.42,0.1369020417390593
312,2575.25,0.14485931188351583
313,2587.14,0.1411876615468792
314,2593.1,0.1376118837582876
315,2605.0699999999997,0.13249625278019334
316,2617.09,0.12941777640118807
317,2623.13,0.13813658797113884
318,2635.24,0.15532023587049376
319,2647.3999999999996,0.17375483836893774
320,2653.4999999999995,0.1934266394577953
321,2665.75,0.1626607662345994
322,2678.05,0.17145481761049253
323,2684.23,0.17906901805789252
324,2696.6200000000003,0.15996989371214582
325,2702.84,0.17157339383881698
326,2715.3100000000004,0.1534877688516127
327,2727.84,0.14614813338331523
328,2734.13,0.15686826794871098
329,2746.75,0.13013185675877367
330,2753.08,0.13996584100344062
331,2765.7900000000004,0.15154966409186352
332,2772.17,0.1570223629356195
333,2784.96,0.13490685538258476
334,2797.8199999999997,0.10886933226827467
335,2804.27,0.1142202355507552
336,2817.21,0.15030440179498747
337,2823.71,0.17205599967655705
338,2836.74,0.1671147701991495
339,2843.28,0.15173296775999023
340,2856.4,0.1308596825609429
341,2862.9900000000002,0.16946848472087264
342,2876.2,0.1865569038001855
343,2882.83,0.1787240256393864
344,2884.0315,0.179828680611994
345,2896.14,0.19105903966819393
346,2909.51,0.2225504970809853
347,2929.6699999999996,0.20713914333692202
348,2949.98,0.19969147550250113
349,2970.43,0.20550578785041315
350,2991.02,0.20694858038065803
351,3011.7500000000005,0.20956295309323583
352,3032.63,0.214206011715456
353,3046.63,0.21956282994874537
354,3067.75,0.22750962602639338
355,3089.0099999999998,0.22618780228637428
356,3110.42,0.24085166445599754
357,3131.9799999999996,0.23133411253526323
358,3146.4399999999996,0.23057549422478926
359,3168.2500000000005,0.24283698548679222
360,3190.21,0.2226938626584376
361,3212.32,0.23768002573972533
362,3227.1499999999996,0.2152217193397026
363,3249.52,0.26019053133103714
364,3272.05,0.2863247349593236
365,3287.1499999999996,0.28254468319665715
366,3309.93,0.2736878300076809
367,3311.31121,0.2728794019488455
368,3325.21,0.26482314020977715
369,3332.8799999999997,0.27714799587251676
370,3340.5600000000004,0.25326051392855853
371,3348.26,0.2953509567712046
372,3355.98,0.2852451244004549
373,3363.7200000000003,0.21750881681630949
374,3371.47,0.2382138716254662
375,3379.2400000000002,0.28657345122122724
376,3387.0299999999997,0.27511365560359247
377,3394.84,0.27333588477256204
378,3402.67,0.3129720387281359
379,3410.5099999999998,0.26764455507701185
380,3418.37,0.2570306962124921
381,3426.25,0.2794790621345766
382,3434.15,0.30609175284326534
383,3442.0699999999997,0.25560466833855844
384,3449.9999999999995,0.2707587462271537
385,3457.96,0.2817689112956553
386,3465.93,0.25931353875745905
387,3473.9199999999996,0.2979959910058671
388,3481.93,0.26750676804087936
389,3489.95,0.2899333074691938
390,3498.0,0.26724423407741466
391,3506.06,0.3092659230789377
392,3514.14,0.27406273686706495
393,3522.24,0.30394937544179645
394,3530.36,0.2629516388031323
395,3538.5,0.3074245269510724
396,3546.66,0.3149859398856168
397,3554.84,0.31419647760676545
398,3563.0299999999997,0.29706687772121626
399,3571.24,0.2570404026222713
400,3579.48,0.27407151470323277
401,3587.73,0.22778078917749636
402,3595.9999999999995,0.28693088843836423
403,3604.29,0.3152715124858364
404,3612.6000000000004,0.25634406131991283
405,3620.92,0.2853410725472914
406,3621.93,0.30257737427080733
407,3624.6699999999996,0.2819280700355931
408,3627.42,0.2721434281936809
409,3630.16,0.2968615239584667
410,3632.9,0.29310341972325243
411,3635.64,0.31052821548803816
412,3638.3900000000003,0.30960127364612605
413,3641.13,0.30391946941091175
414,3643.8700000000003,0.3158476651756975
415,3646.61,0.3286637609404832
416,3649.3599999999997,0.3451776190985711
417,3652.1,0.3482903148633568
418,3654.8399999999997,0.34926781062814255
419,3657.5800000000004,0.33037320639292833
420,3660.33,0.3295730645510162
421,3663.07,0.3231302603158019
422,3665.81,0.3253338560805876
423,3668.5499999999997,0.33271685184537336
424,3671.3,0.3078166100034613
425,3674.04,0.311415505768247
426,3676.78,0.3093275015330327
427,3679.52,0.3144061972978184
428,3682.2700000000004,0.31326795545590624
429,3685.01,0.326887351220692
430,3687.75,0.3341223469854777
431,3690.4900000000002,0.3320556427502635
432,3693.24,0.3256321009083514
433,3695.98,0.33212719667313706
434,3698.72,0.32993359243792286
435,3701.4599999999996,0.3125822882027086
436,3704.21,0.3263691463607964
437,3706.95,0.3391006421255822
438,3709.69,0.32646363789036786
439,3712.43,0.3371657336551536
440,3715.1800000000003,0.3736150918132415
441,3717.92,0.4273168875780272
442,3720.66,0.424552583342813
443,3723.4,0.3616646791075987
444,3726.1499999999996,0.3273357372656866
445,3728.8900000000003,0.2945095330304723
446,3731.63,0.306162928795258
447,3734.38,0.3047074869533459
448,3737.12,0.29365598271813165
449,3739.8599999999997,0.2729643784829174
450,3742.6,0.2903890742477031
451,3745.35,0.307199132405791
452,3748.09,0.3228902281705767
453,3750.83,0.32431162393536245
454,3753.57,0.3178265197001482
455,3756.32,0.32653957785823606
456,3759.0600000000004,0.32252797362302177
457,3761.8,0.3302491693878075
458,3764.54,0.35873046515259327
459,3767.29,0.3716081233106811
460,3770.0299999999997,0.39019551907546685
461,3772.7699999999995,0.40032691484025257
462,3775.51,0.39785851060503835
463,3778.2599999999998,0.3844161687631262
464,3781.0,0.35309116452791195
465,3783.74,0.3406655602926977
466,3786.48,0.3264429560574834
467,3789.23,0.3277992142155713
468,3791.9700000000003,0.333808109980357
469,3794.71,0.35609510574514275
470,3797.45,0.37491520150992846
471,3800.2000000000003,0.37912525966801636
472,3801.8939600000003,0.37442321975915316
473,3802.94,0.37152383018279017
474,3805.6800000000003,0.3504839612989653
475,3808.42,0.3380903924151404
476,3811.1699999999996,0.3290988258346592
477,3813.91,0.30939065695083434
478,3816.6499999999996,0.30084468806700954
479,3819.39,0.2840538191831846
480,3822.14,0.26330835260270347
481,3824.88,0.2578910837188786
482,3827.62,0.26486211483505373
483,3830.3599999999997,0.2778370459512288
484,3833.11,0.3105556793707477
485,3835.85,0.33543281048692275
486,3838.59,0.3361252416030979
487,3841.33,0.35527327271927306
488,3844.0800000000004,0.3506154061387919
489,3846.82,0.346889437254967
490,3849.5600000000004,0.3545159683711421
491,3852.3,0.35907709948731725
492,3855.0499999999997,0.3746506329068361
493,3857.79,0.3711361640230112
494,3860.5299999999997,0.37020079513918636
495,3863.27,0.37032242625536144
496,3866.02,0.35274765967488025
497,3868.7599999999998,0.35170659079105543
498,3871.5,0.34297032190723054
499,3874.24,0.32975235302340566
500,3876.9900000000002,0.32454488644292445
501,3879.73,0.3387460175590996
502,3882.4700000000003,0.3490362486752747
503,3885.21,0.3626666797914499
504,3887.9599999999996,0.3754708132109687
505,3890.7000000000003,0.3980647443271438
506,3893.44,0.39712947544331895
507,3896.1800000000003,0.4145441065594941
508,3898.93,0.4221474399790129
509,3901.67,0.42869587109518803
510,3904.41,0.43412380221136315
511,3907.1499999999996,0.4204197333275383
512,3909.9,0.4130978667470571
513,3912.64,0.37571639786323224
514,3915.38,0.34793262897940735
515,3918.12,0.31365856009558246
516,3920.8700000000003,0.26029329351510133
517,3923.61,0.24094442463127644
518,3926.35,0.23914635574745158
519,3929.1,0.2832133891669704
520,3931.8399999999997,0.3198444202831455
521,3934.58,0.35376965139932065
522,3937.32,0.3889845825154958
523,3940.07,0.4071793159350146
524,3942.81,0.41535554705118977
525,3945.5499999999997,0.39911457816736484
526,3948.29,0.38270440928354
527,3951.04,0.3465048427030588
528,3953.78,0.30373257381923396
529,3956.52,0.26057960493540905
530,3959.26,0.2425625360515842
531,3962.01,0.256107069471103
532,3964.75,0.30950250058727813
533,3967.4900000000002,0.36234833170345326
534,3970.23,0.41210796281962836
535,3972.98,0.44569289623914726
536,3975.72,0.4655175273553223
537,3978.4599999999996,0.47128375847149745
538,3981.2,0.48785288958767264
539,3983.95,0.4894732230071914
540,3986.69,0.4914977541233666
541,3989.43,0.5046842852395417
542,3992.17,0.5111060163557167
543,3994.92,0.5052425497752356
544,3997.6600000000003,0.5076475808914107
545,4000.4,0.5174517120075859
546,4003.14,0.533323243123761
547,4005.89,0.5411798765432799
548,4008.63,0.539843107659455
549,4011.3700000000003,0.52840103877563
550,4014.11,0.5420527698918053
551,4016.8599999999997,0.536020103311324
552,4019.6,0.5219779344274992
553,4022.3399999999997,0.5142776655436743
554,4025.08,0.5140824966598494
555,4027.83,0.5319385300793683
556,4030.57,0.5305383611955433
557,4033.31,0.5175741923117185
558,4036.0499999999997,0.5218396234278936
559,4038.8,0.5261869568474125
560,4041.54,0.5261396879635876
561,4044.28,0.5256907190797627
562,4047.02,0.5054754501959379
563,4049.77,0.5081950836154566
564,4052.5099999999998,0.5138345147316318
565,4055.2500000000005,0.5195585458478069
566,4057.9900000000002,0.5219635769639821
567,4060.74,0.5155504103835009
568,4063.48,0.523325141499676
569,4066.22,0.5119888726158511
570,4068.9599999999996,0.5194887037320263
571,4071.71,0.536541437151545
572,4074.45,0.5589031682677201
573,4077.19,0.5572279993838953
574,4079.93,0.5490840305000705
575,4082.6800000000003,0.5315720639195893
576,4085.42,0.5123714950357644
577,4088.1600000000003,0.48469362615193956
578,4090.9,0.4627023572681147
579,4093.6499999999996,0.46529539068763354
580,4096.389999999999,0.4865786218038086
581,4099.13,0.49642515291998374
582,4101.87,0.5300967840361588
583,4104.62,0.5310618174556777
584,4107.36,0.5433183485718528
585,4110.099999999999,0.534096079688028
586,4112.84,0.537346710804203
587,4115.59,0.5342314442237219
588,4118.33,0.5339938753398971
