,lambda (Angstroms),Total Flux (erg/s/cm^2/Angstrom)
0,101.98,1.1729377426222865
1,104.11,1.169190369021198
2,104.712855,1.168129747935622
3,106.05,1.155772515799841
4,108.02000000000001,1.1375667510492196
5,110.03,1.1189913261006632
6,113.9,1.0832267019460278
7,117.9,1.0462606821481153
8,120.22644299999999,1.024760847650874
9,120.92,1.0193871460293096
10,124.88000000000001,0.9887049404974532
11,126.91,0.97297643614692
12,128.09,0.9638337587413534
13,131.07,0.940744624277263
14,131.98,0.9336939154331201
15,134.12,0.9171131275976987
16,136.93,0.8953411585303936
17,138.038426,0.8867530387486028
18,140.12,0.8752249355975688
19,143.06,0.8589427265081685
20,147.06,0.8367900612214071
21,150.84,0.8158557924345707
22,155.06,0.792484730499206
23,158.489319,0.7734925915364587
24,159.04000000000002,0.771186914823301
25,162.0,0.7587935272899906
26,166.15,0.7414176631137473
27,170.02,0.7252141465365908
28,173.18,0.71198336822279
29,176.80999999999997,0.6967847212290619
30,180.10000000000002,0.6830096389723589
31,181.970086,0.6751796729757586
32,182.18,0.6745091558342136
33,185.99999999999997,0.6623071329922572
34,191.20999999999998,0.6456651073856863
35,193.87,0.637168411574791
36,197.93,0.6241997705357415
37,202.07,0.6109755902950602
38,204.88,0.6019997583797284
39,208.929613,0.5890642967720043
40,210.14000000000001,0.5861575766183947
41,216.03,0.5720128634978795
42,220.04,0.5623829320782932
43,223.1,0.5550344057544176
44,227.25,0.5450682690299228
45,229.88000000000002,0.5387524099954993
46,234.16,0.5284741491760323
47,239.88329199999998,0.514729846620964
48,240.16,0.5142177736956931
49,245.76000000000002,0.5038544313581719
50,252.06,0.4921957033370731
51,256.75,0.48351636533863285
52,259.71999999999997,0.47802015529710057
53,263.94,0.47021067562164387
54,268.84999999999997,0.46112427762310493
55,273.85,0.45187132748140724
56,275.42287,0.44896059137215377
57,278.94,0.44396541725727795
58,284.12,0.4366085709505347
59,290.07,0.4281581145017662
60,296.15,0.4195230803389336
61,300.96000000000004,0.41269172858166475
62,307.97,0.40273589001896654
63,316.227766,0.39100795238424824
64,318.06,0.389064377907264
65,327.72,0.37881737050715386
66,337.68,0.36825213626009007
67,347.94,0.35736868280007256
68,356.87000000000006,0.34789608040781644
69,363.078055,0.34131083522219663
70,366.02000000000004,0.33897379181909437
71,375.40999999999997,0.33151446484855696
72,385.03999999999996,0.32386443199118786
73,394.92,0.31601601536428586
74,405.05,0.3079689363718509
75,413.53000000000003,0.30123259209113346
76,416.86938299999997,0.2985798230538491
77,422.19,0.29535213723502846
78,430.04,0.2905900857377338
79,441.07,0.2838990069577249
80,451.34000000000003,0.27766889376564763
81,459.73,0.27257928673240156
82,470.44,0.26608228873236395
83,478.630092,0.26111400631617715
84,480.29,0.2603395989287202
85,490.35,0.25564609564570456
86,499.46999999999997,0.25139137576454934
87,506.42,0.24814897002111405
88,512.28,0.2454166581408148
89,519.41,0.2420904394834488
90,530.28,0.23701930198774504
91,540.14,0.23241904709576358
92,549.5408739999999,0.22803440459608235
93,550.18,0.2278070309345587
94,560.41,0.2241675925242147
95,569.52,0.22092664480054572
96,580.11,0.21715762256555618
97,589.53,0.2138072874106647
98,600.49,0.20990727390034505
99,610.25,0.2064350881221772
100,620.16,0.20291192047374038
101,630.24,0.19932639292366536
102,630.957344,0.19907116586047519
103,640.4799999999999,0.19638554584560544
104,649.39,0.1938752977272186
105,658.43,0.19132705246351303
106,664.52,0.1896112822497335
107,675.3199999999999,0.1865657609801737
108,684.71,0.18391710770291753
109,694.24,0.18123864524224118
110,705.52,0.17805548981381206
111,715.33,0.17529796409629522
112,724.43596,0.172732401514909
113,725.28,0.1725559718676419
114,735.37,0.17044675173954055
115,745.6,0.1683140057033189
116,754.24,0.16651153985360673
117,764.73,0.16432092965801873
118,775.37,0.16210365170087324
119,784.34,0.1602353481277346
120,795.26,0.15795617863434844
121,804.46,0.15603782337215494
122,815.66,0.15369985492252808
123,825.1,0.15173942269784257
124,831.763771,0.15032870395935605
125,834.65,0.1498703448741636
126,844.3199999999999,0.14839429232227688
127,854.1,0.14687259634860045
128,865.9799999999999,0.14503033549530014
129,876.01,0.14347940598119224
130,884.11,0.14223529073121477
131,894.35,0.1406507897391445
132,904.7099999999999,0.13903558665966714
133,915.1800000000001,0.13755480875839998
134,925.78,0.1385149249041085
135,934.34,0.14109250473573726
136,945.1600000000001,0.14632993473786612
137,953.9100000000001,0.151288724822767
138,954.992586,0.1514500610805412
139,964.9499999999999,0.15296767386169774
140,973.88,0.1318908197890303
141,985.1600000000001,0.1477461809077662
142,994.28,0.14788440662078672
143,1005.79,0.15691099453272384
144,1015.1,0.15448825703143226
145,1024.49,0.1340815355451672
146,1033.97,0.14250421832580693
147,1045.94,0.16350995582414637
148,1055.6200000000001,0.16213453364235236
149,1065.3899999999999,0.15164445572746318
150,1075.24,0.15806727382760044
151,1085.19,0.14767041444652085
152,1095.23,0.1587179693323461
153,1096.4782,0.1583885525379114
154,1105.37,0.15628874714889907
155,1115.6000000000001,0.1539094412829274
156,1125.92,0.1486704083272259
157,1133.72,0.15987229388396312
158,1144.21,0.15415630086988275
159,1154.8,0.15684793664499136
160,1165.49,0.1582284612092889
161,1176.27,0.14013040868385646
162,1184.42,0.15545801000275494
163,1195.38,0.1365276232978626
164,1203.67,0.12467849692162564
165,1214.81,0.11286955603727339
166,1226.05,0.1329564339421101
167,1234.55,0.15411918102316988
168,1245.97,0.16012154474854662
169,1254.6,0.15682800825555204
170,1258.92541,0.15294284579676115
171,1266.21,0.14666199649684403
172,1274.99,0.16412976758361605
173,1283.83,0.1678875844181337
174,1295.7099999999998,0.15085672247176146
175,1304.69,0.14990370271768547
176,1313.7299999999998,0.1663403087113551
177,1325.89,0.1624604635877956
178,1335.08,0.15347357895082925
179,1344.33,0.16689518006160842
180,1353.65,0.16430465287809082
181,1366.1799999999998,0.15509456819896253
182,1375.6499999999999,0.15892871038480888
183,1385.18,0.15995216831840087
184,1394.78,0.149628697957696
185,1404.4499999999998,0.15255600930269442
186,1414.1899999999998,0.15364968235339593
187,1423.99,0.15553759115184307
188,1433.8600000000001,0.1548499716559934
189,1440.48,0.15929152582392403
190,1445.43977,0.16019996329494285
191,1447.13,0.16055518240930383
192,1453.8100000000002,0.15832613573906568
193,1463.8799999999999,0.1519136554742008
194,1474.03,0.15165538279412344
195,1484.25,0.1530998017507352
196,1494.54,0.15459644234403608
197,1504.9,0.15029055457402607
198,1511.8400000000001,0.14129662255434755
199,1515.33,0.14667463844070522
200,1525.83,0.14404826394407347
201,1536.41,0.1342432270322293
202,1543.4999999999998,0.14154271423402748
203,1554.2,0.13714591869936466
204,1564.97,0.13798045480139093
205,1575.82,0.1427193884882048
206,1586.74,0.14651054381170778
207,1594.07,0.14858048376786864
208,1605.12,0.14671697641665143
209,1616.24,0.14680139070212334
210,1623.6999999999998,0.14231499798356403
211,1634.96,0.14741693554241417
212,1646.29,0.14853664473795344
213,1653.89,0.14174994529277235
214,1659.58691,0.1455569178018134
215,1665.36,0.1495227405046758
216,1673.0400000000002,0.13986204596670954
217,1676.9,0.15007423454528382
218,1684.64,0.1542917275499897
219,1696.3200000000002,0.14837808252349943
220,1704.15,0.14494633184221356
221,1715.96,0.14065980482484625
222,1723.88,0.1405075204575686
223,1735.83,0.14602652437310293
224,1743.8400000000001,0.14402417631983347
225,1755.93,0.15007168116826947
226,1764.03,0.1419199494290082
227,1776.26,0.14446848521034586
228,1784.46,0.1462272427088715
229,1796.8300000000002,0.15232481942311082
230,1805.1200000000001,0.15173467323564466
231,1813.46,0.14452951166707198
232,1826.03,0.1463546868568851
233,1834.45,0.14276584867854192
234,1842.92,0.13549944511909218
235,1855.7,0.13591963170825777
236,1864.26,0.13855921446281627
237,1872.8700000000001,0.1456268018362682
238,1885.8500000000001,0.1382271669010076
239,1894.5500000000002,0.13481933058846773
240,1903.3,0.1397559188948213
241,1905.46072,0.13921904574066607
242,1916.4900000000002,0.13660740461572896
243,1925.3400000000001,0.13510082191822356
244,1934.22,0.13727534833021815
245,1943.1499999999999,0.14189161325804603
246,1956.6200000000001,0.1361482734235378
247,1965.6499999999999,0.1445110153830323
248,1974.73,0.14721276585836007
249,1983.8400000000001,0.14190725544318783
250,1993.0,0.1394262735438489
251,2006.81,0.14184584361700714
252,2016.0800000000002,0.1389020384525015
253,2025.3799999999999,0.1430488723974958
254,2034.7299999999998,0.13852110485832342
255,2044.1200000000001,0.1422266161318177
256,2053.56,0.13813940592114526
257,2063.04,0.13871028452313947
258,2072.56,0.14525250193780032
259,2077.34,0.14116247005146404
260,2086.93,0.14455593538829156
261,2096.56,0.13919271953778567
262,2106.2400000000002,0.14000709220311308
263,2115.96,0.14106407368110715
264,2125.7200000000003,0.14237670397176785
265,2135.54,0.13551347248142853
266,2145.39,0.1383022001005892
267,2155.3,0.14165746593874978
268,2165.24,0.1383474208864104
269,2175.24,0.13756814405307094
270,2185.28,0.13657321603239814
271,2187.7616199999998,0.13768242405015815
272,2195.37,0.141161959696566
273,2205.5,0.13838030627333142
274,2215.68,0.13367405936824472
275,2225.9100000000003,0.13106986898130593
276,2236.1800000000003,0.13771492180888548
277,2246.5,0.13344387115461293
278,2256.87,0.12975333701848826
279,2267.29,0.13168014940051154
280,2272.52,0.1344346571987823
281,2283.01,0.13715843270621264
282,2293.54,0.13174394142816126
283,2304.13,0.1323607199718874
284,2314.77,0.12820676503376144
285,2325.45,0.1098870533101538
286,2336.18,0.12194515810469406
287,2346.97,0.11875309272101178
288,2352.38,0.12601715998461505
289,2363.23,0.11855395442271027
290,2374.14,0.12141434868258298
291,2385.1,0.1148229294606036
292,2396.11,0.12008438675677212
293,2407.17,0.11671971057108854
294,2412.72,0.11869637408550593
295,2423.86,0.12425977432885899
296,2435.04,0.1207195677867304
297,2446.28,0.12560102106637927
298,2457.58,0.12426483416780565
299,2463.24,0.12371220402214841
300,2474.6099999999997,0.12035527024898185
301,2486.0299999999997,0.12211490299396319
302,2497.51,0.11740768556072201
303,2503.2700000000004,0.1267749884513606
304,2511.88643,0.11903567051110497
305,2514.8199999999997,0.11641692894648517
306,2520.62,0.11807290378164015
307,2526.4300000000003,0.11484718715961434
308,2532.25,0.1160868790804078
309,2543.94,0.11509282563609083
310,2555.6800000000003,0.12126408490587001
311,2567.4799999999996,0.11878845543256464
312,2573.4,0.1240810727815504
313,2585.2799999999997,0.12300054165079886
314,2597.2099999999996,0.1217178232341435
315,2603.2,0.11850994038286389
316,2615.21,0.11727518030876237
317,2627.28,0.12135084149157625
318,2633.34,0.12487739844003128
319,2645.49,0.13307643796539903
320,2657.7099999999996,0.1357261372905014
321,2663.83,0.1258297554958718
322,2676.13,0.13013083316352803
323,2682.3,0.13071121408299463
324,2694.68,0.12545612009320473
325,2707.12,0.12837294736033023
326,2713.36,0.12312011807953144
327,2725.88,0.12244566368921078
328,2732.1600000000003,0.12743441857968893
329,2744.78,0.1144189496175606
330,2757.4500000000003,0.11658902336952846
331,2763.8,0.12043084805974123
332,2776.56,0.12454371869708217
333,2782.96,0.1185868761013911
334,2795.7999999999997,0.10131868508128591
335,2802.25,0.106484595199691
336,2815.18,0.1233512910649589
337,2828.1800000000003,0.1285711767299614
338,2834.7,0.12521636664810115
339,2847.7799999999997,0.12206125065565755
340,2854.35,0.11785081328789343
341,2867.52,0.12780430418082292
342,2874.1299999999997,0.12861438098433575
343,2884.0315,0.12807076574308385
344,2887.4,0.12790180397452483
345,2894.06,0.1280342616221585
346,2907.4100000000003,0.13692323483475755
347,2927.5699999999997,0.13259605528164864
348,2947.86,0.1308233933703104
349,2968.29,0.13272923507318665
350,2988.8700000000003,0.13316826636272133
351,3009.5899999999997,0.13461870126647055
352,3030.4500000000003,0.13481133978443427
353,3051.45,0.1350030819166125
354,3072.61,0.13571299960789307
355,3086.79,0.1365303085333353
356,3108.18,0.13698820359082545
357,3129.73,0.1353672742074179
358,3151.4199999999996,0.13581474843822486
359,3173.2700000000004,0.1365233982281341
360,3187.92,0.13093284785843942
361,3210.0099999999998,0.13492396098700216
362,3232.27,0.12952413564711107
363,3247.1800000000003,0.13725032056095765
364,3269.69,0.14178494453216395
365,3292.3599999999997,0.14087994406247256
366,3307.55,0.14037433620474815
367,3311.31121,0.14038433159491018
368,3322.82,0.1404531942138324
369,3330.48,0.14314152616716191
370,3338.16,0.1375517965851215
371,3345.8500000000004,0.14155928623539618
372,3353.57,0.13629493358261602
373,3361.2999999999997,0.1383507001621509
374,3369.05,0.13744760520631585
375,3376.81,0.13057332948279587
376,3384.6,0.13355841145622108
377,3392.3999999999996,0.1423909126619613
378,3400.22,0.1477436523323316
379,3408.06,0.13860503046733208
380,3415.91,0.14043072783464755
381,3423.79,0.14745638289890822
382,3431.68,0.14648335719548392
383,3439.59,0.14551636995668968
384,3447.52,0.1330716211825256
385,3455.47,0.1391246108729916
386,3463.4300000000003,0.13236661979577266
387,3471.42,0.14059278641549888
388,3479.4199999999996,0.13140407226754014
389,3487.44,0.1376515965842115
390,3495.4800000000005,0.13673905936551298
391,3503.54,0.14244466061144453
392,3511.62,0.14010130032200624
393,3519.7099999999996,0.14056395926488296
394,3527.8199999999997,0.13395055667238978
395,3535.96,0.14148101177684178
396,3544.1099999999997,0.1462621861136088
397,3552.2799999999997,0.14762689891500597
398,3560.47,0.1454770501810332
399,3568.6800000000003,0.13666853991169053
400,3576.9,0.13310264887466294
401,3585.1499999999996,0.1276199155345805
402,3593.4100000000003,0.1331710014268131
403,3601.7,0.14554704501599086
404,3609.33,0.0683922392723752
405,3612.07,0.10364011892669935
406,3614.8,0.10799988934870842
407,3617.5299999999997,0.1404756897707175
408,3620.27,0.12408635942504163
409,3623.0,0.14577130984705072
410,3625.7400000000002,0.14679037950137486
411,3628.47,0.14683802992338393
412,3631.2100000000005,0.12653239957770807
413,3633.94,0.13520434999971714
414,3636.67,0.16227780042172624
415,3639.4100000000003,0.15695707007605034
416,3642.14,0.15833102049805944
417,3644.8799999999997,0.15541289015238358
418,3647.61,0.14350314057439267
419,3650.35,0.13253701022871678
420,3653.0800000000004,0.16258936065072588
421,3655.81,0.17353211107273495
422,3658.5499999999997,0.15630938072705908
423,3661.28,0.15670433114906815
424,3664.02,0.1469117008033923
425,3666.7499999999995,0.11217029122540138
426,3669.48,0.15187470164741046
427,3672.22,0.1630110713017346
428,3674.9500000000003,0.14003272172374367
429,3677.69,0.1550020913780678
430,3680.4199999999996,0.1442728418000769
431,3683.16,0.150256811454401
432,3685.89,0.16412286187641012
433,3688.6200000000003,0.14681771229841917
434,3691.36,0.15255168195274332
435,3694.0899999999997,0.1418154323747524
436,3696.83,0.14877160202907652
437,3699.56,0.12513355245108562
438,3702.3,0.15026882210540973
439,3705.03,0.1453377725274188
440,3707.7599999999998,0.15455832294942792
441,3710.5,0.15057779260375204
442,3713.23,0.14570224302576112
443,3715.9700000000003,0.14233271268008524
444,3718.7,0.14781056310209434
445,3721.4399999999996,0.19827023275641847
446,3724.17,0.2859225831784275
447,3726.9,0.3604235336004366
448,3729.6400000000003,0.33538140325476073
449,3732.37,0.2993210536767698
450,3735.1099999999997,0.17681432333109398
451,3737.84,0.15212787375310305
452,3740.58,0.1607574434074272
453,3743.3100000000004,0.16639499382943626
454,3746.04,0.14743714425144536
455,3748.7799999999997,0.14681051390576946
456,3751.51,0.16043356432777858
457,3754.25,0.1558488339821027
458,3756.9799999999996,0.1518343844041118
459,3759.72,0.1759974540584359
460,3762.45,0.170066504480445
461,3765.1800000000003,0.15459455490245408
462,3767.92,0.1649392245567782
463,3770.6499999999996,0.17596537497878728
464,3773.39,0.17394284463311144
465,3776.12,0.1871354950551205
466,3778.86,0.19918126470944464
467,3781.59,0.2023122151314537
468,3784.3199999999997,0.20491536555346282
469,3787.06,0.20485793520778692
470,3789.79,0.19423298562979602
471,3792.53,0.17923225528412012
472,3795.2599999999998,0.16051060570612924
473,3798.0000000000005,0.15687027536045334
474,3800.73,0.17738172578246245
475,3801.8939600000003,0.17502764883931224
476,3803.46,0.17186404465859564
477,3806.2000000000003,0.18876333277241006
478,3808.93,0.22865477822887478
479,3811.6699999999996,0.2199724663426892
480,3814.4,0.2159089117991539
481,3817.13,0.1928259572556186
482,3819.8700000000003,0.190865345369433
483,3822.6,0.19513459082589774
484,3825.3399999999997,0.19136857893971213
485,3828.07,0.17812512439617684
486,3830.81,0.15777021250999124
487,3833.5399999999995,0.15504675796645595
488,3836.27,0.14376830342292068
489,3839.0099999999998,0.16170229153673504
490,3841.7400000000002,0.18909463699319978
491,3844.48,0.20443142510701418
492,3847.2099999999996,0.1968889705634789
493,3849.95,0.2086842586772933
494,3852.68,0.206051204133758
495,3855.4100000000003,0.1997100495902227
496,3858.15,0.2077626377040371
497,3860.8799999999997,0.20285188316050184
498,3863.62,0.21656377127431625
499,3866.35,0.22354111673078095
500,3869.09,0.23873880484459534
501,3871.82,0.21134375030106006
502,3874.5499999999997,0.18966349575752478
503,3877.29,0.1885014838713392
504,3880.02,0.17791062932780388
505,3882.76,0.2003858174416183
506,3885.49,0.188676962898083
507,3888.2299999999996,0.1819668510118974
508,3890.96,0.2039567964683621
509,3893.69,0.20303194192482682
510,3896.4300000000003,0.20166853003864124
511,3899.16,0.20465997549510595
512,3901.8999999999996,0.21877456360892036
513,3904.63,0.21021140906538505
514,3907.37,0.22255529717919945
515,3910.1000000000004,0.22742164263566417
516,3912.83,0.2153447880921289
517,3915.5699999999997,0.2080651762059433
518,3918.3,0.221660021662408
519,3921.04,0.2157831097762224
520,3923.77,0.21873985523268713
521,3926.5099999999998,0.19821824334650154
522,3929.24,0.1653928888029662
523,3931.9700000000003,0.16175283425943093
524,3934.71,0.14936962237324536
525,3937.44,0.17165816782971008
526,3940.18,0.19785525594352446
527,3942.91,0.20029810139998916
528,3945.65,0.19364348951380356
529,3948.38,0.21554323497026828
530,3951.1099999999997,0.21577798042673302
531,3953.85,0.20126976854054743
532,3956.58,0.20328211399701213
533,3959.32,0.2027312021108265
534,3962.0499999999997,0.18444644756729123
535,3964.7799999999997,0.15923159302375597
536,3967.52,0.15813228113757036
537,3970.25,0.16725512659403508
538,3972.9900000000002,0.16580161470784946
539,3975.72,0.1967631601643142
540,3978.4599999999996,0.2241406482781286
541,3981.19,0.20864049373459329
542,3983.92,0.22429073919105802
543,3986.6600000000003,0.2250035273048724
544,3989.39,0.23880677276133713
545,3992.1299999999997,0.24702586087515152
546,3994.86,0.22871350633161622
547,3997.6,0.23836999444543064
548,4000.3300000000004,0.24656253990189536
549,4003.06,0.2393117853583601
550,4005.7999999999997,0.24776707347217447
551,4008.53,0.2557929189286392
552,4011.27,0.2535336070424536
553,4014.0,0.2627539524989183
554,4016.74,0.26668864061273273
555,4019.47,0.2645416860691974
556,4022.2000000000003,0.27146363152566216
557,4024.94,0.2509973196394765
558,4027.67,0.24643386509594126
559,4030.41,0.25209065320975566
560,4033.14,0.23345189866622035
561,4035.88,0.24909408678003475
562,4038.61,0.26113353223649943
563,4041.34,0.26629857769296417
564,4044.08,0.2571578658067786
565,4046.81,0.2526986112632433
566,4049.55,0.2442453993770577
567,4052.2799999999997,0.24293174483352242
568,4055.0199999999995,0.24473463294733683
569,4057.75,0.2415599784038015
570,4060.48,0.2511413238602663
571,4063.2200000000003,0.24288251197408064
572,4065.95,0.25457475743054536
573,4068.6899999999996,0.25124614554435976
574,4071.42,0.23945409100082446
575,4074.15,0.23036323645728918
576,4076.8900000000003,0.2343604245711036
577,4079.62,0.2305121700275683
