,lambda (Angstroms),Total Flux (erg/s/cm^2/Angstrom)
0,100.08,4.762506894950745
1,101.94,4.749257836757348
2,104.07,4.73408552796562
3,104.712855,4.729506375862465
4,106.00999999999999,4.680971274343752
5,107.98,4.607260048031567
6,109.98,4.532426319146172
7,114.11,4.377894667013946
8,118.11999999999999,4.227853043265468
9,120.22644299999999,4.149036655825347
10,120.87,4.128848232567565
11,125.12,3.995525315620115
12,126.86,3.9409413530864215
13,128.03,3.904238343725322
14,131.02,3.8104417629393015
15,131.92000000000002,3.782208742036894
16,134.07,3.7147630498554616
17,136.88,3.6266132148493027
18,138.038426,3.5902733016266235
19,140.06,3.5449439369773024
20,143.0,3.4790224775912506
21,147.0,3.389335550145833
22,151.12,3.296954521034593
23,155.0,3.209955209671998
24,158.489319,3.1317160881760766
25,158.97000000000003,3.123567728813151
26,161.92999999999998,3.073390760247811
27,166.08,3.0030416142508964
28,169.95,2.9374389669843537
29,173.11,2.883872016794462
30,177.14000000000001,2.8155573301562784
31,180.02,2.7667371513067573
32,181.970086,2.7336803329359856
33,182.11,2.731870936412735
34,185.92000000000002,2.682599580738507
35,191.13000000000002,2.615223190728001
36,193.79,2.5808244193560737
37,197.85,2.5283203181878675
38,201.99,2.474782083813588
39,204.8,2.438443719045273
40,208.929613,2.385038349258432
41,210.04999999999998,2.374145326887668
42,215.94,2.316884724973414
43,219.95000000000002,2.2778998537181407
44,223.01000000000002,2.2481500713906506
45,227.16,2.207804628769284
46,229.79,2.1822697928083685
47,234.06,2.140831455037492
48,239.88329199999998,2.0842603693417674
49,240.06,2.0829378452659664
50,246.22000000000003,2.0367817826270573
51,251.96,1.9937983851158014
52,257.23,1.9542809531950143
53,260.21,1.9319902615511917
54,263.83,1.9048861185033261
55,268.74,1.8681055518348124
56,273.73,1.8307251839657936
57,275.42287,1.8180435735846368
58,278.82,1.7985141361955967
59,284.01,1.768677901620242
60,289.95,1.734516065779663
61,296.02,1.6996262683131114
62,300.83,1.6719718023521373
63,307.84,1.6316752478131704
64,316.227766,1.5834598185086275
65,317.93,1.5761522762960136
66,328.34000000000003,1.5314549191898608
67,338.32,1.4886003679979865
68,347.8,1.4478916995808557
69,356.72,1.4095882963474375
70,363.078055,1.3822861319876567
71,365.87,1.3733082772057081
72,375.26,1.343110613107824
73,384.88,1.3121610392893313
74,394.75000000000006,1.280429900626699
75,404.88000000000005,1.2478522165581614
76,414.31,1.2175221874132147
77,416.86938299999997,1.2092897771478859
78,422.01000000000005,1.196662390541801
79,429.86,1.1773806601557295
80,440.89000000000004,1.1502899261826887
81,451.16,1.1250601506279174
82,459.54,1.1044756463106844
83,470.25,1.0781670501979677
84,478.630092,1.05758328178723
85,480.09000000000003,1.054825374041473
86,490.15000000000003,1.0358143773709343
87,500.41,1.016433185344321
88,506.21,1.0054726374181655
89,512.07,0.9944129726251875
90,520.39,0.9786928006924953
91,530.06,0.9604195375563016
92,539.92,0.9417827933418369
93,549.5408739999999,0.9236045347038432
94,549.95,0.9230147963686984
95,560.18,0.9082751054775645
96,570.59,0.8932742172129792
97,579.86,0.8799070592802506
98,590.65,0.86435761883838
99,600.24,0.850526860419516
100,610.0,0.836423545992393
101,619.91,0.8221804912873941
102,629.98,0.8076617190393275
103,630.957344,0.8062531895013159
104,640.2199999999999,0.7956705956897777
105,650.62,0.7837843571186873
106,658.15,0.7751760828705806
107,664.24,0.7682212754169325
108,675.04,0.7558798316084927
109,684.4300000000001,0.74514030249671
110,695.5500000000001,0.7324431106783905
111,705.22,0.7213823249204634
112,716.68,0.7082981727603967
113,724.43596,0.6994351506511038
114,726.65,0.6975569192911967
115,735.07,0.6904143135816235
116,745.29,0.6817445308441135
117,755.66,0.6729475666126085
118,764.41,0.665503555096247
119,775.0500000000001,0.6565008462955514
120,785.83,0.647353999773794
121,794.93,0.6396378890047781
122,804.13,0.6318354676064323
123,815.3199999999999,0.6223440003944226
124,824.76,0.6143403222456851
125,831.763771,0.6083814644117271
126,834.3100000000001,0.6067603729611938
127,845.92,0.5994212335025815
128,855.7099999999999,0.5932127720074208
129,865.62,0.5869319071465379
130,875.64,0.5805828018587432
131,885.7800000000001,0.5741576502052264
132,893.98,0.5689606987808834
133,904.33,0.562395772212353
134,914.8000000000001,0.5558455707781004
135,925.39,0.5500365593781258
136,933.96,0.5458595899178064
137,944.7700000000001,0.5410348813640079
138,954.992586,0.5362282879032094
139,955.71,0.5359007873219229
140,964.55,0.5311804916935914
141,975.72,0.518557577529738
142,984.7499999999999,0.5175619502397114
143,993.86,0.5122854061973923
144,1005.37,0.5080529065862953
145,1014.6700000000001,0.5019684658822813
146,1024.06,0.4911105717069381
147,1035.92,0.4861423849295611
148,1045.51,0.4859322423734864
149,1055.18,0.4797145400651191
150,1064.94,0.4711522762854227
151,1074.8,0.4668300073153605
152,1084.74,0.4582673585930057
153,1094.78,0.45501953268028517
154,1096.4782,0.4538906703432276
155,1104.91,0.44923348966139637
156,1115.13,0.4435858741921917
157,1125.45,0.43723389305499105
158,1135.87,0.43463192324979427
159,1143.74,0.4294914094784987
160,1154.3200000000002,0.42486965800450804
161,1165.0,0.4198123898625213
162,1175.78,0.4105012150525384
163,1183.93,0.4098347666108537
164,1194.8899999999999,0.40046970679847776
165,1205.94,0.3925522679849052
166,1214.3,0.3863728835404287
167,1225.54,0.38483136705766363
168,1234.03,0.38476131594479207
169,1245.45,0.38025167045963393
170,1254.08,0.3752237240115679
171,1258.92541,0.37197523713080094
172,1265.6899999999998,0.3684262807048046
173,1274.46,0.3686634600160319
174,1286.25,0.36511657451767043
175,1295.1699999999998,0.3586069770668322
176,1304.15,0.3551645509111674
177,1316.2099999999998,0.35392413124108785
178,1325.3400000000001,0.3499468283233575
179,1334.53,0.3449249967008009
180,1343.78,0.34408199637341813
181,1356.2099999999998,0.33910518469024326
182,1365.61,0.33408612760079476
183,1375.08,0.33136383202238223
184,1384.61,0.3280405877391435
185,1394.2099999999998,0.32278437496694085
186,1403.8700000000001,0.31973912348991174
187,1413.6000000000001,0.31647830352391876
188,1423.3999999999999,0.31331746506896196
189,1436.5700000000002,0.3084302693595962
190,1443.2,0.3068003924762938
191,1445.43977,0.3061618306070042
192,1446.53,0.3059701808961889
193,1456.5600000000002,0.30299085887305877
194,1466.6499999999999,0.29936110693752727
195,1473.42,0.29759319348821606
196,1483.6299999999999,0.29527429172788133
197,1493.92,0.292910666751011
198,1504.27,0.2895713718617393
199,1511.22,0.28643674867522345
200,1518.19,0.28547772218457373
201,1525.1999999999998,0.2833113590856564
202,1535.77,0.2791445448509121
203,1546.42,0.2774931833996324
204,1553.56,0.275062203823845
205,1564.32,0.2725087061998291
206,1575.1699999999998,0.2704804587072109
207,1586.09,0.26829502465012406
208,1593.41,0.2666882653371318
209,1604.45,0.2636561114552419
210,1615.5700000000002,0.26087316435681657
211,1626.77,0.25736716404185583
212,1634.28,0.256199698339592
213,1645.6100000000001,0.25352694154776106
214,1653.21,0.2506361459768948
215,1659.58691,0.24962652428163026
216,1664.66,0.24920737462933504
217,1672.35,0.24644418091971568
218,1676.1999999999998,0.24722073425105057
219,1683.9399999999998,0.24641884240287704
220,1695.61,0.24351181686435192
221,1703.44,0.24164757836678102
222,1715.25,0.23897535804030437
223,1723.17,0.23752453289333614
224,1735.11,0.2361480474066189
225,1743.12,0.2344454756102533
226,1755.2,0.2331027453355846
227,1763.3,0.23057143688982162
228,1775.53,0.22873560219949063
229,1783.72,0.22749322710433031
230,1796.09,0.22614422762604786
231,1804.3799999999999,0.22450971625377938
232,1816.8799999999999,0.2213672816152563
233,1825.27,0.22011429396587953
234,1833.69,0.2181399574333704
235,1846.4,0.2149596296129201
236,1854.9299999999998,0.21354212317559196
237,1863.4899999999998,0.21237851685513137
238,1876.41,0.21093520785275388
239,1885.0700000000002,0.20853587025518505
240,1893.77,0.20662263914677298
241,1905.46072,0.20503608807705676
242,1906.9,0.20490881422954635
243,1915.6999999999998,0.2034113487368382
244,1924.54,0.20205701699189046
245,1933.42,0.2010433059947031
246,1946.82,0.19995162649444298
247,1955.81,0.1981396915535968
248,1964.84,0.197965919360511
249,1973.91,0.19702084991518565
250,1983.02,0.19530645321762075
251,1996.77,0.19323002526026425
252,2005.98,0.19227966043210035
253,2015.24,0.19071499153863697
254,2024.54,0.18987278539293403
255,2033.8899999999999,0.18827258518193163
256,2043.2800000000002,0.18754164771868956
257,2052.71,0.185808243003208
258,2066.94,0.1839866080189765
259,2071.7,0.1841336050024662
260,2076.48,0.1838770483598361
261,2086.06,0.18345406144845605
262,2095.69,0.18146525047177653
263,2105.36,0.18015798224285742
264,2115.08,0.1792462299486389
265,2124.84,0.17787224040218072
266,2134.65,0.17574247679042312
267,2144.5,0.17529605592642591
268,2154.4,0.1743395209971292
269,2164.35,0.17240308200253307
270,2174.3399999999997,0.17105488575569736
271,2184.37,0.170233412256622
272,2187.7616199999998,0.16991412119099317
273,2194.46,0.16956449545735572
274,2204.5899999999997,0.1683443427708657
275,2214.76,0.166337320656196
276,2224.98,0.16553978175630182
277,2235.25,0.16612662607118306
278,2245.57,0.1646405536008398
279,2255.94,0.162552814345272
280,2266.35,0.16163943566152458
281,2276.81,0.1612188901925526
282,2287.3199999999997,0.16150201793835614
283,2292.5899999999997,0.15988546077569055
284,2303.17,0.15966240702217965
285,2313.81,0.1577321391263994
286,2324.49,0.15450820980243954
287,2335.21,0.15438186805029996
288,2345.9900000000002,0.152511271155891
289,2356.82,0.15348768647625752
290,2367.7000000000003,0.15070964001139947
291,2373.16,0.15094040006488071
292,2384.11,0.1486198211007083
293,2395.12,0.1484244259942665
294,2406.17,0.14715547845964508
295,2417.28,0.1466465367827542
296,2422.85,0.1480293779087414
297,2434.04,0.1468204253754913
298,2445.27,0.14696503341406156
299,2456.56,0.14617963731036238
300,2462.22,0.14486724322294545
301,2473.59,0.143153458262887
302,2485.0,0.14094730787464893
303,2496.4700000000003,0.14003775934414145
304,2502.2299999999996,0.14181291768627546
305,2511.88643,0.1383304492013791
306,2513.7799999999997,0.13768990729738517
307,2519.5699999999997,0.13712021085076298
308,2525.3799999999997,0.13658976699327166
309,2537.04,0.13699211845655065
310,2542.89,0.136690247777321
311,2554.6200000000003,0.13908137730255793
312,2566.4199999999996,0.13653922488975284
313,2572.33,0.1377665649779157
314,2584.21,0.13624650292163393
315,2596.1299999999997,0.13484335604361386
316,2602.12,0.13361155448830006
317,2614.13,0.13236988726136875
318,2626.2000000000003,0.13312965380182998
319,2632.25,0.1366863620139087
320,2644.4,0.13949956991089327
321,2656.6,0.14371517928070496
322,2662.73,0.13621660784930703
323,2675.02,0.13724243387020746
324,2687.37,0.13837326765850042
325,2693.56,0.133862303994495
326,2706.0,0.13573050443387674
327,2712.23,0.13143607594813303
328,2724.75,0.1286725267440381
329,2737.33,0.1301503553073357
330,2743.64,0.12488584717811535
331,2756.2999999999997,0.12599359609793634
332,2762.6600000000003,0.128013609441543
333,2775.41,0.12804463501245278
334,2781.81,0.12339537353432119
335,2794.65,0.11841029775631967
336,2807.5499999999997,0.11843613974571071
337,2814.02,0.12426102832953706
338,2827.0099999999998,0.12795042497001685
339,2833.52,0.12666108273210486
340,2846.6000000000004,0.1222292760236734
341,2853.17,0.11790544155315398
342,2866.3300000000004,0.12493459520124586
343,2872.94,0.12913320590898814
344,2884.0315,0.12684753432599677
345,2886.2,0.12644230471991935
346,2892.8599999999997,0.12973516045200026
347,2912.9100000000003,0.13616420593671827
348,2933.1000000000004,0.13154579799838692
349,2946.64,0.12910769265489977
350,2967.0600000000004,0.12944735623584447
351,2987.63,0.12884241472066493
352,3008.3399999999997,0.12823505978243604
353,3029.19,0.12878702142115775
354,3050.19,0.1288296979637552
355,3071.33,0.13026715108330328
356,3092.62,0.12876675910672705
357,3106.9,0.13254404995569327
358,3128.43,0.1291427378253182
359,3150.1200000000003,0.1281621389257438
360,3171.9599999999996,0.13013172493004516
361,3186.6,0.12464221554831306
362,3208.68,0.12703342139881552
363,3230.9300000000003,0.12054624880704372
364,3253.32,0.1307626527922226
365,3268.34,0.1366588498336423
366,3290.99,0.13462888031887238
367,3311.31121,0.13130882019749773
368,3313.8,0.1309357185967629
369,3321.44,0.12881169219063643
370,3329.1,0.13296270176250444
371,3336.77,0.13279381432336962
372,3344.47,0.1295092958512265
373,3352.1800000000003,0.12622155036808055
374,3359.9,0.13074720787393185
375,3367.6499999999996,0.13057223434677478
376,3375.41,0.11840178380861494
377,3383.1899999999996,0.12106121924844954
378,3390.99,0.13048295066627855
379,3398.81,0.129221878062102
380,3406.65,0.13024016143591988
381,3414.4999999999995,0.129080667798735
382,3422.3700000000003,0.1342775801395445
383,3430.2599999999998,0.1301536384583485
384,3438.1699999999996,0.1309946427551469
385,3446.09,0.11494438004094251
386,3454.04,0.12894992629372978
387,3462.0,0.12047719553551427
388,3469.9799999999996,0.1252629007552932
389,3477.98,0.11935656195306654
390,3486.0,0.12447468912883433
391,3494.03,0.11896218929359934
392,3502.09,0.129567258425356
393,3510.16,0.1288096305461099
394,3518.25,0.12309933864485817
395,3526.36,0.1185330427216009
396,3534.4900000000002,0.12746015277633807
397,3542.6400000000003,0.1339362288090697
398,3550.81,0.13173199081979572
399,3558.9900000000002,0.12747542581951898
400,3567.2,0.12372632978623388
401,3575.42,0.117793086741946
402,3583.6600000000003,0.11038130967565254
403,3591.92,0.11176074858735355
404,3600.2000000000003,0.13179296347704897
405,3608.5,0.12095403434473884
406,3610.04,0.1172179346503102
407,3612.79,0.10819794662454478
408,3615.53,0.12429274560978215
409,3618.2799999999997,0.11731517758401676
410,3621.02,0.1263353265692541
411,3623.77,0.12900851854348871
412,3626.5199999999995,0.1423354105177233
413,3629.26,0.12738628950296066
414,3632.0099999999998,0.11892367147719528
415,3634.75,0.12778564046243263
416,3637.5,0.12691338243666722
417,3640.2400000000002,0.1286850314219046
418,3642.99,0.1310209933961392
419,3645.7400000000002,0.1275031153703738
420,3648.48,0.12293188435561116
421,3651.2299999999996,0.11687095632984576
422,3653.9700000000003,0.11917390531508312
423,3656.72,0.12434092728931773
424,3659.46,0.13066737627455507
425,3662.21,0.1398126482487897
426,3664.96,0.13282173022302426
427,3667.7,0.12195977920826165
428,3670.4500000000003,0.13619986118249622
429,3673.19,0.1325875901677336
430,3675.9399999999996,0.1307697121419682
431,3678.68,0.13871218112720557
432,3681.43,0.12706331310144017
433,3684.1800000000003,0.12072194507567474
434,3686.92,0.13398691406091212
435,3689.67,0.12850015603514672
436,3692.41,0.1207780550203841
437,3695.1600000000003,0.13686938699461867
438,3697.9,0.12821676597985607
439,3700.6499999999996,0.12989508795409066
440,3703.4,0.11503976992832524
441,3706.14,0.12800168891356262
442,3708.8900000000003,0.11754297088779718
443,3711.63,0.12373266987303456
444,3714.38,0.13213281184726916
445,3717.12,0.11912641083250655
446,3719.8700000000003,0.12185872280674111
447,3722.62,0.1393203447809757
448,3725.3599999999997,0.1446079437662131
449,3728.11,0.16579401574044766
450,3730.85,0.15951652472568506
451,3733.6000000000004,0.13520677669991965
452,3736.34,0.142226835685157
453,3739.0899999999997,0.1266761576593916
454,3741.84,0.1316751096336262
455,3744.58,0.11446969861886358
456,3747.33,0.12754111059309817
457,3750.0699999999997,0.12570763957833556
458,3752.82,0.11473614155257011
459,3755.5699999999997,0.13605261352680473
460,3758.3100000000004,0.13422496251204208
461,3761.06,0.1335670644862767
462,3763.7999999999997,0.12694877347151406
463,3766.55,0.12295577544574865
464,3769.29,0.12738868443098603
465,3772.04,0.12765380640522062
466,3774.79,0.12673750837945522
467,3777.53,0.1445068773646926
468,3780.2799999999997,0.13338469933892716
469,3783.0200000000004,0.13284913832416453
470,3785.77,0.13516945029839914
471,3788.5099999999998,0.1424734292836365
472,3791.26,0.1414157012578711
473,3794.0099999999998,0.1337120932321057
474,3796.75,0.13139193221734308
475,3799.5,0.11669768419157764
476,3801.8939600000003,0.1307613944935853
477,3802.2400000000002,0.13279754512164046
478,3804.99,0.13805259890222682
479,3807.7299999999996,0.1352253648508837
480,3810.48,0.15006977863147006
481,3813.23,0.1415694524120564
482,3815.9700000000003,0.1333594483607133
483,3818.72,0.14366121214129965
484,3821.46,0.14551569808995657
485,3824.21,0.13707911187054292
486,3826.9500000000003,0.12798836781919984
487,3829.7,0.11725500159978619
488,3832.45,0.11783593538037251
489,3835.19,0.11903966132902943
490,3837.94,0.11150643510961578
491,3840.6800000000003,0.11557363105827269
492,3843.43,0.12529022483885904
493,3846.17,0.13368977078751595
494,3848.92,0.1332433645681023
495,3851.6699999999996,0.13466267834868864
496,3854.41,0.13488897429734553
497,3857.16,0.13417602807793189
498,3859.9,0.14410758402658883
499,3862.65,0.15387047780717517
500,3865.3900000000003,0.14574160375583206
501,3868.14,0.15088075753641841
502,3870.8900000000003,0.14993022131700473
503,3873.63,0.1434990572656617
504,3876.3799999999997,0.142890391046248
505,3879.12,0.14386994699490493
506,3881.87,0.13823193077549129
507,3884.61,0.1295409967241482
508,3887.36,0.13684140050473453
509,3890.11,0.13442497428532085
510,3892.85,0.1431918902339778
511,3895.6000000000004,0.14016126401456414
512,3898.34,0.13443114996322103
513,3901.0899999999997,0.1391241637438074
514,3903.84,0.14488328752439372
515,3906.58,0.14573539347305065
516,3909.33,0.13664986725363698
517,3912.07,0.14869628320229392
518,3914.82,0.15980920698288026
519,3917.56,0.1574050129315372
520,3920.3100000000004,0.1525086267121235
521,3923.06,0.14442549049270986
522,3925.7999999999997,0.13308664644136675
523,3928.55,0.1269735402219531
524,3931.29,0.11985396617061003
525,3934.04,0.10926952995119638
526,3936.7799999999997,0.1155692158998533
527,3939.53,0.12444160968043962
528,3942.28,0.13562409346102594
529,3945.02,0.13162064940968288
530,3947.77,0.13445374319026923
531,3950.5099999999998,0.14421145913892613
532,3953.26,0.1428031829195125
533,3956.0,0.1457469788681694
534,3958.7499999999995,0.14053774264875576
535,3961.5,0.1336250364293421
536,3964.24,0.12268770237799902
537,3966.9900000000002,0.11716910615858533
538,3969.73,0.12112159210724227
539,3972.48,0.11208477588782859
540,3975.22,0.12719974183648552
541,3977.9700000000003,0.14010311561707187
542,3980.72,0.1491938793976582
543,3983.4599999999996,0.15010971534631512
544,3986.21,0.15240391912690146
545,3988.95,0.15785082507555837
546,3991.7000000000003,0.16668662885614471
547,3994.44,0.16325108480480166
548,3997.19,0.16858716858538797
549,3999.94,0.1630650323659743
550,4002.6800000000003,0.16422426831463122
551,4005.43,0.1607822120952176
552,4008.1699999999996,0.16579454804387453
553,4010.92,0.16812930182446084
554,4013.66,0.1666231877731178
555,4016.4100000000003,0.1657306415537041
556,4019.16,0.16679059533429044
557,4021.9,0.17083538128294737
558,4024.65,0.1722951350635337
559,4027.3900000000003,0.17029082101219062
560,4030.14,0.16790327479277697
561,4032.8799999999997,0.1575726507414339
562,4035.63,0.16007543452202022
563,4038.3799999999997,0.16134982830260658
564,4041.1200000000003,0.1638532942512635
565,4043.87,0.16424700803184983
566,4046.61,0.16731829398050674
567,4049.36,0.1631809377610931
568,4052.1099999999997,0.16790870154167942
569,4054.85,0.16604918749033637
570,4057.6,0.16975124127092267
571,4060.34,0.1647455272195796
572,4063.0899999999997,0.16021418100016593
573,4065.8300000000004,0.16691266694882284
574,4068.58,0.1573055807294092
575,4071.3300000000004,0.1575428345099955
576,4074.07,0.15783873045865243
577,4076.8199999999997,0.1608745742392388
578,4079.56,0.15885280018789572
579,4082.31,0.16068923396848206
580,4085.05,0.170997439917139
581,4087.7999999999997,0.1710608936977253
582,4090.55,0.16100769747831165
583,4093.29,0.1592756334269686
