,lambda (Angstroms),Total Flux (erg/s/cm^2/Angstrom)
0,100.02000000000001,0.23055227820537752
1,102.11,0.22983164761480634
2,104.01,0.22917652881681255
3,104.712855,0.22893418495351675
4,105.95,0.22669349000943423
5,107.92,0.22312546152469703
6,109.92,0.2195030991314364
7,114.05,0.21202291858058994
8,118.06,0.20476008035265716
9,120.22644299999999,0.20083629089808772
10,121.08000000000001,0.19954018971244183
11,125.05000000000001,0.1935118141611693
12,127.08000000000001,0.19042929299666417
13,127.96,0.1890930300900632
14,130.94,0.18456795025165554
15,131.85,0.1831861459373953
16,133.98999999999998,0.17993659201981635
17,137.10999999999999,0.17519894795209554
18,138.038426,0.17378915065267073
19,139.98999999999998,0.17167094369364003
20,142.92,0.16849103105107238
21,146.92000000000002,0.1641500591771135
22,151.04,0.15967834507609488
23,154.91,0.15547800356124242
24,158.489319,0.1515931712890821
25,158.89000000000001,0.151264396484601
26,161.84,0.14884379803078035
27,165.98999999999998,0.14543857651149028
28,169.86,0.14226309588937633
29,173.02,0.13967019124867347
30,177.04999999999998,0.13636346452903036
31,179.92000000000002,0.1340085499979743
32,181.970086,0.132326393927666
33,182.01,0.1323014087584356
34,185.82000000000002,0.12991647275443313
35,191.02,0.12666144363093113
36,194.13,0.12471472752672702
37,198.19,0.12217333822429657
38,201.88000000000002,0.11986362896245957
39,205.16,0.11781051979960445
40,208.929613,0.11545088110237652
41,209.93,0.11498010501338578
42,215.82,0.11220871317458116
43,219.82999999999998,0.11032187820508937
44,222.89,0.10888197325588866
45,227.03,0.10693405716714652
46,230.19000000000003,0.10544967371159937
47,233.93,0.10369503510524296
48,239.88329199999998,0.10089759318527178
49,239.93,0.10088068791503638
50,246.08,0.09865092203346881
51,251.82,0.09657267598200577
52,257.09,0.09466067420432106
53,260.07,0.09358367179185417
54,264.29,0.09206168160346147
55,269.21,0.09028191479220743
56,274.21000000000004,0.08847333941605492
57,275.42287,0.08803318020503513
58,279.31,0.08695035744886899
59,283.85,0.08569896630710794
60,289.79,0.08405431004779947
61,295.86,0.08236732390000441
62,300.67,0.08102770752600207
63,307.67,0.0790945738782648
64,316.227766,0.07672638655289604
65,317.75,0.07641237911600796
66,328.15999999999997,0.07426934971743372
67,338.13000000000005,0.07220931884944279
68,347.59999999999997,0.0702532588662057
69,357.34000000000003,0.06829909053920152
70,363.078055,0.0672040177673199
71,365.67,0.06684467163095871
72,375.04999999999995,0.0654214526213385
73,384.67,0.06388568603364694
74,395.44000000000005,0.06242663191769707
75,404.65000000000003,0.061196702259210686
76,414.08,0.059793827987492276
77,416.86938299999997,0.05935396211723897
78,421.78000000000003,0.05876028474055979
79,429.62,0.05784937008515745
80,440.64,0.05676653501748732
81,450.9,0.055656003306208235
82,460.35,0.05447120920371433
83,469.99,0.05342507866212268
84,478.630092,0.05260353503034492
85,479.83,0.05252238434686071
86,489.87,0.05147284317235602
87,500.13,0.050921373593629124
88,505.91999999999996,0.050223149091599036
89,511.78000000000003,0.050597119597316415
90,520.1,0.049819328946730856
91,529.77,0.048868641588418076
92,539.62,0.04765712653574167
93,549.5408739999999,0.046778177903471066
94,549.65,0.046770876265750716
95,559.87,0.046787512564704335
96,570.28,0.04650154003066394
97,579.54,0.045900953064745204
98,590.32,0.045320607434874365
99,599.9100000000001,0.04422405765375549
100,609.66,0.043522754750115356
101,619.56,0.04373218029411153
102,629.63,0.04290515214542884
103,630.957344,0.04287533085553979
104,639.86,0.04280402829281145
105,650.26,0.04217013298009841
106,657.7900000000001,0.04149880754598982
107,665.4,0.04162488417101422
108,674.66,0.041424952015656255
109,685.62,0.04025396111687404
110,695.16,0.0404612231684815
111,704.83,0.03909445931618003
112,716.28,0.03963868977958731
113,724.43596,0.03931021349660201
114,726.25,0.03926300609310619
115,734.6600000000001,0.03900725149777091
116,744.88,0.03849819761021723
117,755.2399999999999,0.03811113497077925
118,765.75,0.03719257409717951
119,774.61,0.037471255799358984
120,785.39,0.03664881990426811
121,794.48,0.03672139151406624
122,805.53,0.03647010859748422
123,814.86,0.03618391563262356
124,824.3000000000001,0.03595178836271096
125,831.763771,0.03488141321135542
126,835.77,0.03434840964514626
127,845.4399999999999,0.035211637811183825
128,855.23,0.03485428907648969
129,865.14,0.034824823441063864
130,875.15,0.03459206755502829
131,885.29,0.03434093994320005
132,895.54,0.03408695225570109
133,905.9100000000001,0.033678226667470425
134,914.29,0.03328742226637371
135,924.88,0.04171913252680161
136,935.59,0.05080566288649782
137,944.2399999999999,0.06059230920875479
138,954.992586,0.06723624106807259
139,955.1800000000001,0.06735216680389741
140,964.02,0.0710056223118937
141,975.18,0.04142232202560846
142,984.1999999999999,0.061946203980600134
143,995.5999999999999,0.061178088956975435
144,1004.8100000000001,0.07149371716157336
145,1014.11,0.07154149358966899
146,1025.85,0.05366860185481338
147,1035.34,0.06316029453251527
148,1044.92,0.08145826543371486
149,1054.59,0.07931180455841214
150,1064.35,0.06959781190660713
151,1074.2,0.07482019747829982
152,1084.1399999999999,0.0667738912734902
153,1094.17,0.07582300329217828
154,1096.4782,0.07522309714959068
155,1104.29,0.07323529779185348
156,1114.51,0.07156697341204388
157,1124.82,0.06560276694865474
158,1135.23,0.07430315261462168
159,1145.74,0.0705663804099447
160,1153.68,0.07130773548081669
161,1164.35,0.0710462006831094
162,1175.13,0.055133552227693804
163,1186.0,0.06809188168869867
164,1194.22,0.058465284721767666
165,1205.27,0.05140458001561346
166,1213.62,0.04388879781684535
167,1224.85,0.05646155894353206
168,1236.19,0.06674540641251045
169,1244.76,0.0689508868983257
170,1256.27,0.06704437598720941
171,1258.92541,0.0658410177910139
172,1264.98,0.0631399724278992
173,1273.7499999999998,0.0706318666744434
174,1285.54,0.07179882523393669
175,1294.45,0.0630479364353858
176,1306.42,0.06252045107975684
177,1315.48,0.0700242540186041
178,1324.6,0.0675701256524106
179,1333.78,0.06332934598117637
180,1346.1200000000001,0.06838810757779613
181,1355.45,0.06655986964396003
182,1364.85,0.062135615187576404
183,1374.31,0.062727399426152
184,1383.8400000000001,0.06234137714218008
185,1393.4299999999998,0.053091333553167405
186,1406.3200000000002,0.052690648186913665
187,1416.0700000000002,0.058531441117792335
188,1425.8799999999999,0.057857572743630264
189,1435.7700000000002,0.05838774262941385
190,1442.4,0.05950780342241134
191,1445.43977,0.0597423764191748
192,1445.72,0.05976548400848111
193,1455.74,0.05819540551217
194,1465.83,0.055218580888639145
195,1475.99,0.05518952013788855
196,1486.22,0.055543853259918216
197,1496.53,0.05532021795083961
198,1503.43,0.053171978267751115
199,1510.3700000000001,0.04959073936910849
200,1517.3500000000001,0.05121333125491172
201,1524.35,0.050264198532937884
202,1534.9099999999999,0.04527450562664593
203,1545.55,0.0446310742892457
204,1556.27,0.0436339045207372
205,1563.45,0.04560069032876975
206,1574.2900000000002,0.047497762913598834
207,1585.2,0.04842612937120819
208,1596.19,0.04862444739770927
209,1603.56,0.04754509943185968
210,1614.67,0.04708414981169834
211,1625.8600000000001,0.04576041176042875
212,1633.3700000000001,0.04726229154013967
213,1644.69,0.047285703538319124
214,1656.0900000000001,0.04546853710539031
215,1659.58691,0.046230780073925844
216,1663.74,0.04715127327679717
217,1671.42,0.04379820659916202
218,1675.27,0.04779832760060794
219,1686.88,0.048121266646526675
220,1694.67,0.04607410771178998
221,1706.4099999999999,0.044868723181134156
222,1714.29,0.043060453308768926
223,1726.1699999999998,0.04251924954180206
224,1734.14,0.04409065873180828
225,1746.1599999999999,0.04330662572853035
226,1754.22,0.044381113980908035
227,1766.3799999999999,0.042321261741319054
228,1774.53,0.04217743905606821
229,1786.8400000000001,0.04258516192043166
230,1795.08,0.043644728297552275
231,1803.37,0.043345586375990376
232,1815.87,0.04096126170536025
233,1824.25,0.04131762884616981
234,1836.8999999999999,0.04021987927949212
235,1845.3700000000001,0.03800158548267314
236,1853.8899999999999,0.037993363387171644
237,1866.74,0.03840653062576387
238,1875.3600000000001,0.03975159193289733
239,1884.0199999999998,0.037411780601084785
240,1897.07,0.03617196464494693
241,1905.46072,0.037490420768381987
242,1905.83,0.03754929188083275
243,1914.6299999999999,0.03635076172799867
244,1923.4699999999998,0.03543896048356079
245,1936.8,0.036336884206597336
246,1945.74,0.03703979523314997
247,1954.72,0.03494437516809882
248,1968.27,0.03683391788731451
249,1977.35,0.037425590093253885
250,1981.91,0.03592833565042168
251,1995.6499999999999,0.03510771568451936
252,2004.86,0.03572354184274641
253,2014.1200000000001,0.03493078413646872
254,2023.4099999999999,0.035730618111488185
255,2032.75,0.034100828222002916
256,2046.8400000000001,0.03460579120456743
257,2056.29,0.032305420813171726
258,2065.78,0.03285854933017224
259,2075.32,0.03484928398266801
260,2080.1,0.03333730853601495
261,2084.9,0.03406804754355999
262,2094.52,0.03267805001284818
263,2104.19,0.03284361861763163
264,2113.9,0.03295397613081129
265,2123.66,0.03300671977948621
266,2133.46,0.031767752336557334
267,2143.31,0.031650611029123726
268,2153.2000000000003,0.03225251863008632
269,2163.14,0.031526272366544185
270,2173.12,0.03130007501139825
271,2183.15,0.030647453791747575
272,2187.7616199999998,0.0309631735849824
273,2193.23,0.03134865169728347
274,2203.35,0.030765433152756184
275,2213.52,0.029831972263641315
276,2223.74,0.029231009029938856
277,2234.0099999999998,0.029847323451648814
278,2244.3199999999997,0.029143627997688708
279,2254.68,0.028361350199141013
280,2265.08,0.028659782524923245
281,2275.54,0.02881130003720038
282,2286.04,0.028867507673807444
283,2296.6,0.02766602049690941
284,2307.2000000000003,0.027721803444341303
285,2312.51,0.02700497244913973
286,2323.19,0.02392629564523149
287,2333.91,0.025943248965653178
288,2344.6800000000003,0.025558449941487284
289,2355.51,0.026127846103816285
290,2366.3799999999997,0.025139182390475218
291,2377.3,0.025225496332546567
292,2382.7799999999997,0.02429698336574721
293,2393.78,0.02491217755647842
294,2404.83,0.024295819402622047
295,2415.93,0.02437624890417809
296,2427.08,0.02478914606114654
297,2432.6800000000003,0.024151753467336973
298,2443.91,0.024601770872965296
299,2455.19,0.02427128593400603
300,2466.52,0.024106978650459177
301,2472.2,0.023605156305309474
302,2483.62,0.023721496801504968
303,2495.08,0.021864877422030395
304,2506.6,0.02371590322905072
305,2511.88643,0.022564113572637927
306,2512.38,0.022457110532168992
307,2518.17,0.022972019266047618
308,2523.97,0.022463446356979583
309,2535.62,0.022432312324110155
310,2547.32,0.022067910076507383
311,2553.2,0.02253554402386599
312,2564.98,0.02227913863268987
313,2576.82,0.02266246338383373
314,2582.76,0.022494527473512323
315,2594.68,0.022236899081082836
316,2606.6600000000003,0.02179892083097333
317,2612.67,0.021565503420025244
318,2624.73,0.021823322026342386
319,2636.8399999999997,0.021827722417926188
320,2642.92,0.02241006350635141
321,2655.1200000000003,0.022339399111415192
322,2667.3799999999997,0.021382014858798953
323,2673.53,0.021655794446597498
324,2685.8700000000003,0.021549367050407907
325,2692.06,0.020995400066419777
326,2704.48,0.021067839526656834
327,2716.9700000000003,0.02061412748626721
328,2723.23,0.020562529001652396
329,2735.7999999999997,0.02080664381768942
330,2742.1099999999997,0.019673967118341257
331,2754.7599999999998,0.019671848790804927
332,2767.48,0.019801228962641915
333,2773.86,0.02015158076266707
334,2786.6600000000003,0.019715817790930706
335,2793.0899999999997,0.017995121376222518
336,2805.98,0.018493103617966133
337,2812.4500000000003,0.019711210631471267
338,2825.43,0.01977555808669486
339,2831.94,0.01923339852841332
340,2845.01,0.01903758119711689
341,2858.1499999999996,0.01878020236519378
342,2864.7299999999996,0.019208011306285556
343,2877.96,0.01897867768784242
344,2884.0315,0.018932679643360553
345,2884.59,0.018928967563676437
346,2897.9100000000003,0.018714870664558927
347,2911.28,0.019073062027832113
348,2931.46,0.01865362472871865
349,2951.7799999999997,0.018366834564299144
350,2972.24,0.018267681534573598
351,2992.8500000000004,0.018076583292020155
352,3006.66,0.017960091364331503
353,3027.5,0.01780107912877528
354,3048.49,0.017583331680391154
355,3069.6200000000003,0.017397121366700987
356,3090.8999999999996,0.017240915840182926
357,3112.32,0.01702796744835882
358,3126.6899999999996,0.01680195405944601
359,3148.36,0.016677076979575406
360,3170.1800000000003,0.0164691146868769
361,3192.16,0.016019494833828637
362,3206.89,0.01604536693412887
363,3229.12,0.015711098393034105
364,3251.51,0.01574761229158958
365,3266.51,0.015692841008799592
366,3289.16,0.015518683871786707
367,3311.31121,0.01537547372116069
368,3311.9500000000003,0.015371760257487644
369,3319.59,0.015571196798175783
370,3327.2400000000002,0.015588067509728697
371,3334.91,0.015658096563011162
372,3342.6,0.015077483958023177
373,3350.3100000000004,0.015559239694764741
374,3358.03,0.014932239602371083
375,3365.77,0.014822757851706975
376,3373.53,0.014665124442772414
377,3381.31,0.014803079375567404
378,3389.1,0.015172028479227169
379,3396.9100000000003,0.015034475924616486
380,3404.74,0.014773491711735351
381,3412.5899999999997,0.014615515840583768
382,3420.46,0.014853388311161734
383,3428.34,0.014793394952604474
384,3436.25,0.014808374106641542
385,3444.1699999999996,0.014333047431543382
386,3452.11,0.014914179098174773
387,3460.07,0.014312779106535714
388,3468.04,0.014278513285761432
389,3476.0400000000004,0.014173179977581473
390,3484.05,0.01413923084026629
391,3492.0800000000004,0.014271840044680656
392,3500.13,0.014047777590824574
393,3508.2000000000003,0.01392065347869804
394,3516.2900000000004,0.013748784708301057
395,3524.39,0.01399318610876885
396,3532.52,0.014053347021830967
397,3540.66,0.01411411210575786
398,3548.8199999999997,0.014247505531414302
399,3557.0,0.014116967298800295
400,3565.2,0.014154427407915837
401,3573.42,0.013720967858760931
402,3581.66,0.013370856651335573
403,3589.9199999999996,0.013010574785639767
404,3598.19,0.013461105090808733
405,3606.49,0.013383065908572028
406,3614.8,0.013439557897200095
407,3623.13,0.013451315227557714
408,3631.49,0.014117946070509658
409,3639.8599999999997,0.013635167084326378
410,3648.25,0.013509663439872643
411,3648.8500000000004,0.013430178691759147
412,3651.58,0.013629795337842738
413,3654.31,0.012602211983926328
414,3657.05,0.012832581800874692
415,3659.78,0.014709495446958279
416,3662.5099999999998,0.01448736409304187
417,3665.2400000000002,0.013241391739125459
418,3667.97,0.012548051385209048
419,3670.7000000000003,0.012302901031292637
420,3673.44,0.014561732848241003
421,3676.17,0.01105160249432459
422,3678.9,0.012330035140408178
423,3681.63,0.013355458786491768
424,3684.3599999999997,0.014280057432575358
425,3687.09,0.012588558078658947
426,3689.83,0.014022918895607313
427,3692.56,0.014779537541690901
428,3695.29,0.01446267618777449
429,3698.02,0.012682906833858079
430,3700.75,0.01497928347994167
431,3703.48,0.012750944126025258
432,3706.2099999999996,0.014048020772108847
433,3708.95,0.01393292358905721
434,3711.68,0.012801286235140801
435,3714.4100000000003,0.01403673088122439
436,3717.14,0.014095949527307979
437,3719.8700000000003,0.017996388173391567
438,3722.6,0.03374634681947516
439,3725.3399999999997,0.06663895963642352
440,3728.07,0.10529209828250712
441,3730.8,0.1106524769285907
442,3733.5299999999997,0.07698249557467429
443,3736.26,0.03985593422075788
444,3738.99,0.019366832866841467
445,3741.7299999999996,0.016394395683789833
446,3744.46,0.01410519432987342
447,3747.19,0.014201512975957009
448,3749.92,0.0127586496220406
449,3752.65,0.012817494268124188
450,3755.3799999999997,0.013261563914207778
451,3758.12,0.014544301731156142
452,3760.85,0.013194276377239732
453,3763.5800000000004,0.015756219023323317
454,3766.31,0.01325432566940691
455,3769.04,0.012974362315490498
456,3771.77,0.013960794961574088
457,3774.5,0.014461743607657677
458,3777.2400000000002,0.013995086424606042
459,3779.9700000000003,0.01533173507068963
460,3782.7,0.01357099371677322
461,3785.4300000000003,0.015081512362856809
462,3788.16,0.014951651008940399
463,3790.89,0.015425389655023988
464,3793.63,0.01249425947197235
465,3796.3599999999997,0.014816691118055942
466,3799.09,0.01442430976413953
467,3801.82,0.01410096841022312
468,3801.8939600000003,0.01410307284709651
469,3804.5499999999997,0.014179866423222064
470,3807.28,0.014636038390670887
471,3810.02,0.014391689119905238
472,3812.7499999999995,0.015905171087354064
473,3815.48,0.015659953054802885
474,3818.21,0.01501770502225171
475,3820.94,0.014569876989700534
476,3823.67,0.015441898957149359
477,3826.4100000000003,0.014420259686383708
478,3829.14,0.013927731653832534
479,3831.87,0.012837290621281356
480,3834.6000000000004,0.014341645588730181
481,3837.33,0.014812457556179005
482,3840.06,0.013555949523627828
483,3842.79,0.013504571491076653
484,3845.5299999999997,0.013814762220311003
485,3848.26,0.014437564187759828
486,3850.9900000000002,0.015103756155208651
487,3853.72,0.015303298122657476
488,3856.4500000000003,0.015480770090106299
489,3859.18,0.016165792057555126
490,3861.9199999999996,0.016704442786789474
491,3864.65,0.0189297747542383
492,3867.38,0.022014606721687122
493,3870.11,0.024222638689135947
494,3872.84,0.02331788065658477
495,3875.5699999999997,0.018777922624033595
496,3878.31,0.015937063353267944
497,3881.04,0.01498112532071677
498,3883.7699999999995,0.015181047288165595
499,3886.5,0.016414319255614415
500,3889.23,0.017002321223063242
501,3891.96,0.017864453190512067
502,3894.7,0.017068413919746415
503,3897.43,0.015364285887195241
504,3900.16,0.014246267854644064
505,3902.89,0.014511249822092887
506,3905.6200000000003,0.015034951789541711
507,3908.35,0.014947043756990536
508,3911.08,0.01520860572443936
509,3913.82,0.01527186645367371
510,3916.5499999999997,0.015649278421122535
511,3919.28,0.015638990388571358
512,3922.01,0.014526482356020182
513,3924.74,0.014774154323469008
514,3927.4700000000003,0.014861836290917831
515,3930.21,0.014121367020152183
516,3932.9399999999996,0.013461808987601007
517,3935.67,0.01238278695504983
518,3938.4,0.012755819922498654
519,3941.13,0.014180844889947478
520,3943.86,0.014852736857396302
521,3946.6,0.014504337586630653
522,3949.33,0.014666399554079477
523,3952.06,0.014883821521528302
524,3954.7900000000004,0.014918243488977124
525,3957.52,0.014717145456425948
526,3960.25,0.013732667423874773
527,3962.9900000000002,0.013921108153109122
528,3965.72,0.015402450120557947
529,3968.45,0.01729488208800677
530,3971.1800000000003,0.018675964055455595
531,3973.91,0.016545516022904418
532,3976.6400000000003,0.014419257990353243
533,3979.37,0.013945749957802069
534,3982.1099999999997,0.01397896068703642
535,3984.84,0.014363022654485242
536,3987.5699999999997,0.014615444621934067
537,3990.3,0.01565772658938289
538,3993.03,0.014920558556831713
539,3995.7599999999998,0.015250600524280539
540,3998.5,0.01562546125351489
541,4001.23,0.015107443220963714
542,4003.9599999999996,0.014989095188412536
543,4006.69,0.015733087155861362
544,4009.42,0.015484059123310186
545,4012.15,0.014884241090759009
546,4014.89,0.015052511819993359
547,4017.62,0.015199353787442185
548,4020.35,0.015683485754891008
549,4023.08,0.01570020772233983
550,4025.8100000000004,0.016526949689788656
551,4028.54,0.01519986165723748
552,4031.2799999999997,0.015544672386471831
553,4034.01,0.015149354353920653
554,4036.74,0.01581439632136948
555,4039.47,0.015629098288818304
556,4042.2000000000003,0.015530730256267127
557,4044.93,0.015223292223715951
558,4047.6600000000003,0.015866084191164774
559,4050.4,0.016135554920399125
560,4053.1299999999997,0.01626794688784795
561,4055.86,0.015614858855296773
562,4058.59,0.015352320822745598
563,4061.3199999999997,0.015439812790194421
564,4064.05,0.015792114757643243
