,lambda (Angstroms),Total Flux (erg/s/cm^2/Angstrom)
0,100.1,6.719823e-08
1,101.97,8.837343e-08
2,104.10000000000001,1.060066e-07
3,104.712855,1.1371261981572161e-07
4,106.04,1.304001e-07
5,108.01,1.630448e-07
6,110.02,2.351398e-07
7,113.88000000000001,3.291356e-07
8,117.88,4.33851e-07
9,120.22644299999999,1.2735709301623734e-06
10,120.91,1.518195e-06
11,124.87,1.902418e-06
12,126.9,2.066917e-06
13,128.07,2.189574e-06
14,131.06,2.445062e-06
15,131.96,2.86642e-06
16,134.10999999999999,3.0574e-06
17,136.92,3.848496e-06
18,138.038426,3.985472682472727e-06
19,140.10999999999999,4.239184e-06
20,143.04000000000002,1.047946e-05
21,147.04999999999998,2.428387e-05
22,151.17000000000002,2.656736e-05
23,155.04,2.940224e-05
24,158.489319,3.231338723632413e-05
25,159.01999999999998,3.276127e-05
26,161.98000000000002,3.518053e-05
27,166.13,3.902406e-05
28,170.0,4.230194e-05
29,173.16000000000003,4.522278e-05
30,177.2,4.890297e-05
31,180.07999999999998,5.168107e-05
32,181.970086,5.344497458559616e-05
33,182.16,5.362221e-05
34,185.97,5.759224e-05
35,191.19,6.270976e-05
36,193.83999999999997,6.627854e-05
37,197.89999999999998,7.052574e-05
38,202.05,7.522239e-05
39,204.86,7.876773e-05
40,208.929613,8.062167514663619e-05
41,210.10999999999999,8.115941e-05
42,216.0,9.212002e-05
43,220.02,9.779744e-05
44,223.08,0.0001007673
45,227.22,0.00010699
46,229.85999999999999,0.0001645536
47,234.13,0.0002626182
48,239.88329199999998,0.00032930489523659985
49,240.13,0.0003321645
50,245.73000000000002,0.0003216049
51,252.03,0.000351034
52,256.72,0.0003043151
53,260.29,0.0003559144
54,263.91,0.0003947644
55,268.82,0.0004105005
56,273.81,0.0004259446
57,275.42287,0.00042594631109980354
58,278.90000000000003,0.00042595
59,284.09,0.0004648739
60,290.03999999999996,0.0004823146
61,296.10999999999996,0.0005015983
62,300.92,0.0004947223
63,307.93,0.0005589192
64,316.227766,0.0006269760951416253
65,318.02,0.0006416757
66,327.68,0.0007367842
67,337.64000000000004,0.0008041423
68,347.90000000000003,0.0008776681
69,356.82,0.001194963
70,363.078055,0.0016255902857341728
71,365.97999999999996,0.001825278
72,375.37,0.002043271
73,384.99,0.001942495
74,394.87,0.003022384
75,405.0,0.004086317
76,414.43,0.004522194
77,416.86938299999997,0.004538711248964332
78,422.14000000000004,0.004574399
79,429.99,0.004789983
80,441.02000000000004,0.006156634
81,451.29,0.006923811
82,459.68,0.006750881
83,470.39,0.007504693
84,478.630092,0.00879185476598701
85,480.23999999999995,0.009043334
86,490.29,0.008498667
87,500.56000000000006,0.01102407
88,506.35,0.01019395
89,512.2199999999999,0.01623027
90,520.5400000000001,0.01638108
91,530.22,0.01630599
92,540.07,0.01453302
93,549.5408739999999,0.015046661778477608
94,550.12,0.01507807
95,560.34,0.02043377
96,569.45,0.02384181
97,580.03,0.02450987
98,589.46,0.02620256
99,600.42,0.02351489
100,610.1700000000001,0.02367792
101,620.09,0.03092707
102,630.1600000000001,0.03043307
103,630.957344,0.030746859903531234
104,640.4,0.03446296
105,649.3100000000001,0.03454191
106,658.35,0.03291055
107,664.44,0.03752688
108,675.23,0.04048969
109,684.63,0.0363362
110,695.75,0.04288866
111,705.43,0.03642083
112,715.24,0.04681032
113,724.43596,0.048331488900904516
114,725.19,0.04845622
115,735.28,0.04969793
116,745.5100000000001,0.04947016
117,754.14,0.05027401
118,764.63,0.04648878
119,775.27,0.05264419
120,784.25,0.04981355
121,795.1600000000001,0.05424247
122,804.3699999999999,0.05640645
123,815.5600000000001,0.05772239
124,825.0,0.05961522
125,831.763771,0.05218908105082516
126,834.5500000000001,0.04913
127,844.22,0.06044486
128,855.96,0.06044459
129,865.87,0.06329133
130,875.9,0.06446685
131,884.0000000000001,0.06551475
132,894.24,0.06658174
133,904.59,0.06612139
134,915.07,0.06596854
135,925.67,0.1634341
136,934.23,0.2712315
137,945.0500000000001,0.3956784
138,954.992586,0.47746952963191913
139,955.99,0.4856746
140,964.84,0.537455
141,976.0099999999999,0.1833783
142,985.04,0.4490952
143,994.1600000000001,0.4470331
144,1005.6700000000001,0.5812399
145,1014.97,0.5798926
146,1024.36,0.3494199
147,1033.8400000000001,0.4790088
148,1045.81,0.7216536
149,1055.49,0.7020233
150,1065.26,0.5852492
151,1075.11,0.6581795
152,1085.06,0.558913
153,1095.1,0.6797539
154,1096.4782,0.6762069057058241
155,1105.23,0.6536829
156,1115.46,0.6358398
157,1125.78,0.5680252
158,1136.2,0.6828901
159,1144.07,0.6373013
160,1154.66,0.6536754
161,1165.34,0.6566591
162,1176.1299999999999,0.4606142
163,1184.28,0.6285696
164,1195.24,0.5015826
165,1206.3,0.4105256
166,1214.66,0.3107024
167,1225.9,0.4845556
168,1234.3899999999999,0.6285814
169,1245.82,0.665813
170,1254.45,0.6432168
171,1258.92541,0.6234855229608955
172,1266.06,0.5920304
173,1274.84,0.6971429
174,1283.67,0.7167223
175,1295.55,0.6030399
176,1304.5300000000002,0.5988638
177,1313.57,0.7020347
178,1325.73,0.6719339
179,1334.92,0.6184895
180,1344.17,0.6891771
181,1353.49,0.6688452
182,1366.01,0.6142603
183,1375.48,0.6256412
184,1385.0100000000002,0.6256465
185,1394.6100000000001,0.51209
186,1404.28,0.5120867
187,1414.01,0.5825544
188,1423.8200000000002,0.5798859
189,1433.69,0.5879672
190,1443.62,0.604451
191,1445.43977,0.6067312865702704
192,1446.9499999999998,0.6086237
193,1453.6299999999999,0.5906769
194,1463.71,0.5537626
195,1473.85,0.5550665
196,1484.0700000000002,0.5602117
197,1494.3600000000001,0.5615152
198,1504.71,0.5337561
199,1511.6599999999999,0.4879122
200,1518.64,0.5109051
201,1525.65,0.4992802
202,1536.22,0.435855
203,1543.31,0.4338572
204,1554.0100000000002,0.421059
205,1564.78,0.4470376
206,1575.63,0.4735258
207,1586.55,0.4879139
208,1593.8700000000001,0.4935652
209,1604.9199999999998,0.4812216
210,1616.05,0.476803
211,1623.51,0.4595607
212,1634.76,0.4823291
213,1646.0900000000001,0.4845569
214,1653.6899999999998,0.4616816
215,1659.58691,0.4746023164136129
216,1665.1499999999999,0.4867916
217,1672.84,0.4429365
218,1676.7,0.4958382
219,1684.43,0.502741
220,1696.1100000000001,0.4768057
221,1703.9399999999998,0.461682
222,1715.75,0.4388798
223,1723.6699999999998,0.4338552
224,1735.62,0.4563948
225,1743.6299999999999,0.4470388
226,1755.72,0.46381
227,1763.8200000000002,0.4358541
228,1776.0500000000002,0.4368606
229,1784.24,0.442943
230,1796.61,0.459562
231,1804.9,0.4574479
232,1813.23,0.4259353
233,1825.8,0.4318583
234,1834.23,0.4191242
235,1846.94,0.3893537
236,1855.4699999999998,0.3902534
237,1864.04,0.3984185
238,1876.96,0.4181582
239,1885.6200000000001,0.3875614
240,1894.32,0.3726896
241,1903.07,0.3920491
242,1905.46072,0.389321685422896
243,1916.26,0.3770015
244,1925.1,0.3658862
245,1933.9899999999998,0.3778715
246,1942.9199999999998,0.3902486
247,1956.38,0.3633648
248,1965.4099999999999,0.3902525
249,1974.4900000000002,0.3993373
250,1983.6000000000001,0.3796145
251,1992.76,0.3692647
252,2006.57,0.3778682
253,2015.8300000000002,0.3684219
254,2025.14,0.3796152
255,2034.4799999999998,0.3592073
256,2043.8700000000001,0.3675707
257,2053.31,0.337553
258,2062.79,0.3454123
259,2072.31,0.3744062
260,2077.08,0.3559105
261,2086.67,0.365884
262,2096.3,0.3478119
263,2105.98,0.3502228
264,2115.7000000000003,0.3526499
265,2125.4700000000003,0.3550878
266,2135.2799999999997,0.3367771
267,2145.13,0.3383291
268,2155.03,0.347812
269,2164.98,0.3375536
270,2174.97,0.3352293
271,2185.01,0.3283566
272,2187.7616199999998,0.33128921605490547
273,2195.1,0.3391103
274,2205.23,0.3313889
275,2215.41,0.3179403
276,2225.6400000000003,0.3099858
277,2235.9100000000003,0.3216202
278,2246.23,0.3114187
279,2256.6,0.3008403
280,2267.01,0.3050343
281,2277.48,0.3085615
282,2282.73,0.3114187
283,2293.26,0.2946953
284,2303.85,0.2962246
285,2314.48,0.2869876
286,2325.17,0.2427172
287,2335.9,0.2718613
288,2346.68,0.2658226
289,2357.5099999999998,0.2772288
290,2362.9500000000003,0.2617984
291,2373.85,0.264983
292,2384.81,0.2503028
293,2395.8199999999997,0.26104
294,2406.88,0.2529086
295,2412.4300000000003,0.255321
296,2423.56,0.2638429
297,2434.75,0.2550337
298,2445.9900000000002,0.2635448
299,2457.28,0.2594789
300,2462.94,0.2571804
301,2474.31,0.2503172
302,2485.73,0.2527857
303,2497.2,0.2280436
304,2502.96,0.2559404
305,2511.88643,0.24031690623186114
306,2514.5099999999998,0.235725
307,2520.31,0.2424036
308,2526.12,0.2358656
309,2537.78,0.2365539
310,2543.63,0.2323036
311,2555.3700000000003,0.2411721
312,2567.1699999999996,0.2369108
313,2573.08,0.2447513
314,2584.96,0.2420999
315,2596.89,0.2389227
316,2602.88,0.2324822
317,2614.8900000000003,0.2294369
318,2626.96,0.2349279
319,2633.02,0.2377248
320,2645.17,0.2485141
321,2657.3799999999997,0.2498145
322,2663.51,0.2342935
323,2675.7999999999997,0.2398983
324,2681.9700000000003,0.2388751
325,2694.35,0.2298536
326,2706.79,0.232661
327,2713.03,0.2248326
328,2725.5499999999997,0.2244649
329,2738.1299999999997,0.2298364
330,2744.44,0.2106524
331,2757.1099999999997,0.2122508
332,2763.4700000000003,0.2162675
333,2776.22,0.2219603
334,2782.62,0.2140017
335,2795.46,0.1860838
336,2801.9100000000003,0.1944698
337,2814.84,0.2173364
338,2827.8399999999997,0.2220355
339,2834.35,0.2145717
340,2847.44,0.2112802
341,2854.0,0.2060661
342,2867.17,0.2164208
343,2873.78,0.2145066
344,2884.0315,0.21385666880557647
345,2887.0499999999997,0.2136653
346,2893.7000000000003,0.2112918
347,2907.0600000000004,0.2203832
348,2927.21,0.2141054
349,2947.5,0.2099308
350,2967.93,0.2101487
351,2988.5099999999998,0.2089216
352,3009.2200000000003,0.2081798
353,3030.08,0.2069662
354,3051.08,0.205285
355,3072.23,0.204093
356,3093.5299999999997,0.202905
357,3107.81,0.2011864
358,3129.3500000000004,0.1977336
359,3151.04,0.19704
360,3172.88,0.1954465
361,3187.53,0.1880844
362,3209.6200000000003,0.1904698
363,3231.87,0.1846368
364,3246.79,0.1890763
365,3269.2900000000004,0.1910441
366,3291.96,0.1890707
367,3307.1499999999996,0.1879102
368,3311.31121,0.1884226801261297
369,3322.4199999999996,0.1897908
370,3330.07,0.19118
371,3337.75,0.1886324
372,3345.45,0.1848314
373,3353.16,0.1819477
374,3360.8900000000003,0.1828576
375,3368.64,0.183774
376,3376.4,0.1739621
377,3384.18,0.1780824
378,3391.99,0.1861155
379,3399.81,0.1896503
380,3407.6400000000003,0.1787
381,3415.5,0.1816763
382,3423.37,0.1885667
383,3431.2599999999998,0.1882091
384,3439.1699999999996,0.1865559
385,3447.1000000000004,0.1749756
386,3455.05,0.1770683
387,3463.01,0.1707313
388,3471.0,0.1780272
389,3479.0,0.1696897
390,3487.02,0.1741134
391,3495.06,0.1753929
392,3503.1099999999997,0.1766779
393,3511.19,0.1739241
394,3519.28,0.174797
395,3527.3900000000003,0.1704928
396,3535.53,0.1765526
397,3543.6800000000003,0.1807378
398,3551.85,0.1808137
399,3560.03,0.1775839
400,3568.24,0.1712295
401,3576.47,0.1647243
402,3584.71,0.1606694
403,3592.97,0.1603668
404,3601.26,0.1738914
405,3609.56,0.1684487
406,3617.88,0.1692945
407,3626.22,0.1769382
408,3634.58,0.1706064
409,3636.1,0.1561759
410,3638.8399999999997,0.1728078
411,3641.58,0.1927249
412,3644.3199999999997,0.2066679
413,3647.06,0.17232
414,3649.8,0.1438105
415,3652.55,0.15701
416,3655.29,0.1434628
417,3658.0299999999997,0.1692942
418,3660.77,0.1803152
419,3663.5099999999998,0.2081849
420,3666.25,0.1957815
421,3668.99,0.1993649
422,3671.7300000000005,0.1997227
423,3674.4700000000003,0.1843594
424,3677.21,0.1740432
425,3679.9500000000003,0.182397
426,3682.69,0.1774097
427,3685.4300000000003,0.1798709
428,3688.17,0.1721893
429,3690.91,0.1600298
430,3693.65,0.1627079
431,3696.39,0.1479246
432,3699.13,0.1670827
433,3701.87,0.1723953
434,3704.6099999999997,0.166958
435,3707.35,0.1759353
436,3710.0899999999997,0.1642367
437,3712.83,0.1494914
438,3715.57,0.1791664
439,3718.3100000000004,0.181736
440,3721.05,0.2311328
441,3723.79,0.4102559
442,3726.53,0.737808
443,3729.27,1.038569
444,3732.01,1.075324
445,3734.75,0.7600889
446,3737.49,0.4084293
447,3740.23,0.2333177
448,3742.97,0.2219118
449,3745.71,0.1996041
450,3748.45,0.1805707
451,3751.1899999999996,0.1691865
452,3753.93,0.1502777
453,3756.6699999999996,0.1803756
454,3759.4100000000003,0.1936139
455,3762.15,0.1782777
456,3764.8900000000003,0.18011
457,3767.63,0.1833302
458,3770.37,0.1883664
459,3773.12,0.1702591
460,3775.8599999999997,0.1895743
461,3778.6,0.201544
462,3781.34,0.2082825
463,3784.0800000000004,0.2130259
464,3786.82,0.2205775
465,3789.56,0.2131181
466,3792.3,0.2072037
467,3795.04,0.1858502
468,3797.78,0.179963
469,3800.52,0.1809279
470,3801.8939600000003,0.18930053143065975
471,3803.2599999999998,0.1976249
472,3806.0,0.2015822
473,3808.74,0.2069274
474,3811.48,0.2019509
475,3814.22,0.2018588
476,3816.9599999999996,0.1954999
477,3819.7,0.198861
478,3822.4399999999996,0.2084672
479,3825.1800000000003,0.1941501
480,3827.92,0.1834869
481,3830.6600000000003,0.1931093
482,3833.4,0.1753174
483,3836.1400000000003,0.1791068
484,3838.88,0.1583712
485,3841.62,0.1901549
486,3844.36,0.2065591
487,3847.1,0.2061363
488,3849.84,0.2056755
489,3852.58,0.2230718
490,3855.3199999999997,0.2118719
491,3858.06,0.2147667
492,3860.7999999999997,0.221039
493,3863.54,0.2299946
494,3866.28,0.242165
495,3869.0200000000004,0.2848289
496,3871.76,0.2986852
497,3874.5,0.2825141
498,3877.2400000000002,0.2318542
499,3879.98,0.2062776
500,3882.7200000000003,0.2191147
501,3885.46,0.2136503
502,3888.2,0.2143767
503,3890.94,0.2482097
504,3893.69,0.2226862
505,3896.4300000000003,0.2193089
506,3899.17,0.2135897
507,3901.9100000000003,0.2061629
508,3904.65,0.2100118
509,3907.39,0.2263021
510,3910.13,0.2308288
511,3912.87,0.2232013
512,3915.61,0.2098872
513,3918.35,0.2128363
514,3921.0899999999997,0.2126574
515,3923.83,0.2140019
516,3926.5699999999997,0.2161758
517,3929.31,0.2022816
518,3932.05,0.1959878
519,3934.7900000000004,0.163147
520,3937.53,0.1739078
521,3940.27,0.1872816
522,3943.01,0.2081039
523,3945.75,0.2053934
524,3948.4900000000002,0.2210983
525,3951.23,0.1977986
526,3953.97,0.2011542
527,3956.71,0.2006501
528,3959.45,0.1995876
529,3962.19,0.1949472
530,3964.93,0.1932721
531,3967.6699999999996,0.1985468
532,3970.41,0.2079036
533,3973.1499999999996,0.2001136
534,3975.8900000000003,0.2076543
535,3978.63,0.1760711
536,3981.3700000000003,0.1810585
537,3984.11,0.1962375
538,3986.85,0.1970345
539,3989.59,0.2191904
540,3992.33,0.2083917
541,3995.07,0.2186538
542,3997.81,0.2200904
543,4000.5499999999997,0.2183665
544,4003.29,0.232147
545,4006.0299999999997,0.2407773
546,4008.77,0.2476296
547,4011.52,0.2474441
548,4014.26,0.2273374
549,4017.0,0.230769
550,4019.74,0.226069
551,4022.48,0.2134162
552,4025.22,0.2365479
553,4027.96,0.2348078
554,4030.7,0.2258793
555,4033.4399999999996,0.230059
556,4036.18,0.2249199
557,4038.9199999999996,0.2315065
558,4041.6600000000003,0.2219763
559,4044.4,0.2308343
560,4047.1400000000003,0.2249688
561,4049.88,0.2199326
562,4052.62,0.2258361
563,4055.36,0.2168155
564,4058.1,0.2175582
565,4060.84,0.2218951
566,4063.58,0.2188919
567,4066.3199999999997,0.2273921
568,4069.06,0.2326181
569,4071.7999999999997,0.2227734
570,4074.54,0.2185992
571,4077.2799999999997,0.2256575
572,4080.02,0.2268556
573,4082.7599999999998,0.2326995
574,4085.5000000000005,0.2169133
575,4088.2400000000002,0.2158508
576,4090.98,0.2093619
577,4093.7200000000003,0.2136879
578,4096.46,0.2025042
579,4099.2,0.2150595
580,4101.94,0.2504591
581,4104.68,0.2538473
582,4107.42,0.2361313
583,4110.16,0.2101697
584,4112.9,0.204418
585,4115.639999999999,0.1994686
586,4118.38,0.2009648
587,4121.12,0.2051824
588,4123.86,0.2107933
589,4126.6,0.2073184
590,4129.34,0.2074973
591,4132.08,0.2075082
592,4134.83,0.2123807
593,4137.57,0.2096594
594,4140.3099999999995,0.207453
595,4143.05,0.2049215
596,4145.79,0.2096215
597,4148.530000000001,0.2130856
598,4151.27,0.2159913
599,4154.01,0.2112804
600,4156.75,0.209215
601,4159.49,0.2080115
602,4162.2300000000005,0.2229792
603,4164.97,0.2325582
604,4167.71,0.2152921
605,4170.45,0.2096271
606,4173.19,0.209123
607,4175.93,0.2025473
608,4178.67,0.208131
609,4181.41,0.2100229
610,4184.15,0.2074317
611,4186.889999999999,0.2148152
612,4189.63,0.215661
613,4192.37,0.2037129
614,4195.110000000001,0.1998315
615,4197.85,0.2064452
616,4200.59,0.2053719
617,4203.33,0.2057839
618,4206.07,0.2097088
619,4208.81,0.2139264
620,4211.55,0.2048082
621,4214.29,0.2022819
622,4217.03,0.2094486
623,4219.7699999999995,0.2092047
624,4222.51,0.2059738
625,4225.25,0.2036536
626,4227.99,0.2049438
627,4230.73,0.1976796
628,4233.469999999999,0.1930771
629,4236.21,0.1993602
630,4238.95,0.2034802
631,4241.6900000000005,0.2031441
632,4244.43,0.2012955
633,4247.17,0.2023148
634,4249.91,0.1987531
635,4252.65,0.1951102
636,4255.4,0.1970121
637,4258.14,0.2013381
638,4260.88,0.1979879
639,4263.62,0.1990938
640,4266.360000000001,0.2000208
641,4269.1,0.2094372
642,4271.84,0.1979067
643,4274.58,0.1888101
644,4277.32,0.1895799
645,4280.06,0.1993975
646,4282.8,0.195863
647,4285.54,0.1915045
648,4288.28,0.2010076
649,4291.0199999999995,0.1912714
650,4293.76,0.1908107
651,4296.5,0.1933098
652,4299.24,0.1879429
653,4301.9800000000005,0.1844355
654,4304.72,0.1860185
655,4307.46,0.1877641
656,4310.2,0.1828201
657,4312.9400000000005,0.1796813
658,4315.68,0.1843001
659,4318.42,0.1913692
660,4321.16,0.1894068
661,4323.9,0.199631
662,4326.64,0.1889189
663,4329.38,0.1911037
664,4332.12,0.1948225
665,4334.86,0.207703
666,4337.599999999999,0.2276363
667,4340.34,0.299162
668,4343.08,0.3298345
669,4345.820000000001,0.2904125
670,4348.56,0.2153035
671,4351.3,0.1879488
672,4354.04,0.1851569
673,4356.78,0.1857695
674,4359.52,0.1808309
675,4362.26,0.2005908
676,4365.0,0.1935922
677,4365.15832,0.1939245448817509
678,4367.74,0.199344
679,4370.48,0.2020654
680,4373.22,0.2037622
681,4375.97,0.2057616
682,4378.71,0.195646
683,4381.45,0.186685
684,4384.19,0.1907183
685,4386.93,0.19132
686,4389.67,0.1877042
687,4392.41,0.1889348
688,4395.15,0.1965026
689,4397.889999999999,0.190881
690,4400.63,0.1977604
691,4403.37,0.1934777
692,4406.11,0.1901818
693,4408.85,0.1908594
694,4411.59,0.2058378
695,4414.33,0.1853896
696,4417.07,0.191651
697,4419.81,0.1990887
698,4422.55,0.1899867
699,4425.29,0.1898946
700,4428.03,0.1995821
701,4430.77,0.1946164
702,4433.51,0.1876991
703,4436.25,0.2015987
704,4438.99,0.1848856
705,4441.73,0.1964433
706,4444.47,0.1949417
707,4447.21,0.2020596
708,4449.95,0.1913096
709,4452.6900000000005,0.207226
710,4455.43,0.2046347
711,4458.17,0.1889732
712,4460.91,0.198574
713,4463.650000000001,0.2059412
714,4466.39,0.1978151
715,4469.13,0.1895154
716,4471.87,0.1998697
717,4474.61,0.2039518
718,4477.35,0.2108095
719,4480.09,0.2053993
720,4482.83,0.1905943
721,4485.57,0.191993
722,4488.3099999999995,0.2022171
723,4491.05,0.1883175
724,4493.79,0.1860569
725,4496.54,0.1991426
726,4499.28,0.1946973
727,4502.0199999999995,0.1897913
728,4504.76,0.2006768
729,4507.5,0.1956569
730,4510.24,0.1921332
731,4512.98,0.1958955
732,4515.719999999999,0.1996143
733,4518.46,0.2019996
734,4521.2,0.1916942
735,4523.9400000000005,0.1943072
736,4526.68,0.2000752
737,4529.42,0.1804185
738,4532.16,0.186837
739,4534.9,0.1873629
740,4537.64,0.2011432
741,4540.38,0.1986821
742,4543.12,0.1784886
743,4545.86,0.1901656
744,4548.599999999999,0.1805704
745,4551.34,0.1859264
746,4554.08,0.1912987
747,4556.82,0.1892496
748,4559.5599999999995,0.1938629
749,4562.3,0.2004767
750,4565.04,0.1942858
751,4567.78,0.1839261
752,4570.52,0.1943129
753,4573.26,0.1985902
754,4576.0,0.1932721
755,4578.74,0.1970018
756,4581.48,0.1881113
757,4584.22,0.1887889
758,4586.96,0.1892606
759,4589.7,0.191879
760,4592.44,0.1921067
761,4595.179999999999,0.1982108
762,4597.92,0.1927681
763,4600.66,0.1916243
764,4603.400000000001,0.1967147
765,4606.14,0.1964165
766,4608.88,0.1894288
767,4611.62,0.195598
768,4614.360000000001,0.1954842
769,4617.11,0.19853
770,4619.849999999999,0.1918513
771,4622.59,0.2067917
772,4625.33,0.2019995
773,4628.070000000001,0.1971911
774,4630.81,0.1959388
775,4633.55,0.1955865
776,4636.29,0.1956786
777,4639.03,0.1865063
778,4641.77,0.1950336
779,4644.51,0.1992566
780,4647.25,0.1993976
781,4649.99,0.1878941
782,4652.73,0.1897427
783,4655.47,0.1931146
784,4658.21,0.1979936
785,4660.95,0.200509
786,4663.69,0.1972781
787,4666.429999999999,0.1937002
788,4669.17,0.1977226
789,4671.91,0.1929684
790,4674.650000000001,0.19698
791,4677.39,0.1862897
792,4680.13,0.2004929
