,lambda (Angstroms),Total Flux (erg/s/cm^2/Angstrom)
0,101.99,30.106876385359367
1,103.89,30.021093303887504
2,104.712855,29.983943847726295
3,106.07000000000001,29.66202759387068
4,108.03999999999999,29.19475301546641
5,110.05,28.718029884875254
6,113.91,27.802478743440503
7,117.92,26.851349523104915
8,120.22644299999999,26.305067037239915
9,120.94000000000001,26.163414666735285
10,124.89999999999999,25.37616150710657
11,126.92999999999999,24.97255743700902
12,128.10999999999999,24.737974033725713
13,131.09,24.145485065247534
14,132.0,23.964872092893458
15,134.14000000000001,23.539382823972886
16,136.95000000000002,22.981158406857553
17,138.038426,22.76477261455866
18,140.14000000000001,22.466174957547608
19,143.07999999999998,22.053785358228428
20,147.09,21.4954462578543
21,150.86,20.960554608342964
22,155.09,20.360639575761283
23,158.489319,19.878738109415004
24,159.06,19.817629047285386
25,162.02,19.50056163302657
26,166.18,19.05532358650067
27,170.04999999999998,18.640713811439312
28,172.81,18.34531986922501
29,176.83999999999997,17.913633188528042
30,180.12,17.562163432997995
31,181.79000000000002,17.3834474004263
32,181.970086,17.364153168199103
33,186.03,17.032628927811967
34,190.8,16.643262777794863
35,193.9,16.39046335709192
36,197.96,16.058914974687422
37,202.1,15.72104584297446
38,204.91,15.491700761014696
39,208.929613,15.162056370438249
40,210.17000000000002,15.085573995168355
41,216.06,14.72643123285374
42,220.07999999999998,14.480234967419996
43,223.14000000000001,14.292052233433115
44,226.76000000000002,14.070701136102231
45,229.92,13.901366650089638
46,234.19,13.687936574591607
47,239.88329199999998,13.367940750798512
48,240.2,13.354618207802687
49,245.79,13.077565759337222
50,252.1,12.78612681965617
51,256.79,12.534761960210188
52,259.76,12.415999946445888
53,263.98,12.22322696459897
54,268.89,11.988574341170452
55,273.89,11.748939668839983
56,275.42287,11.675186962527695
57,278.98,11.543331706645738
58,284.17,11.353789774647908
59,290.12,11.128561137771783
60,296.19,10.90663635275698
61,301.0,10.725928673198297
62,308.02,10.470620757085628
63,316.227766,10.171400670560761
64,318.11,10.120149437609452
65,327.77,9.854060255567656
66,337.72999999999996,9.578090090232635
67,347.98999999999995,9.294127041604389
68,356.92,9.0495739455761
69,363.078055,8.883027078122973
70,366.08000000000004,8.822363470451663
71,374.6,8.645017225282462
72,385.1,8.42167022032042
73,394.97999999999996,8.224329548222805
74,405.10999999999996,8.018558940292758
75,413.59,7.8425114488567464
76,416.86938299999997,7.77373576915079
77,422.25,7.686823225428244
78,430.1,7.561195950961561
79,441.14,7.389042981775297
80,451.41,7.226079428555827
81,459.8,7.090487870813728
82,470.51000000000005,6.9211157941846615
83,478.630092,6.794665749823037
84,480.37000000000006,6.773827282149009
85,490.43,6.647168353382873
86,499.53999999999996,6.540079949569802
87,506.49,6.452287742807909
88,512.36,6.391773069571605
89,519.48,6.3035432492917955
90,530.36,6.168562904145118
91,540.22,6.0427293901059445
92,549.5408739999999,5.928314303013852
93,550.27,5.921435044522025
94,560.5,5.832795589343615
95,569.6,5.751521441413651
96,580.19,5.651627066580867
97,589.62,5.56439104396773
98,600.58,5.457427027823509
99,610.34,5.359688920527196
100,620.26,5.279945956717828
101,630.34,5.184081556395407
102,630.957344,5.178538737099438
103,640.58,5.110362766382161
104,649.4900000000001,5.042952316504532
105,658.53,4.973663946673581
106,664.6199999999999,4.932279351167995
107,675.4200000000001,4.854059848892079
108,684.81,4.779737643802187
109,694.3399999999999,4.713867132608717
110,705.62,4.624832085120538
111,715.4399999999999,4.559304315569661
112,724.43596,4.493381333462143
113,725.3900000000001,4.488170758884331
114,735.48,4.43294743670702
115,745.71,4.375636885074327
116,754.35,4.327733234399206
117,764.8399999999999,4.264961416635085
118,775.48,4.21196827802591
119,784.46,4.159944190102
120,795.38,4.102416132582056
121,804.59,4.05278135269573
122,815.78,3.99191476765469
123,825.23,3.940526244416277
124,831.763771,3.9005409430269795
125,834.78,3.886177125489077
126,844.45,3.8520419781879136
127,854.23,3.811432672902973
128,864.12,3.7717969696342553
129,874.12,3.73097072838176
130,884.25,3.6895244986029816
131,894.48,3.6476891061116787
132,904.8399999999999,3.6047393150940934
133,915.32,3.562227540821478
134,925.92,3.5543179132938327
135,934.49,3.554730495830444
136,945.3100000000001,3.5410418323352437
137,954.0500000000001,3.5236533052605625
138,954.992586,3.520707521441239
139,965.1,3.4899970391032213
140,974.0300000000001,3.366673666834223
141,985.31,3.3790567039681205
142,994.4300000000001,3.337882484204037
143,1005.94,3.318449944896516
144,1015.25,3.283685197637348
145,1024.64,3.196712612485512
146,1034.1200000000001,3.189397272204426
147,1046.1,3.184941322777484
148,1055.78,3.139846937764729
149,1065.55,3.075882197622724
150,1075.41,3.0490147023514664
151,1085.36,2.9863209519509604
152,1095.4,2.9715477464212015
153,1096.4782,2.966486758783428
154,1105.54,2.9304089793142736
155,1115.77,2.8928710385854464
156,1126.09,2.8428720784367165
157,1133.89,2.8384321620452337
158,1144.39,2.796276963056701
159,1154.98,2.761847144648266
160,1165.66,2.7247949068199304
161,1173.74,2.6581589411220876
162,1184.6,2.656084764453948
163,1195.56,2.6010607773192507
164,1203.8500000000001,2.5577243796416376
165,1214.99,2.5006035936671367
166,1226.23,2.4981170372260784
167,1234.73,2.490390247568695
168,1246.16,2.4566659812411773
169,1254.79,2.4246054079772694
170,1258.92541,2.408994983937919
171,1266.41,2.387659707953773
172,1275.1799999999998,2.3810973073909842
173,1284.02,2.3620852675990727
174,1295.9,2.315494995571029
175,1304.8899999999999,2.2943129288595725
176,1313.93,2.2887294198415997
177,1326.0900000000001,2.2547756908970706
178,1335.28,2.2242992549595524
179,1344.54,2.2130278797929126
180,1353.8600000000001,2.187836513858454
181,1366.38,2.1494227403070143
182,1375.8500000000001,2.1276916474530094
183,1385.3899999999999,2.104474715369885
184,1395.0000000000002,2.059165144057637
185,1404.66,2.0349316404388746
186,1414.4,2.029557629129688
187,1424.2099999999998,2.0046338885913797
188,1434.0800000000002,1.984146257285252
189,1440.7,1.970423775902622
190,1445.43977,1.959546234136421
191,1447.3500000000001,1.9564861699228033
192,1454.03,1.9421555475654664
193,1464.1100000000001,1.9200051642478073
194,1474.26,1.9037472328515537
195,1484.47,1.8878395516736473
196,1494.76,1.870464064120204
197,1505.13,1.8490642701912234
198,1512.0700000000002,1.8306208521133904
199,1515.56,1.8278115664805903
200,1526.06,1.8095893246913626
201,1536.6399999999999,1.7816998765265977
202,1543.74,1.7664471656976908
203,1554.44,1.7480062679696204
204,1565.21,1.7361128621629554
205,1576.06,1.722466609980753
206,1583.33,1.7124786481038303
207,1594.31,1.6950725180613806
208,1605.3600000000001,1.6751666799403355
209,1616.4899999999998,1.6560793354437546
210,1623.95,1.6418435559249311
211,1635.21,1.626808283568102
212,1646.54,1.608482443132678
213,1654.14,1.5934842674566652
214,1659.58691,1.586100495814523
215,1665.61,1.5808263414381847
216,1673.3,1.5656627370357903
217,1677.15,1.5695150853518869
218,1684.89,1.561015116122429
219,1696.57,1.5439680745203535
220,1704.41,1.5327611156367682
221,1716.22,1.515880947484327
222,1724.14,1.50588225687744
223,1736.0900000000001,1.4957143332092202
224,1744.1100000000001,1.4850753129482057
225,1756.2,1.4736527137642075
226,1764.3,1.4606652917798917
227,1776.53,1.446315047080115
228,1784.73,1.4380629254416715
229,1792.97,1.431239077941577
230,1805.4,1.4166426539335457
231,1813.73,1.4022787057447366
232,1826.3,1.3890850962209274
233,1834.73,1.377814968377991
234,1843.2,1.3634383346734031
235,1855.98,1.3493748268759265
236,1864.5400000000002,1.3411762024826241
237,1873.15,1.334119773262258
238,1886.13,1.3150015661565269
239,1894.8400000000001,1.3034707472820335
240,1903.59,1.2963808525458898
241,1905.46072,1.2939517608658175
242,1916.78,1.2826468819123586
243,1925.63,1.273009181101549
244,1934.5200000000002,1.2666098145017641
245,1943.4499999999998,1.2626299721130039
246,1956.92,1.2475425026755342
247,1965.9499999999998,1.2448311558143355
248,1975.0300000000002,1.2379251317169173
249,1984.14,1.2287631632777676
250,1993.3000000000002,1.2200053476023984
251,2007.1200000000001,1.2095955575113944
252,2016.38,1.2010303473635866
253,2025.69,1.19337615997956
254,2035.04,1.1847583868065579
255,2044.43,1.1790615678445804
256,2053.87,1.1661791316463834
257,2063.35,1.159396339659211
258,2072.87,1.1567879018830636
259,2077.65,1.1631434201005018
260,2087.24,1.1641078221936474
261,2096.88,1.1511951970505734
262,2106.56,1.1423817061185242
263,2116.28,1.138952369397499
264,2126.0499999999997,1.1266972754402556
265,2135.86,1.1152860856940359
266,2145.7200000000003,1.115663098711597
267,2155.62,1.1082561359401832
268,2165.57,1.0935288659325495
269,2175.57,1.085473358688697
270,2185.61,1.0864183056558692
271,2187.7616199999998,1.0846091535588536
272,2195.7,1.0800453101319167
273,2205.83,1.0727112528948135
274,2216.0099999999998,1.055128374615079
275,2226.24,1.0550754652927132
276,2236.52,1.0642910349277157
277,2246.84,1.0549037157286134
278,2257.21,1.0353105954868798
279,2262.42,1.0293135148446972
280,2272.8599999999997,1.0277784591432801
281,2283.35,1.0378237623992312
282,2293.89,1.0195345546125512
283,2304.48,1.0248385957832398
284,2315.12,1.0084302859112972
285,2325.8,0.9889824472052493
286,2336.54,0.9815451552480442
287,2347.32,0.9645257744567337
288,2352.73,0.9829927996440261
289,2363.59,0.9576611511845056
290,2374.5,0.9591402216823539
291,2385.46,0.939086591137571
292,2396.47,0.9387476495501567
293,2407.54,0.9320997447115846
294,2413.09,0.9335708789795093
295,2424.22,0.9510016908897799
296,2435.41,0.9451485595488929
297,2446.65,0.9509362771653743
298,2452.3,0.9526399293480364
299,2463.61,0.9334818015048341
300,2474.99,0.9194643882019482
301,2486.41,0.8905726860649571
302,2492.14,0.893114700579409
303,2503.64,0.9131905107742079
304,2511.88643,0.8818445655185033
305,2515.2000000000003,0.8697190059151076
306,2526.81,0.8619067735795557
307,2532.64,0.8775699166186367
308,2544.3300000000004,0.8748445997450269
309,2556.0699999999997,0.9156831612851322
310,2567.87,0.8839869669216941
311,2573.7900000000004,0.9030187311054606
312,2585.67,0.8868581022039653
313,2597.6,0.8732533217161844
314,2603.59,0.8609047856791507
315,2615.6099999999997,0.8497473263360557
316,2627.68,0.8653221754066743
317,2633.74,0.9263092491488412
318,2645.9,0.9707390593641454
319,2652.0,1.0540817258372834
320,2664.24,0.9387471815145307
321,2676.5299999999997,0.9580237156054924
322,2682.7000000000003,0.99019157185783
323,2695.09,0.91781726277622
324,2707.53,0.9557946321083242
325,2713.77,0.8930937781398623
326,2726.29,0.8528476929339094
327,2732.58,0.8838615173791614
328,2745.19,0.816159203317894
329,2757.8599999999997,0.8411407833530841
330,2764.22,0.875047497577536
331,2776.98,0.8791303487574114
332,2783.3799999999997,0.812193785712835
333,2796.23,0.7577433280373959
334,2802.67,0.7638324877237905
335,2815.61,0.8431581511930373
336,2822.1000000000004,0.9067428892931463
337,2835.13,0.8879743439070789
338,2848.21,0.8236332769347253
339,2854.78,0.7634309704967772
340,2867.96,0.8729650503518523
341,2874.57,0.9517447566448756
342,2884.0315,0.9281168821003563
343,2887.8399999999997,0.9190697072669521
344,2894.5,0.9833722028138165
345,2907.8500000000004,1.0988905132568552
346,2928.0099999999998,1.0328430159933095
347,2948.31,0.9943534423598778
348,2968.7400000000002,1.0046591192401235
349,2989.3199999999997,1.0036503928669207
350,3010.04,0.9967126901238319
351,3030.91,1.0204224841272942
352,3051.92,1.0310079017608706
353,3073.07,1.0709367430245613
354,3087.26,1.0532151952482858
355,3108.66,1.1309086644228947
356,3130.2000000000003,1.080204957227618
357,3151.9,1.077176819895329
358,3166.4500000000003,1.126212004310776
359,3188.4,1.0401721948894052
360,3210.5,1.0852974822145858
361,3232.75,0.9933076662863172
362,3247.68,1.1810837291263598
363,3270.19,1.2863346142254461
364,3292.86,1.2646362691875206
365,3308.05,1.207636433054918
366,3311.31121,1.1990415426753143
367,3323.32,1.1684176980114667
368,3330.99,1.193451082668357
369,3338.66,1.1232762673252477
370,3346.3599999999997,1.2258784324957894
371,3354.07,1.2007745245042152
372,3361.81,1.1404215970262923
373,3369.56,1.1515662963862532
374,3377.3199999999997,1.130217222584098
375,3385.11,1.1341415292955943
376,3392.9100000000003,1.2050412628449743
377,3400.73,1.2811509500701221
378,3408.57,1.1986746909710375
379,3416.43,1.1206550855477206
380,3424.31,1.2814238338001713
381,3432.2000000000003,1.3230941088905057
382,3440.11,1.2046145376566078
383,3448.04,1.0624607200984775
384,3455.99,1.176360456216115
385,3463.96,1.06292454600952
386,3471.94,1.215606962640809
387,3479.95,1.0347116597857493
388,3487.9700000000003,1.1339565837685734
389,3496.0099999999998,1.0889321614271652
390,3504.07,1.2878601927615243
391,3512.15,1.2120569777716517
392,3520.2400000000002,1.2880587896196625
393,3528.3599999999997,1.007850081981325
394,3536.49,1.2303038011808711
395,3538.4700000000003,1.4308128150818675
396,3541.17,1.321590561310499
397,3543.87,1.2696586075391307
398,3546.58,1.433166080605646
399,3549.28,1.4403006268342775
400,3551.98,1.2466209730629092
401,3554.6899999999996,1.2665519461294248
402,3557.3900000000003,1.291115592358056
403,3560.09,1.2489204385866877
404,3562.7999999999997,1.1290404116532031
405,3565.5,1.2189637578818346
406,3568.2000000000003,1.2166840041104663
407,3570.91,1.1095531771769815
408,3573.6099999999997,1.1902777234056132
409,3576.31,1.2564242696342447
410,3579.02,1.1106154427007602
411,3581.72,1.1039243889293917
412,3584.4199999999996,1.0359076351580234
413,3587.13,1.0097270082245386
414,3589.83,1.0779817544531702
415,3592.5299999999997,1.2125009006818017
416,3595.2400000000002,1.3273785737483172
417,3597.94,1.2867975199769486
418,3600.64,1.2393305662055805
419,3603.3500000000004,1.2679223392720957
420,3606.05,1.1823153855007273
421,3608.75,1.218121931729359
422,3611.46,1.2306832047958742
423,3614.1600000000003,1.1838079510245056
424,3616.86,1.1800217972531373
425,3619.5699999999997,1.2656356703196527
426,3622.2700000000004,1.2899304165482843
427,3624.9700000000003,1.3229935627769158
428,3627.68,1.3804726358434314
429,3630.38,1.3105737820720629
430,3633.0800000000004,1.2990952283006942
431,3635.79,1.2677602013672098
432,3638.49,1.3260528475958415
433,3641.19,1.308656993824473
434,3643.9,1.2722114668909883
435,3646.6,1.22226991311962
436,3649.2999999999997,1.2916981593482515
437,3652.0099999999998,1.293876832414767
438,3654.71,1.4141405786433983
439,3657.41,1.3794231248720301
440,3660.12,1.3881642979385456
441,3662.82,1.529784244167177
442,3665.52,1.4110403903958084
443,3668.23,1.390248663462324
444,3670.93,1.3698406096909554
445,3673.63,1.341201755919587
446,3676.34,1.3040029289861024
447,3679.04,1.341100675214734
448,3681.7400000000002,1.3420488214433655
449,3684.4500000000003,1.300976894509881
450,3687.15,1.3234425407385126
451,3689.85,1.3787767869671441
452,3692.56,1.4825726600336595
453,3695.26,1.491320906262291
454,3697.96,1.5063631524909227
455,3700.6699999999996,1.460503125557438
456,3703.3700000000003,1.3571979717860696
457,3706.07,1.3519060180147013
458,3708.7799999999997,1.3087359910812166
459,3711.4799999999996,1.3114592373098481
460,3714.1800000000003,1.3662016835384796
461,3716.89,1.389628856604995
462,3719.5899999999997,1.296436902833627
463,3722.29,1.1581649490622583
464,3725.0,1.2394754221287736
465,3727.7,1.2771110683574052
466,3730.3999999999996,1.1972061145860369
467,3733.11,1.130044287652552
468,3735.81,1.1434723338811836
469,3738.5099999999998,1.0879358801098153
470,3741.2200000000003,1.1885050531763306
471,3743.92,1.1475470994049624
472,3746.62,1.1635571456335938
473,3749.3300000000004,1.1465318187001092
474,3752.03,1.2183805649287407
475,3754.73,1.2580604111573723
476,3757.44,1.2241970842238876
477,3760.1400000000003,1.2008837304525193
478,3762.84,1.2692896766811508
479,3765.5499999999997,1.2848632497476662
480,3768.25,1.2862415959762978
481,3770.9500000000003,1.3342597422049294
482,3773.66,1.3895332152714448
483,3776.36,1.4266310615000763
484,3779.0600000000004,1.422737907728708
485,3781.77,1.4144261807952234
486,3784.47,1.429899027023855
487,3787.18,1.3482123000903703
488,3789.88,1.279389146319002
489,3792.58,1.2695243925476334
490,3795.29,1.2042990656141488
491,3797.99,1.1710875118427804
492,3800.69,1.234167858071412
493,3801.8939600000003,1.261711429899153
494,3803.4,1.2962563861260208
495,3806.1,1.3635335776229403
496,3808.8,1.3319910691198598
497,3811.51,1.2227633887334346
498,3814.21,1.216342480230354
499,3816.91,1.2505361717272736
500,3819.6200000000003,1.1529820913408482
501,3822.32,1.0874949828377678
502,3825.02,1.0936078743346873
503,3827.7299999999996,0.9965922939482621
504,3830.4300000000003,0.9498736854451815
505,3833.13,1.000479676942101
506,3835.8399999999997,1.0225109965556758
507,3838.5399999999995,1.0052769880525954
508,3841.2400000000002,0.9767998795495147
509,3843.95,1.1104004991630896
510,3846.6499999999996,1.090423190660009
511,3849.3500000000004,1.1271986821569284
512,3852.06,1.1293258017705032
513,3854.7599999999998,1.1396883932674229
514,3857.4599999999996,1.0830771847643423
515,3860.17,1.123828604377917
516,3862.87,1.1419913958748364
517,3865.5699999999997,1.110932387371756
518,3868.28,1.1961716069853308
519,3870.98,1.1728053984822502
520,3873.68,1.1664381899791698
521,3876.3900000000003,1.1649070095927445
522,3879.09,1.141755901089664
523,3881.79,1.1258131925865835
524,3884.5,1.1445626122001582
525,3887.2000000000003,1.1917207036970776
526,3889.9,1.2851419951939973
527,3892.61,1.330949314807572
528,3895.31,1.3705227063044916
529,3898.01,1.362649497801411
530,3900.72,1.366927417414986
531,3903.42,1.3827776089119053
532,3906.1200000000003,1.3995959004088248
533,3908.83,1.4554092200223996
534,3911.5299999999997,1.4749168115193192
535,3914.23,1.4934574030162384
536,3916.94,1.4612625226298133
537,3919.64,1.395990714126733
538,3922.34,1.3054354056236523
539,3925.0499999999997,1.1618334252372269
540,3927.75,1.1085575167341466
541,3930.45,0.9755581082310661
542,3933.16,0.8469819278446409
543,3935.86,0.8915195193415604
544,3938.56,0.9732885108384799
545,3941.27,1.0665973304520544
546,3943.97,1.2239798219489741
547,3946.67,1.3304195134458936
548,3949.38,1.4135061330594683
549,3952.08,1.4269893245563878
550,3954.7799999999997,1.4208379160533073
551,3957.4900000000002,1.346791035666882
552,3960.19,1.3011004271638016
553,3962.89,1.1720283186607212
554,3965.6000000000004,1.0622093382742959
555,3968.3,1.0053290297712154
556,3971.0,1.046892321268135
557,3973.7099999999996,1.1489693408817097
558,3976.4100000000003,1.300865032378629
559,3979.11,1.4879958238755486
560,3981.8199999999997,1.5778609434891233
561,3984.5199999999995,1.659770534986043
562,3987.2200000000003,1.7298461264829623
563,3989.93,1.693346246096537
564,3992.6299999999997,1.7543848375934565
565,3995.3300000000004,1.758669429090376
566,3998.04,1.738577548703951
567,4000.74,1.7899861402008703
568,4003.4399999999996,1.8546827316977899
569,4006.15,1.8379258513113645
570,4008.85,1.908538442808284
571,4011.5499999999997,1.9980340343052037
572,4014.26,1.9551331539187782
573,4016.96,1.9360177454156977
574,4019.66,1.9346543369126172
575,4022.37,1.942749456526192
576,4025.07,1.9185240480231114
577,4027.77,1.8860676395200309
578,4030.48,1.8329997591336058
579,4033.1800000000003,1.8486353506305253
580,4035.89,1.8780334702441002
581,4038.59,1.8901730617410197
582,4041.29,1.8373816532379392
583,4044.0,1.7943737728515137
584,4046.7,1.8066203643484333
585,4049.4,1.8105289558453528
586,4052.1099999999997,1.8731720754589276
587,4054.81,1.8611576669558472
588,4057.5099999999998,1.8050312584527668
589,4060.22,1.7845093780663412
590,4062.92,1.7724399695632609
591,4065.62,1.7619855610601804
592,4068.33,1.785789680673755
593,4071.0299999999997,1.8020172721706746
594,4073.73,1.781502863667594
595,4076.44,1.818970983281169
596,4079.14,1.8486465747780882
597,4081.8399999999997,1.8939231662750078
