,lambda (Angstroms),Total Flux (erg/s/cm^2/Angstrom)
0,100.09,43.96499364706636
1,101.94999999999999,43.842683367824065
2,104.09,43.70196078848073
3,104.712855,43.66100295569775
4,106.02000000000001,43.20949117073892
5,107.99,42.52901714806665
6,110.0,41.8347263939775
7,114.13,40.40814887438165
8,117.87,39.11628448619636
9,120.22644299999999,38.30232598526441
10,120.89000000000001,38.1101618890592
11,125.14000000000001,36.8793747689757
12,126.88,36.37547604221419
13,128.05,36.03664758801231
14,131.04,35.17075264953771
15,131.95,34.90721940761746
16,134.09,34.28748189319039
17,136.9,33.473714409815194
18,138.038426,33.14402969049352
19,140.09,32.71935555698478
20,143.02,32.112847968862354
21,147.03,31.28278127875506
22,151.15,30.429944668906774
23,155.02,29.628857856367013
24,158.489319,28.910711683296547
25,159.0,28.83079257255767
26,161.95999999999998,28.367566866177835
27,166.11,27.7181119096293
28,169.98,27.112475604375117
29,173.14,26.61795087139538
30,177.17,25.98727534606268
31,180.05,25.536569267423516
32,181.970086,25.23608509061401
33,182.14000000000001,25.215798910578446
34,185.95000000000002,24.760919708254363
35,191.16,24.138893296806806
36,193.82,23.821313607008165
37,197.88,23.336586706266562
38,202.02,22.842308546417712
39,204.83,22.506820242062687
40,208.929613,22.017363913164264
41,210.09,21.913207858423267
42,215.97000000000003,21.3854205816532
43,219.99,21.02458642109848
44,223.04999999999998,20.749921606853682
45,227.19,20.378316300845142
46,229.82,20.142248849412134
47,234.1,19.758078404885907
48,239.88329199999998,19.238972757666463
49,240.1,19.223983185682968
50,246.26,18.79789828331286
51,252.0,18.400865311082924
52,257.27,18.036340627622646
53,260.25,17.83021622695108
54,263.87,17.57982284076817
55,268.78,17.240200391036467
56,273.78,16.894352644937868
57,275.42287,16.7807160725776
58,278.87,16.59772685925959
59,284.05,16.322749194909665
60,290.0,16.006895971125562
61,296.07,15.68467325832642
62,300.88,15.429336605815203
63,307.89,15.057214604694911
64,316.227766,14.614608946031451
65,317.98,14.545134927471759
66,327.64,14.162127099605978
67,338.37,13.736694749959165
68,347.85,13.360823599032246
69,356.78000000000003,13.006759595314085
70,363.078055,12.757049308052832
71,365.93,12.672367398246545
72,375.31,12.3938494146198
73,384.94,12.107907491913906
74,394.82000000000005,11.814544473458868
75,404.94,11.514054591712252
76,414.38000000000005,11.23375514141011
77,416.86938299999997,11.159838461269139
78,422.08000000000004,11.041686605881452
79,429.93,10.86368644163568
80,440.96000000000004,10.613579930211264
81,451.23,10.380705936277215
82,459.62,10.190461025270919
83,470.32,9.947837098551267
84,478.630092,9.759405388123781
85,480.16999999999996,9.732550748581254
86,490.22999999999996,9.557111966032952
87,500.49,9.378187678773449
88,506.29,9.277064036118679
89,512.15,9.175067436815555
90,520.47,9.029995328889678
91,530.15,8.861212989707655
92,540.0,8.68943230991861
93,549.5408739999999,8.523222827626697
94,550.04,8.516591936494708
95,560.27,8.380631083815365
96,569.37,8.259690957291609
97,579.96,8.118789310937917
98,589.38,7.993710908725854
99,600.3399999999999,7.847979475751309
100,610.09,7.718545126904425
101,620.01,7.5868172237668805
102,630.0799999999999,7.4530528924316926
103,630.957344,7.441386439925665
104,640.32,7.342702480683206
105,650.72,7.233377425191124
106,658.26,7.154078046684365
107,664.3499999999999,7.090043683275059
108,675.1400000000001,6.9763349842395215
109,684.53,6.877342523539459
110,695.6600000000001,6.760925017722451
111,705.34,6.658718120002899
112,716.8,6.538748962956814
113,724.43596,6.458438407929882
114,726.7700000000001,6.440233970295525
115,735.18,6.374680136283374
116,745.41,6.295426947543266
117,755.7800000000001,6.214785372516392
118,764.53,6.146826953093523
119,775.1700000000001,6.064311935299315
120,784.14,5.994878913140101
121,795.0500000000001,5.909976752578559
122,804.26,5.838435365070603
123,815.45,5.751311024935529
124,824.8900000000001,5.678615857885028
125,831.763771,5.6233898670553035
126,834.44,5.607178831623366
127,844.1,5.553538278962151
128,855.8499999999999,5.485328284928066
129,865.76,5.428537856734211
130,875.7800000000001,5.371147823625995
131,885.9200000000001,5.313433639702112
132,894.12,5.266613100631516
133,904.47,5.206257072780215
134,914.95,5.15544375821194
135,925.54,5.279074438729306
136,934.1099999999999,5.485639311310402
137,944.9200000000001,5.814426621999043
138,954.992586,6.015650561581179
139,955.86,6.033088866340856
140,964.71,6.110402925936871
141,975.88,4.981301642398733
142,984.91,5.72354406761365
143,994.0200000000001,5.7455575775480785
144,1005.5300000000001,6.173583629067867
145,1014.84,6.120276100801076
146,1024.23,5.295928057253797
147,1036.0900000000001,5.62496579192145
148,1045.6699999999998,6.462809462083012
149,1055.3500000000001,6.317983613143963
150,1065.11,5.861662748924428
151,1074.97,6.10241536560428
152,1084.91,5.708266967003647
153,1094.95,6.123716049302402
154,1096.4782,6.095168484063685
155,1105.09,5.943231924492345
156,1115.31,5.839309584994615
157,1125.6299999999999,5.538073494621172
158,1136.05,5.962526653372018
159,1143.9199999999998,5.765719959453512
160,1154.5,5.81055511680322
161,1165.19,5.792836648189644
162,1175.97,4.998132303787928
163,1184.1200000000001,5.680929107417429
164,1195.08,5.249694011439432
165,1206.1299999999999,4.735344039673296
166,1214.49,4.4267287664638015
167,1225.73,5.098450868033813
168,1234.23,5.574889043598322
169,1245.6499999999999,5.6220166935920535
170,1254.2800000000002,5.495714493018137
171,1258.92541,5.425733261267652
172,1265.89,5.330187891934749
173,1274.6599999999999,5.629043648061744
174,1286.46,5.64455621388826
175,1295.3799999999999,5.126754722970677
176,1304.36,5.169207733235263
177,1316.42,5.544434470851176
178,1325.55,5.384077234071184
179,1334.74,5.171592498473361
180,1343.99,5.408194264057705
181,1356.42,5.323428592296992
182,1365.8300000000002,5.08221069436712
183,1375.2900000000002,5.0901167140890555
184,1384.83,5.063095402053884
185,1394.43,4.58226359120088
186,1404.0900000000001,4.659887281530044
187,1413.8300000000002,4.8218346401021
188,1423.6299999999999,4.803072499856326
189,1433.49,4.82222386079272
190,1443.43,4.872303889972004
191,1445.43977,4.865587344618924
192,1446.76,4.862507499749375
193,1453.44,4.792633339391497
194,1463.51,4.610039973402897
195,1473.6499999999999,4.627371331781807
196,1483.87,4.617352089437866
197,1494.1599999999999,4.602578571461434
198,1504.51,4.439389102942864
199,1511.46,4.211015165145371
200,1518.43,4.293654577167165
201,1525.44,4.293582688827534
202,1536.02,4.017654743230775
203,1546.66,4.0393908470918785
204,1553.8,3.979726732577619
205,1564.5700000000002,4.052953610264092
206,1575.4199999999998,4.148507887227718
207,1586.34,4.180564888558851
208,1593.66,4.184385922418182
209,1604.71,4.1671376975746846
210,1615.8300000000002,4.141220197098694
211,1623.29,4.06127667969304
212,1634.54,4.1622719530424215
213,1645.8700000000001,4.157828625668953
214,1653.47,4.061814556998312
215,1659.58691,4.110915541449107
216,1664.93,4.157539054365336
217,1672.61,4.009339599641285
218,1676.4699999999998,4.184533699220083
219,1684.2099999999998,4.195222225318499
220,1695.8799999999999,4.066556495288593
221,1703.71,4.001260992620711
222,1715.5200000000002,3.8811735511765635
223,1723.44,3.864157019742386
224,1735.3799999999999,3.9538682034135877
225,1743.3899999999999,3.8979216432131114
226,1755.48,3.9603637789404837
227,1763.58,3.856513189973711
228,1775.81,3.8073646142868425
229,1784.0,3.844310996553771
230,1796.37,3.9158167094526624
231,1804.6599999999999,3.9201707264237062
232,1812.9899999999998,3.717872397276395
233,1825.56,3.7722003795835137
234,1833.99,3.695758685140316
235,1846.7,3.525647956033194
236,1855.22,3.5193242328237
237,1863.78,3.5513421634958506
238,1876.7,3.6633163672673676
239,1885.3700000000001,3.473857596114044
240,1894.07,3.3676768153719547
241,1902.81,3.4953006885115108
242,1905.46072,3.471915091631073
243,1916.0,3.383534038267456
244,1924.84,3.325878069025836
245,1933.7299999999998,3.4072102413609047
246,1947.1299999999999,3.448953183913201
247,1956.1200000000001,3.295473639401644
248,1965.1499999999999,3.443120208151438
249,1974.2199999999998,3.500758890162582
250,1983.3300000000002,3.3783486854350757
251,1997.08,3.327561619024186
252,2006.3,3.3859807257653927
253,2015.5600000000002,3.335959945767949
254,2024.86,3.4035212790318567
255,2034.2099999999998,3.2642617538724514
256,2043.6000000000001,3.3101253419743957
257,2053.03,3.2344060433376907
258,2067.2599999999998,3.2359473360630036
259,2072.03,3.347037842479007
260,2076.81,3.194792377210349
261,2086.39,3.2666335033037064
262,2096.02,3.164348770973752
263,2105.7000000000003,3.197523180220485
264,2115.42,3.201075702728569
265,2125.1800000000003,3.2162603384980026
266,2134.99,3.1399501158441243
267,2144.84,3.1022510064515956
268,2154.74,3.161608038635755
269,2164.69,3.1307052123966015
270,2174.68,3.103686499418799
271,2184.72,3.0508309280176835
272,2187.7616199999998,3.065203953014997
273,2194.8,3.1011889124187997
274,2204.93,3.066524193518698
275,2215.11,3.014196977486809
276,2225.34,2.9628982643231327
277,2235.61,3.0011131534540265
278,2245.93,2.9707785454531335
279,2256.29,2.91219353974681
280,2266.71,2.934816937482342
281,2277.17,2.9399199375124443
282,2282.42,2.9532997386747804
283,2292.96,2.856307943294023
284,2303.54,2.8747387502078356
285,2314.17,2.8141750599898616
286,2324.85,2.5569748726400996
287,2335.5899999999997,2.7236950887321933
288,2346.3700000000003,2.708054907118856
289,2357.2000000000003,2.7437752283737327
290,2362.63,2.687695239861635
291,2373.54,2.6845497657056523
292,2384.49,2.631447893844239
293,2395.5,2.6624294254246808
294,2406.55,2.6124295592996933
295,2417.6600000000003,2.615165096616561
296,2423.2400000000002,2.644843616709101
297,2434.42,2.5884114580414668
298,2445.66,2.6190907028156873
299,2456.95,2.6030214504581215
300,2462.61,2.582600175139801
301,2473.98,2.5451661273713753
302,2485.4,2.5505955824711615
303,2496.87,2.423446540439161
304,2502.63,2.5418932708572672
305,2511.88643,2.4669668077523985
306,2514.18,2.4488749791415003
307,2519.9700000000003,2.492158853215976
308,2525.78,2.4499926577708475
309,2537.44,2.442381127841381
310,2543.2900000000004,2.4126837933570426
311,2555.0299999999997,2.448441985349158
312,2566.82,2.4261070035422616
313,2572.7400000000002,2.4576144257393073
314,2584.61,2.440923165853993
315,2596.54,2.424251697409865
316,2602.53,2.394099876288295
317,2614.5400000000004,2.374774129765748
318,2626.6099999999997,2.384152174684388
319,2632.6699999999996,2.388902110244202
320,2644.82,2.4224158770844233
321,2657.03,2.417434435365831
322,2663.15,2.345917162366831
323,2675.44,2.369726442569821
324,2687.79,2.3558075142139963
325,2693.99,2.3116059631365786
326,2706.42,2.309154756702336
327,2712.66,2.2798590665857086
328,2725.18,2.2744885473132457
329,2737.76,2.291557819481968
330,2744.07,2.205242886046725
331,2756.74,2.204973845377228
332,2763.09,2.2142527729027757
333,2775.8500000000004,2.2359454193950574
334,2782.25,2.204487173121594
335,2795.09,2.0808765415354573
336,2807.9900000000002,2.114684701390507
337,2814.4599999999996,2.194389211798428
338,2827.46,2.1941040240554543
339,2833.9700000000003,2.1442663954241654
340,2847.0499999999997,2.1331539296027744
341,2853.62,2.115848092412672
342,2866.79,2.14417731375306
343,2873.3999999999996,2.129242337523748
344,2884.0315,2.1202167139747883
345,2886.66,2.1184512185325
346,2893.3199999999997,2.1047867331014185
347,2906.67,2.124965976268845
348,2926.82,2.094228066143276
349,2947.11,2.0638414881557923
350,2967.5299999999997,2.0568125042965306
351,2988.1000000000004,2.0394195905852173
352,3008.8199999999997,2.022014747021853
353,3029.67,2.0122094975867104
354,3050.6699999999996,1.992231318299517
355,3071.82,1.9747772091602718
356,3093.11,1.954860432159112
357,3107.39,1.9407733102438205
358,3128.93,1.916084983489242
359,3150.62,1.9035187268826117
360,3172.4599999999996,1.8837095404239306
361,3187.1,1.8463519868637153
362,3209.19,1.8476562506516148
363,3231.44,1.8141811225973261
364,3246.35,1.8186966953034187
365,3268.86,1.8104999555055747
366,3291.51,1.7907442478458155
367,3306.71,1.776825222837942
368,3311.31121,1.7851156332804514
369,3321.9700000000003,1.8056455723066742
370,3329.63,1.807724139999119
371,3337.3,1.784104688850431
372,3345.0,1.7608975811783454
373,3352.71,1.7788246546651272
374,3360.44,1.7488712904696437
375,3368.18,1.7484748074330279
376,3375.95,1.7083486678730142
377,3383.73,1.7209490094718676
378,3391.5299999999997,1.749523313388456
379,3399.35,1.7720947796227797
380,3407.1800000000003,1.71297722701597
381,3415.04,1.7213196178857633
382,3422.9100000000003,1.7524764899144236
383,3430.8,1.740642824260819
384,3438.71,1.7424852209249493
385,3446.6400000000003,1.695159079906814
386,3454.58,1.7056250200475467
387,3462.5499999999997,1.6703328036648815
388,3470.53,1.6870262684410833
389,3478.53,1.6606558955350201
390,3486.5499999999997,1.657932684946692
391,3494.59,1.6723281366760987
392,3502.6400000000003,1.6739280695643726
393,3510.72,1.645497645929249
394,3518.81,1.6469898034529926
395,3526.92,1.6463460232944716
396,3535.05,1.6628972054536846
397,3543.2000000000003,1.6710176499306328
398,3551.37,1.674817856725316
399,3559.55,1.6567253446788666
400,3567.7599999999998,1.6517579761090193
401,3575.99,1.598441669856907
402,3584.23,1.581455644763662
403,3592.49,1.5746512819881522
404,3600.77,1.6128466815303766
405,3609.0699999999997,1.597537643390336
406,3617.39,1.6051163675680307
407,3625.7299999999996,1.63419505406346
408,3634.0899999999997,1.629185602876624
409,3642.47,1.630659314007523
410,3650.86,1.5979576062972893
411,3650.9599999999996,1.3536759178859636
412,3653.6400000000003,1.7111756684624322
413,3656.32,1.7320166190389013
414,3658.99,1.5811236884565028
415,3661.67,1.5321823390329716
416,3664.35,1.6284886896094404
417,3667.03,1.4661113401859092
418,3669.7000000000003,1.4927927096035107
419,3672.38,1.6298099601799796
420,3675.06,1.3503471107564486
421,3677.74,1.7616072613329172
422,3680.41,1.8208752307505187
423,3683.09,1.4485812813269876
424,3685.77,1.8032191319034565
425,3688.45,1.6539459824799256
426,3691.12,1.5313101518975267
427,3693.7999999999997,1.5590286024739957
428,3696.4799999999996,1.5992410530504646
429,3699.1600000000003,1.5556311036269332
430,3701.83,1.503929973044535
431,3704.5099999999998,1.581923023621004
432,3707.19,1.5784674741974727
433,3709.87,1.4091716247739416
434,3712.5399999999995,1.5539286941915431
435,3715.2200000000003,1.5840618447680117
436,3717.9,1.8277325953444807
437,3720.58,2.3215795459209496
438,3723.25,3.503439515338551
439,3725.9300000000003,5.13403646591502
440,3728.61,5.681545416491489
441,3731.29,4.999463367067958
442,3733.96,2.9982743364855593
443,3736.64,2.0755382870620283
444,3739.3199999999997,1.924093237638497
445,3741.9999999999995,1.6483068882149658
446,3744.67,1.6789231576325672
447,3747.35,1.5838581082090362
448,3750.0299999999997,1.684139058785505
449,3752.71,1.7497460093619739
450,3755.3799999999997,1.5328158787795754
451,3758.06,1.777828929356044
452,3760.7400000000002,1.6488232799325129
453,3763.42,1.719178830508982
454,3766.09,1.6975257999265834
455,3768.77,1.7775537505030523
456,3771.4500000000003,1.616044101079521
457,3774.13,1.53767905165599
458,3776.8,1.7658796210735914
459,3779.48,1.7608765716500603
460,3782.16,1.8989245222265292
461,3784.8399999999997,1.757085472802998
462,3787.51,1.7461904422205996
463,3790.19,1.8248613927970685
464,3792.87,1.7923483433735374
465,3795.5499999999997,1.7812822939500061
466,3798.22,1.7429842633676076
467,3800.8999999999996,1.7139982139440764
468,3801.8939600000003,1.755049485375066
469,3803.58,1.8248317864030796
470,3806.26,1.76831138541327
471,3808.93,1.9108211277107359
472,3811.61,1.8141997267209262
473,3814.29,1.7867093257311168
474,3816.9700000000003,1.8632269247413071
475,3819.6400000000003,1.7681746670387732
476,3822.32,1.7424202660489636
477,3825.0,1.7547318650591541
478,3827.68,1.6332456640693445
479,3830.3500000000004,1.6447642063668102
480,3833.03,1.6830818053770007
481,3835.71,1.7317084043871913
482,3838.39,1.4099520033973818
483,3841.06,1.6915357456948477
484,3843.74,1.6180716447050383
485,3846.4199999999996,1.7886409437152286
486,3849.1,1.8400205427254193
487,3851.77,1.806692285022885
488,3854.45,1.8780148840330755
489,3857.1299999999997,1.9575034830432658
490,3859.8100000000004,1.9260920820534562
491,3862.48,1.951570824350922
492,3865.1600000000003,1.9854384233611126
493,3867.84,1.979219022371303
494,3870.52,1.9454886213814935
495,3873.19,1.9370803636789593
496,3875.8700000000003,1.8105869626891498
497,3878.55,1.7252805616993405
498,3881.23,1.7175691607095307
499,3883.9,1.6744859030069965
500,3886.58,1.8298745020171872
501,3889.2599999999998,1.863905101027378
502,3891.94,1.791268700037568
503,3894.61,1.7533674423350338
504,3897.29,1.8457980413452244
505,3899.97,1.836404640355415
506,3902.6499999999996,1.8058892393656056
507,3905.3199999999997,1.9905339816630714
508,3908.0,1.9575895806732617
509,3910.6800000000003,1.7555361796834523
510,3913.36,2.0328937786936425
511,3916.0299999999997,1.9276135209911085
512,3918.71,1.957329120001299
513,3921.3900000000003,1.9835587190114894
514,3924.07,1.8299213180216798
515,3926.7400000000002,1.7952630603191455
516,3929.42,1.921418659329336
517,3932.1,1.8253122583395265
518,3934.7799999999997,1.7589978573497171
519,3937.4500000000003,1.6928805996471832
520,3940.13,1.7831271986573733
521,3942.81,1.9037737976675637
522,3945.49,1.8822793966777545
523,3948.16,1.7852601389752203
524,3950.8399999999997,1.8105537379854106
525,3953.52,1.9200493369956013
526,3956.2000000000003,1.9767749360057913
527,3958.87,1.8012096783032576
528,3961.5499999999997,1.7633692773134482
529,3964.2300000000005,1.6867168763236384
530,3966.9100000000003,1.732183475333829
531,3969.58,1.7066812176312949
532,3972.26,1.7078828166414852
533,3974.94,1.8237684156516756
534,3977.62,1.6888520146618662
535,3980.2900000000004,1.7529777569593321
536,3982.9700000000003,1.7614233559695225
537,3985.65,1.827387954979713
538,3988.33,1.8606035539899035
539,3991.0,1.8884562962873694
540,3993.68,1.9047828952975598
541,3996.36,1.9411194943077503
542,3999.04,1.8713720933179407
543,4001.71,1.7724798356154068
544,4004.39,1.860447434625597
545,4007.0699999999997,1.7757100336357876
546,4009.7500000000005,1.8857616326459778
547,4012.42,1.941682374943444
548,4015.1,1.9184109739536344
549,4017.78,1.8860635729638247
550,4020.46,1.910815171974015
551,4023.1299999999997,1.8470179142714813
552,4025.8100000000004,1.8261885132816713
553,4028.4900000000002,1.7895281122918618
554,4031.17,1.9256667113020525
555,4033.84,1.8298134535995183
556,4036.52,1.9025870526097086
557,4039.2,1.8556036516198993
558,4041.88,1.7824372506300898
559,4044.55,1.8606179929275555
560,4047.23,1.8297365919377462
561,4049.91,1.7616311909479365
562,4052.5899999999997,1.885600789958127
563,4055.2599999999998,1.9173065322555929
564,4057.94,1.9306351312657835
565,4060.62,1.8662057302759738
566,4063.3,1.875044329286164
567,4065.97,2.04767007158363
568,4068.6499999999996,1.9849636705938207
569,4071.3300000000004,2.049095269604011
570,4074.01,1.9218298686142012
571,4076.68,1.9951816109116676
572,4079.36,1.8218192099218578
573,4082.04,1.8108388089320482
574,4084.72,1.8886724079422388
575,4087.3900000000003,1.8429711502397046
576,4090.07,1.708298749249895
577,4092.75,1.7763653482600854
578,4095.43,1.8586479472702762
579,4098.1,1.7890586895677418
580,4100.78,1.8740142885779325
581,4103.46,1.9104178875881228
582,4106.139999999999,1.8080184865983133
583,4108.81,1.7393512288957789
584,4111.49,1.7853458279059695
585,4114.17,1.77725442691616
586,4116.85,1.7611730259263507
587,4119.5199999999995,1.8113957682238166
588,4122.2,1.796019367234007
589,4124.88,1.8656049662441974
590,4127.56,1.8978175652543876
591,4130.23,1.826220307551854
592,4132.91,1.8168669065620442
593,4135.59,1.8549935055722346
594,4138.27,1.898859104582425
595,4140.9400000000005,1.7493808468798906
596,4143.62,1.9163414458900814
597,4146.3,1.800932044900272
