,lambda (Angstroms),Total Flux (erg/s/cm^2/Angstrom)
0,102.00000000000001,40.198620486822584
1,103.9,40.08405594903159
2,104.712855,40.03504312936526
3,106.07000000000001,39.60519190488613
4,108.05,38.978062582324284
5,110.05,38.34459862014151
6,113.91999999999999,37.11884585331923
7,117.92,35.85191792895903
8,120.22644299999999,35.12139366834582
9,120.95,34.92925562881234
10,124.91,33.877691430596265
11,126.94,33.33863200576281
12,128.12,33.025287118425865
13,131.1,32.23395850466281
14,132.01,31.99231117636223
15,133.85,31.503705589383568
16,136.96,30.67785592892254
17,138.038426,30.391483663344005
18,140.15,29.990689376878187
19,143.09,29.432652956300956
20,147.10000000000002,28.67152165377972
21,150.87,27.955944340575783
22,155.1,27.153055208105354
23,158.489319,26.5097343143597
24,159.07999999999998,26.42497244246645
25,162.02999999999997,26.00165169745963
26,166.19,25.404697701068308
27,170.06,24.84935829054777
28,172.82,24.453302281573905
29,176.85,23.875003111073248
30,180.14,23.402892872622903
31,181.8,23.164685282378844
32,181.970086,23.140278188061114
33,186.04,22.694721541212104
34,190.81,22.172522516536294
35,193.91,21.833147896300535
36,197.97,21.388676628225596
37,202.12,20.934352565977832
38,204.93,20.626725929607563
39,208.929613,20.18886559023071
40,210.19,20.085128964145348
41,216.07999999999998,19.600350432869746
42,220.09,19.270305978892658
43,223.15,19.018451604206135
44,226.78,18.719683266390074
45,229.94,18.459599347117965
46,234.21,18.10815774175175
47,239.88329199999998,17.641217437694866
48,240.22000000000003,17.619861776756174
49,245.80999999999997,17.265315401772146
50,252.11999999999998,16.865104022276498
51,256.81,16.56763908237549
52,259.78000000000003,16.379268429470798
53,264.0,16.111615707707745
54,268.91,15.80019937978047
55,273.90999999999997,15.483074862146989
56,275.42287,15.387121279625994
57,279.0,15.21300209619473
58,284.19,14.960375476761413
59,290.14000000000004,14.670754491893833
60,296.21000000000004,14.375294136807163
61,301.03000000000003,14.140677809788555
62,308.04,13.799462819203981
63,316.227766,13.400920103037976
64,318.13,13.331763291658485
65,327.79999999999995,12.980205094480723
66,337.76,12.61810381922407
67,348.02,12.245095971494084
68,356.95,11.920441980135209
69,363.078055,11.697654360498282
70,366.09999999999997,11.615378634180253
71,374.63000000000005,11.383140308339614
72,385.13,11.097263226935
73,395.01,10.828273125715345
74,405.14,10.55247502858772
75,413.62,10.321598973696679
76,416.86938299999997,10.233130702014703
77,422.28000000000003,10.120636332912772
78,430.14,9.957217204689282
79,441.17,9.727891850155425
80,451.45,9.514157379234113
81,459.84,9.339718952152422
82,469.47,9.139500573855317
83,478.630092,8.949052132908093
84,480.4,8.92075128037001
85,490.46,8.759887561750897
86,499.58000000000004,8.614063036972535
87,506.53,8.502927194720167
88,512.4,8.40907690002313
89,519.52,8.2952288338102
90,530.4,8.121254156834256
91,540.26,7.963585497121686
92,549.5408739999999,7.815185245328241
93,550.31,7.805803760610657
94,560.54,7.681029283243932
95,569.65,7.569917561054406
96,580.24,7.44073810919501
97,589.67,7.325722191812
98,600.63,7.192026545535137
99,610.39,7.072950056833845
100,620.3100000000001,6.951994599835808
101,630.38,6.829164362765828
102,630.957344,6.822122341854927
103,640.63,6.728597824722133
104,649.54,6.642451297128191
105,658.58,6.55503933936217
106,664.67,6.496166287600993
107,675.4699999999999,6.391736733205306
108,684.8700000000001,6.300831466862764
109,694.39,6.208824841661382
110,705.6800000000001,6.099634624017095
111,715.49,6.004822715931847
112,724.43596,5.918329005184379
113,725.4499999999999,5.911051944297029
114,735.54,5.8386421384409966
115,745.7700000000001,5.765248270171797
116,754.41,5.70325861358784
117,764.9,5.627953760708476
118,775.54,5.551653110207863
119,784.52,5.487222376549074
120,795.44,5.408875713022128
121,804.65,5.342800762077426
122,815.84,5.26250970663223
123,825.2900000000001,5.194743411893527
124,831.763771,5.148186771187869
125,834.84,5.13164014717046
126,844.51,5.079939906342012
127,854.2900000000001,5.027493602726062
128,864.18,4.974503436122613
129,874.1899999999999,4.920872039260072
130,884.31,4.866673730410031
131,894.5500000000001,4.811804788300898
132,904.91,4.756214748932674
133,915.39,4.700773748305357
134,925.99,4.65652014741895
135,934.56,4.628595842665506
136,945.38,4.603117146804099
137,954.13,4.590581009162017
138,954.992586,4.586211713086339
139,965.1700000000001,4.535839177225206
140,974.0999999999999,4.400260890907092
141,985.38,4.400061730294738
142,994.5,4.3700411061826205
143,1006.02,4.376609501514683
144,1015.3299999999999,4.331587759608564
145,1024.72,4.1929349396839175
146,1034.2,4.173088844488426
147,1046.18,4.241253236213957
148,1055.86,4.19062999597215
149,1065.63,4.073813980459497
150,1075.49,4.070783289676003
151,1085.44,3.958432423621665
152,1095.48,3.988775182296483
153,1096.4782,3.98285128723303
154,1105.62,3.9372970349675356
155,1115.8500000000001,3.878377139883813
156,1126.1699999999998,3.8085975049606464
157,1133.98,3.8587936033375883
158,1144.47,3.7848566709399107
159,1155.06,3.7684061164984044
160,1165.75,3.7335924400130684
161,1173.83,3.5932438188716738
162,1184.69,3.649310044911828
163,1195.65,3.486954348908153
164,1203.94,3.3895086014747164
165,1215.0800000000002,3.326185315792149
166,1226.32,3.385087428065754
167,1234.82,3.486125854340276
168,1246.25,3.476366594730604
169,1254.8899999999999,3.414451170143766
170,1258.92541,3.368830434375108
171,1263.59,3.32185327917398
172,1275.28,3.4098055017941413
173,1284.12,3.414849394348652
174,1296.0,3.247789432306524
175,1304.99,3.2176055053908055
176,1314.03,3.313554571985011
177,1326.1899999999998,3.255439553598456
178,1335.3799999999999,3.158257600722432
179,1344.64,3.242857458760301
180,1353.9599999999998,3.19997766901008
181,1366.49,3.097530122596959
182,1375.96,3.102695813376508
183,1385.5,3.080431115069951
184,1395.1,2.9940561689753014
185,1404.77,2.9818188337945455
186,1414.51,2.9565556095276824
187,1424.31,2.9515486374727287
188,1434.1899999999998,2.916668735033652
189,1440.81,2.9293708957475504
190,1445.43977,2.924329832868069
191,1447.46,2.923999514057709
192,1454.1399999999999,2.8929956382095883
193,1464.22,2.8283617465106268
194,1474.3700000000001,2.8103550388970895
195,1484.5900000000001,2.8053837153689756
196,1494.88,2.796991075926286
197,1505.24,2.7452368205690205
198,1512.1899999999998,2.673772769050392
199,1515.67,2.703169149297178
200,1526.18,2.662707874122964
201,1536.76,2.580535583034173
202,1543.85,2.617096599686392
203,1554.5500000000002,2.572770852744042
204,1565.3300000000002,2.5534409018993194
205,1576.18,2.557475735140021
206,1583.45,2.5711170680119007
207,1594.43,2.557519957411247
208,1605.48,2.529065930896017
209,1616.61,2.5114714004784138
210,1624.07,2.467228861582159
211,1635.3300000000002,2.4772068873231996
212,1646.67,2.461235609161868
213,1654.27,2.4068287384364613
214,1659.58691,2.4163358309679523
215,1665.73,2.431256803774262
216,1673.4199999999998,2.3576580274540513
217,1677.28,2.416508719574205
218,1685.0200000000002,2.436933244188192
219,1696.6999999999998,2.3853985224170526
220,1704.53,2.3529870287125982
221,1716.3500000000001,2.306113489557215
222,1724.27,2.294518877534319
223,1736.22,2.3104826008078527
224,1744.24,2.289405390653355
225,1756.3300000000002,2.3083534965426455
226,1764.4299999999998,2.2497607478828656
227,1776.6599999999999,2.2436459363879138
228,1784.8700000000001,2.2428687097833704
229,1793.1,2.2707908235525074
230,1805.53,2.2493451157943505
231,1813.87,2.1915545516187254
232,1826.44,2.185323826476325
233,1834.8700000000001,2.1530122439822574
234,1843.34,2.1010475422355492
235,1856.12,2.079539741016785
236,1864.69,2.0836841411384737
237,1873.29,2.116654501820683
238,1886.28,2.054921224525554
239,1894.98,2.02654218707616
240,1903.7299999999998,2.0403346505609656
241,1905.46072,2.035099976031032
242,1916.93,2.0050008081398167
243,1925.77,1.9910338335344988
244,1934.66,1.9949919716293774
245,1943.5900000000001,2.0039245998844124
246,1957.07,1.9598643838572989
247,1966.1000000000001,1.9968300375127261
248,1975.17,2.000372881328311
249,1984.29,1.9624860378440916
250,1993.45,1.9395426845200294
251,2007.27,1.9386956348542497
252,2016.53,1.9084333069305794
253,2025.84,1.9235259917071055
254,2035.19,1.8857814666437889
255,2044.59,1.897777454280668
256,2054.02,1.8663761095376648
257,2063.5,1.854824577494858
258,2073.0299999999997,1.8779359581522477
259,2077.81,1.8520522322910005
260,2087.4,1.861648248188625
261,2097.03,1.823986254246407
262,2106.71,1.8138974730043844
263,2116.44,1.8082326044625585
264,2126.21,1.8034770260808892
265,2136.02,1.7564091378593771
266,2145.88,1.7613480623380608
267,2155.79,1.767815099516941
268,2165.74,1.7412491268559784
269,2175.73,1.7254597443551722
270,2185.7799999999997,1.7079225970946017
271,2187.7616199999998,1.709579062418499
272,2195.86,1.7192240889313535
273,2206.0,1.697975928901696
274,2216.1800000000003,1.665712661731882
275,2226.41,1.6449813606368728
276,2236.69,1.6677783256166678
277,2247.01,1.6424262834563061
278,2257.38,1.6146002073707493
279,2262.5899999999997,1.6223995523653734
280,2273.03,1.6292393887845424
281,2283.52,1.6375308912785163
282,2294.06,1.6067019598472945
283,2304.65,1.6006408944908768
284,2315.29,1.5710551952092642
285,2325.98,1.4755057620024556
286,2336.71,1.5258853216554904
287,2347.5,1.507857420598291
288,2352.91,1.538460029892133
289,2363.77,1.4960180413396595
290,2374.6800000000003,1.5010238188619902
291,2385.64,1.4670583624591262
292,2396.66,1.485013845346027
293,2407.7200000000003,1.462670521092771
294,2413.27,1.470853155396065
295,2424.41,1.491035416862497
296,2435.6,1.4702511444037327
297,2446.84,1.4871205380197734
298,2452.48,1.4798862312577157
299,2463.7999999999997,1.4677754105934433
300,2475.17,1.445153156003975
301,2486.6,1.4443375407042727
302,2492.33,1.4231970928768627
303,2503.8300000000004,1.4610701900818859
304,2511.88643,1.418512472502451
305,2515.3900000000003,1.4006683224794734
306,2527.0,1.3895169303497998
307,2532.83,1.3969850503225822
308,2544.52,1.3849871895132897
309,2556.26,1.4176446607792355
310,2562.16,1.3974203456573515
311,2573.98,1.4194588482436785
312,2585.8599999999997,1.4057732493202917
313,2597.8,1.39297454888719
314,2603.7900000000004,1.375019231500735
315,2615.81,1.3632988623880151
316,2627.88,1.3807896253505338
317,2633.94,1.4059165728694119
318,2646.1,1.4483296335673594
319,2652.2000000000003,1.4744813467464282
320,2664.44,1.3974696387647567
321,2676.7400000000002,1.419411329273371
322,2682.91,1.4208950073577737
323,2695.29,1.3863190291867695
324,2707.73,1.4028492495060512
325,2713.97,1.3647750924957875
326,2726.5,1.3519692105504977
327,2732.79,1.3772129856154722
328,2745.4,1.296560134990564
329,2758.07,1.3052400828559416
330,2764.43,1.3247923228262497
331,2777.19,1.340657968427056
332,2783.59,1.3028374740575546
333,2796.44,1.21357101739379
334,2802.8900000000003,1.235192655099527
335,2815.82,1.3163845297561436
336,2822.31,1.355260133122071
337,2835.34,1.332722271929164
338,2841.88,1.30963650737033
339,2854.9999999999995,1.2719453439128523
340,2868.17,1.3418199125306125
341,2874.79,1.3580853792921594
342,2884.0315,1.3436499376973625
343,2888.0499999999997,1.3380261707652488
344,2894.7099999999996,1.3449514159276936
345,2908.0699999999997,1.4091677740913968
346,2928.23,1.372219664853392
347,2948.5299999999997,1.3556114430512345
348,2968.9700000000003,1.368820408684924
349,2989.55,1.3659692617544612
350,3010.27,1.3728075022598456
351,3031.14,1.37127742216078
352,3052.15,1.368524829497562
353,3073.2999999999997,1.3734148242701911
354,3087.49,1.3785657150892743
355,3108.8900000000003,1.3839433088544872
356,3130.44,1.3667273820152515
357,3152.14,1.3614138345715658
358,3166.6899999999996,1.3694931359399702
359,3188.64,1.3183025874888692
360,3210.7400000000002,1.3479154184333182
361,3232.9999999999995,1.2919501207330217
362,3247.92,1.3633068246104507
363,3270.44,1.4005746178624414
364,3293.1,1.3847533985502798
365,3308.3,1.377691577299403
366,3311.31121,1.3760006714276085
367,3323.58,1.3705098208413877
368,3331.24,1.3837394314572804
369,3338.92,1.3288662058084624
370,3346.6099999999997,1.3953951120272894
371,3354.33,1.3642895138490507
372,3362.06,1.3063075475384567
373,3369.81,1.3589074449631522
374,3377.58,1.3391895061231374
375,3385.36,1.353508799150767
376,3393.1699999999996,1.3948596877813313
377,3400.99,1.4511425082795402
378,3408.83,1.3689147925130387
379,3416.69,1.3546771404818267
380,3424.57,1.4180566521859042
381,3432.46,1.4450621957576266
382,3440.37,1.3992383030646383
383,3448.3,1.3214185741069397
384,3456.25,1.3526217088845307
385,3464.2200000000003,1.304681407397411
386,3472.21,1.3935664696455812
387,3480.21,1.3169691637613958
388,3488.23,1.3593143216125
389,3496.2700000000004,1.3434445431988937
390,3504.33,1.3996132285205773
391,3512.4100000000003,1.36655537757755
392,3520.51,1.4146720903698127
393,3528.6299999999997,1.2954764668973646
394,3536.7599999999998,1.3906105752925615
395,3544.91,1.428455747423048
396,3553.08,1.4391333832888236
397,3560.59,1.4559839158900445
398,3563.25,1.556966992683553
399,3565.91,1.4751235694770615
400,3568.5699999999997,1.45516414627057
401,3571.23,1.7261099230640784
402,3573.8900000000003,1.6342771998575867
403,3576.55,1.490622276651095
404,3579.21,1.4234213534446036
405,3581.87,1.219879830238112
406,3584.53,1.3916646070316203
407,3587.19,1.1123999838251286
408,3589.85,1.2092169606186371
409,3592.5099999999998,1.3648485374121457
410,3595.1699999999996,1.350858314205654
411,3597.8300000000004,1.5633310909991622
412,3600.4900000000002,1.5065334677926707
413,3603.15,1.4832606445861791
414,3605.81,1.2059935213796877
415,3608.47,1.402459198173196
416,3611.13,1.3938535749667045
417,3613.7999999999997,1.3014779836278576
418,3616.46,1.5168734604213658
419,3619.12,1.3623770372148745
420,3621.78,1.1471902140083827
421,3624.44,1.3275017908018911
422,3627.1,1.4023666675953996
423,3629.76,1.370396044388908
424,3632.42,1.2896732211824165
425,3635.08,1.299535297975925
426,3637.74,1.3289129747694333
427,3640.3999999999996,1.5271323515629418
428,3643.0600000000004,1.2753505283564501
429,3645.7200000000003,1.4362932051499584
430,3648.38,1.2320209819434669
431,3651.04,1.3210413587369754
432,3653.7,1.3931046355304837
433,3656.36,1.539672512323992
434,3659.02,1.3004379891175004
435,3661.68,1.324967265911009
436,3664.3399999999997,1.4627155427045175
437,3667.0000000000005,1.3060990194980255
438,3669.6600000000003,1.337377096291534
439,3672.32,1.4003524730850425
440,3674.98,1.3354661498785512
441,3677.64,1.4129382266720594
442,3680.3,1.4265037034655679
443,3682.96,1.4899665802590762
444,3685.62,1.5774035570525846
445,3688.2799999999997,1.643058933846093
446,3690.9500000000003,1.6443618425072462
447,3693.61,1.4779510193007546
448,3696.27,1.3169250960942631
449,3698.9300000000003,1.4062621728877713
450,3701.59,1.2417276496812797
451,3704.25,1.2067358264747883
452,3706.91,1.3770828032682967
453,3709.5699999999997,1.318116980061805
454,3712.2300000000005,1.4925813568553132
455,3714.8900000000003,1.4274271336488216
456,3717.55,1.8462366104423302
457,3720.21,1.8850192872358387
458,3722.87,2.7175289640293467
459,3725.53,3.268171640822856
460,3728.19,3.341502317616364
461,3730.85,3.0187249944098724
462,3733.5099999999998,2.434813671203381
463,3736.1699999999996,1.9359573479968892
464,3738.8300000000004,1.6510410247903975
465,3741.4900000000002,1.4258884015839057
466,3744.15,1.4815060783774143
467,3746.81,1.4003444551709228
468,3749.47,1.5213061319644312
469,3752.13,1.5653268087579395
470,3754.79,1.450055585551448
471,3757.45,1.5075004623449564
472,3760.1099999999997,1.6198134391384649
473,3762.7699999999995,1.6925831159319733
474,3765.4300000000003,1.5918084927254814
475,3768.1,1.7125667013866348
476,3770.76,1.6889043781801432
477,3773.42,1.6522310549736514
478,3776.08,1.5605695317671597
479,3778.74,1.4786041085606685
480,3781.3999999999996,1.631239085354177
481,3784.0600000000004,1.868732762147685
482,3786.7200000000003,1.7868404389411934
483,3789.38,1.6111231157347021
484,3792.04,1.4472216925282106
485,3794.7,1.5580964693217187
486,3797.36,1.5443986461152273
487,3800.02,1.4818270229087356
488,3801.8939600000003,1.5750251664771655
489,3802.68,1.6141806062038937
490,3805.3399999999997,1.7783338386617298
491,3808.0000000000005,1.7087880711195658
492,3810.6600000000003,1.762865303577402
493,3813.32,1.769383536035238
494,3815.98,1.731852768493074
495,3818.64,1.7558890009509103
496,3821.3,1.663319233408746
497,3823.96,1.4693959658665823
498,3826.62,1.3446170983244183
499,3829.2799999999997,1.3827357307822545
500,3831.9399999999996,1.3055885632400908
501,3834.6000000000004,1.3459484956979266
502,3837.26,1.4107214281557627
503,3839.92,1.4429927606135988
504,3842.58,1.5677251930714349
505,3845.25,1.753335360237759
506,3847.91,1.6989445926955953
507,3850.5699999999997,1.8219708251534312
508,3853.2300000000005,1.9556930576112674
509,3855.8900000000003,2.0107692900691037
510,3858.55,1.9266545225269394
511,3861.21,1.8963837549847757
512,3863.87,2.0087379874426117
513,3866.53,2.0618162199004475
514,3869.19,2.089532452358284
515,3871.85,2.0060256848161195
516,3874.5099999999998,1.796850917273956
517,3877.1699999999996,1.668686149731792
518,3879.8300000000004,1.653350382189628
519,3882.4900000000002,1.662305614647464
520,3885.15,1.5361134471053002
521,3887.81,1.4638391795631365
522,3890.47,1.4921634120209726
523,3893.13,1.6565115444788083
524,3895.79,1.6725807769366448
525,3898.45,1.7120390093944806
526,3901.1099999999997,1.770331241852317
527,3903.7699999999995,1.713552474310153
528,3906.4300000000003,1.7147107067679888
529,3909.09,1.8704589392258248
530,3911.75,2.001867171683661
531,3914.41,1.8979444041414972
532,3917.07,1.6938116365993332
533,3919.74,1.6730839037656575
534,3922.3999999999996,1.7120791362234935
535,3925.0600000000004,1.7640363686813296
536,3927.7200000000003,1.6832596011391656
537,3930.38,1.4918706335970018
538,3933.04,1.339025066054838
539,3935.7,1.3344335985126738
540,3938.36,1.41411683097051
541,3941.02,1.6010987634283462
542,3943.68,1.7285839958861824
543,3946.3399999999997,1.7626822283440184
544,3948.9999999999995,1.8326694608018543
545,3951.6600000000003,1.7869516932596905
546,3954.32,1.7472759257175265
547,3956.98,1.7018261581753626
548,3959.64,1.8044853906331988
549,3962.3,1.8755676230910345
550,3964.96,1.6805728555488708
551,3967.62,1.5618850880067068
552,3970.2799999999997,1.448143320464543
553,3972.9399999999996,1.4846782529223792
554,3975.6000000000004,1.591186785380215
555,3978.26,1.6147840178380513
556,3980.92,1.6594812502958873
557,3983.58,1.7713734827537233
558,3986.24,1.8625327152115596
559,3988.9,1.8976789476693954
560,3991.56,1.9571161801272317
561,3994.22,2.0110964125850677
562,3996.8900000000003,2.0651636797513917
563,3999.55,2.031408912209228
564,4002.21,1.9556261446670642
565,4004.87,1.9138553771249
566,4007.53,1.9894946095827362
567,4010.19,2.079386842040572
568,4012.85,2.093336074498408
569,4015.5099999999998,1.9373723069562445
570,4018.1699999999996,1.9377025394140805
571,4020.8300000000004,2.1160347718719166
572,4023.4900000000002,2.0121360043297525
573,4026.15,1.9043882367875886
574,4028.81,2.011140469245425
575,4031.47,1.966518701703261
576,4034.13,2.043302934161097
577,4036.79,1.945836166618933
578,4039.45,2.0573153990767694
579,4042.1099999999997,2.0577186315346054
580,4044.7699999999995,2.0212098639924414
581,4047.4300000000003,1.9149240964502772
582,4050.09,2.066481328908113
583,4052.75,1.9886035613659496
584,4055.41,2.031326793823786
585,4058.0699999999997,2.048273026281622
586,4060.73,1.899569258739458
587,4063.39,1.865229491197294
588,4066.0499999999997,1.87925172365513
589,4068.71,1.934035956112966
590,4071.3700000000003,2.0142061885708022
591,4074.04,2.032654455737126
592,4076.7,1.9519016881949627
593,4079.36,1.9798359206527985
594,4082.02,1.9636471531106348
595,4084.68,1.9822023855684707
596,4087.3399999999997,2.061105618026307
597,4089.9999999999995,1.9335498504841429
598,4092.6600000000003,1.872532082941979
