,lambda (Angstroms),Total Flux (erg/s/cm^2/Angstrom)
0,102.05000000000001,17.702500249467892
1,103.95,17.65204501370865
2,104.712855,17.63178710377564
3,105.88,17.4689802200239
4,108.10000000000001,17.15930894359752
5,110.11,16.878930896038657
6,113.98,16.33909853582277
7,117.97999999999999,15.781132272070442
8,120.22644299999999,15.46777242081315
9,121.01,15.37613618693689
10,124.97,14.913018013603523
11,127.0,14.67561147529238
12,127.88000000000001,14.572696325775873
13,130.86,14.224188205679768
14,132.07,14.08267987553364
15,133.91,13.867493653968891
16,137.03,13.502612670638655
17,138.038426,13.384678224871937
18,139.9,13.229063191512555
19,143.16,12.956549191567301
20,147.17,12.621340286120372
21,150.94,12.306193729149369
22,155.17,11.952594280555628
23,158.489319,11.675121625883195
24,159.14999999999998,11.633367891186523
25,162.10999999999999,11.446301739821534
26,165.89,11.207413222383076
27,170.14000000000001,10.938821632701757
28,172.91,10.763763131104936
29,176.93,10.509707110845094
30,179.81,10.327696837943433
31,181.89000000000001,10.196244976032741
32,181.970086,10.191183700321421
33,186.13000000000002,9.990617437917107
34,190.9,9.760636501668413
35,194.0,9.611173014181272
36,198.07000000000002,9.414941924371703
37,202.21,9.215335880739596
38,205.03,9.079372368060726
39,208.929613,8.891356339833564
40,209.79999999999998,8.859806567820641
41,216.17999999999998,8.628544642773758
42,220.20000000000002,8.482827896603581
43,222.75,8.39039565285062
44,226.89000000000001,8.240329208338919
45,230.04,8.12614987717432
46,233.78,7.99058583304404
47,239.78,7.773101108137661
48,239.88329199999998,7.769356987520027
49,245.93,7.600454610153693
50,252.24,7.424199466656018
51,256.93,7.293192194413308
52,259.9,7.210234035379205
53,264.13,7.092079247601239
54,269.04,6.954929510514521
55,274.04,6.815265722702529
56,275.42287,6.776638371349905
57,279.13,6.697168394356362
58,284.32,6.585910178745235
59,290.28000000000003,6.458144278267023
60,295.67,6.342599297957432
61,301.17,6.224695104079686
62,308.19,6.074207714725619
63,316.227766,5.901902742566459
64,318.28000000000003,5.869044081067106
65,327.95,5.714215743609529
66,337.92,5.554583619444148
67,348.19000000000005,5.39014799689096
68,357.12,5.2471679989446365
69,363.078055,5.151772944118029
70,366.28000000000003,5.113380040375939
71,374.81,5.011100169589879
72,385.31,4.885196341619357
73,395.2,4.7666119389574755
74,405.33,4.645148338158098
75,413.82,4.543347858621618
76,416.86938299999997,4.506783485028153
77,421.51,4.464290198399634
78,430.34000000000003,4.383435623642185
79,441.37999999999994,4.282346730703122
80,450.62,4.197738399696188
81,460.06,4.111297482209019
82,469.68999999999994,4.023118282910624
83,478.630092,3.941257250853288
84,479.53000000000003,3.934919939227345
85,489.57,3.8642126094395035
86,499.82,3.792031320095153
87,505.61,3.7512559513957004
88,511.46,3.7100871300143883
89,519.77,3.6515677054768325
90,529.43,3.583540897197435
91,540.52,3.5054364253670496
92,549.5408739999999,3.4419300550285135
93,550.57,3.4364038861734962
94,559.52,3.388344134489482
95,569.92,3.332492985079565
96,580.51,3.2755965764359085
97,589.9499999999999,3.22491850694383
98,599.53,3.1734610919637336
99,610.68,3.1135864882680058
100,620.6,3.0603439287170073
101,630.68,3.0062203167797037
102,630.957344,3.0047306293561076
103,639.46,2.9685282596279556
104,649.85,2.924330935659371
105,657.37,2.8923394209847078
106,664.99,2.8599166566781995
107,674.24,2.820531785132636
108,685.1899999999999,2.7738984361457257
109,694.72,2.7334684030909986
110,704.39,2.69226562243169
111,715.8299999999999,2.643680241928745
112,724.43596,2.607066869946454
113,725.7900000000001,2.6027923675690343
114,734.2,2.576250793832696
115,744.41,2.544106945084539
116,754.77,2.511445788518729
117,765.27,2.478327968283111
118,774.13,2.4504540788938187
119,784.9000000000001,2.4165304893664272
120,795.82,2.382093960121385
121,805.0300000000001,2.353068578057572
122,814.3499999999999,2.323688953467481
123,825.6800000000001,2.2880705382608566
124,831.763771,2.2686138369334485
125,835.24,2.2602715942342284
126,844.91,2.2379229556240876
127,854.7,2.214875887654772
128,864.5899999999999,2.1917128137194783
129,874.61,2.1682507317284117
130,884.7299999999999,2.144617787771367
131,894.9799999999999,2.1206005967585497
132,905.34,2.0961262850831552
133,915.8199999999999,2.0733621790485874
134,924.3,2.087336760333593
135,935.0,2.1106678649738715
136,945.83,2.168768100558377
137,954.58,2.2284677410352405
138,954.992586,2.228305061932244
139,965.63,2.224653799944219
140,974.57,1.9697256526378957
141,985.85,2.1176911458352867
142,994.98,2.127046853698069
143,1004.18,2.250136019781048
144,1015.8100000000001,2.221476764079422
145,1025.21,1.9835936250772481
146,1034.7,2.0508442037867556
147,1044.27,2.3100551204622017
148,1053.93,2.2815424548493297
149,1066.14,2.1242433244007612
150,1076.0,2.1982937537027363
151,1085.96,2.0548574804621347
152,1096.0,2.1942183451874726
153,1096.4782,2.1922413788475916
154,1106.15,2.1563093658062917
155,1113.81,2.116972482677922
156,1124.12,2.042954617657884
157,1134.52,2.180536684950958
158,1145.02,2.1024731548141586
159,1155.61,2.1323269569904726
160,1166.31,2.1344024319939243
161,1174.39,1.9084872996600823
162,1185.26,2.088655669032748
163,1196.22,1.8515395707185267
164,1204.52,1.7101415840389615
165,1215.6599999999999,1.622527350350967
166,1224.0900000000001,1.8277501770125646
167,1235.41,2.0601183079507956
168,1243.98,2.11925791821057
169,1255.49,2.0571642840320403
170,1258.92541,2.0067708958609938
171,1264.19,1.932406935630386
172,1275.89,2.1328853381889283
173,1284.73,2.173224324566494
174,1293.64,1.9443653480533842
175,1305.6100000000001,1.9222490937478929
176,1314.66,2.1189739914534327
177,1323.77,2.0682775209669644
178,1336.02,1.9401258150987721
179,1345.2800000000002,2.105611124132285
180,1354.6,2.067055264973791
181,1363.99,1.9491961429246212
182,1373.45,1.9900541579847761
183,1386.1599999999999,1.9859502959778599
184,1395.77,1.8627407905579962
185,1405.44,1.884670316946125
186,1415.18,1.8853043804435783
187,1424.9899999999998,1.9076614810503565
188,1434.8700000000001,1.888891018766459
189,1441.49,1.9341916282483012
190,1445.43977,1.9416217805984908
191,1448.15,1.9478246426154004
192,1454.83,1.9142281440019526
193,1464.92,1.8313526098687647
194,1475.07,1.8270742589815647
195,1485.29,1.840717971881349
196,1495.59,1.853112529109116
197,1505.96,1.7944516501238674
198,1512.91,1.6910994261173606
199,1516.3999999999999,1.7486547349256043
200,1523.4,1.7157985136240868
201,1533.95,1.6044456843767994
202,1544.5900000000001,1.6751970799984925
203,1555.29,1.6271377588661733
204,1566.07,1.627394282061836
205,1573.3,1.6720337132032685
206,1584.21,1.7068458834319031
207,1595.19,1.7156958174475228
208,1606.25,1.694746395791125
209,1613.66,1.6965269766705184
210,1624.85,1.6398448020470928
211,1636.1100000000001,1.6860269912106514
212,1643.66,1.6951802996640146
213,1655.06,1.6180404164015432
214,1659.58691,1.6458000759938036
215,1666.53,1.690335587443374
216,1670.37,1.5852538464339399
217,1678.0800000000002,1.688309372688435
218,1685.8300000000002,1.7313528099740825
219,1693.6100000000001,1.6687454555330934
220,1705.35,1.6266123931761256
221,1713.22,1.5767261635552279
222,1725.09,1.567225437049503
223,1733.06,1.6208350350064848
224,1745.07,1.5951181471097908
225,1753.12,1.6520078671290759
226,1765.28,1.567827020599201
227,1773.42,1.5852575654385777
228,1785.72,1.5951256575177337
229,1793.96,1.6560665299349897
230,1806.3899999999999,1.643935557865389
231,1814.73,1.563355257860524
232,1823.11,1.581467668886811
233,1835.7499999999998,1.537041454730757
234,1844.22,1.4657186905771353
235,1857.0,1.458905815030112
236,1865.57,1.4812385784543696
237,1874.19,1.549615155667567
238,1882.8400000000001,1.474901841154128
239,1895.89,1.436470640067379
240,1904.6399999999999,1.4793550531318194
241,1905.46072,1.4759575733647807
242,1913.43,1.4443723996996494
243,1926.69,1.4264157592667037
244,1935.5900000000001,1.4471002915553
245,1944.5200000000002,1.479259420132509
246,1953.5,1.4233430758574075
247,1967.04,1.497361967451519
248,1976.1200000000001,1.5192491774717944
249,1985.24,1.466721549210221
250,1994.4,1.4393011826667987
251,2003.6100000000001,1.461437643271065
252,2012.85,1.4268984001639446
253,2026.81,1.4629601397986416
254,2036.1599999999999,1.4121656164164365
255,2045.56,1.44478322018192
256,2055.0,1.4047888856655546
257,2064.49,1.403663078296878
258,2074.02,1.4586734326463522
259,2078.8,1.4143408079653956
260,2083.5899999999997,1.4447206487139774
261,2093.21,1.3950102919292915
262,2102.87,1.3956164968627565
263,2112.58,1.3997800289439102
264,2127.22,1.407116817787174
265,2137.04,1.341289869593243
266,2146.9,1.358624783117463
267,2156.81,1.3873769237893718
268,2166.77,1.357716591608969
269,2176.77,1.3476473211467177
270,2186.8199999999997,1.329049877832155
271,2187.7616199999998,1.3321801641220645
272,2196.91,1.3640232729151465
273,2207.05,1.339512859588584
274,2217.2400000000002,1.2971451921529158
275,2227.47,1.2678396414299637
276,2232.6099999999997,1.3208134390139352
277,2242.91,1.2825146925382354
278,2253.27,1.2473909211316094
279,2263.67,1.264971166437699
280,2274.12,1.2831639576346834
281,2284.61,1.3003058655443833
282,2295.16,1.2555960485231572
283,2305.75,1.2508352482146465
284,2316.3900000000003,1.2130678937970303
285,2327.09,1.052471514448488
286,2332.4500000000003,1.1580726539523958
287,2343.22,1.136637278851106
288,2354.03,1.1866237204625318
289,2364.9,1.1273424371430314
290,2375.81,1.1435966705362466
291,2386.78,1.0951906789985353
292,2392.2799999999997,1.1358093269969483
293,2403.33,1.1048301688846687
294,2414.42,1.1193154274851045
295,2425.56,1.1547463319764353
296,2436.76,1.1238188115368395
297,2442.38,1.1616802096733996
298,2453.65,1.1477993934810562
299,2464.98,1.1414314523577866
300,2476.35,1.1133297279472327
301,2487.78,1.1301590786057525
302,2493.52,1.0899007268804595
303,2505.0299999999997,1.156678310964411
304,2510.8,1.0805469467736546
305,2511.88643,1.083892455814472
306,2516.59,1.0987686161693206
307,2522.39,1.0683623331099592
308,2534.0299999999997,1.074009518832206
309,2545.73,1.0592101823159077
310,2557.4799999999996,1.1013415606008221
311,2563.38,1.084313707143885
312,2575.21,1.1196384891107392
313,2587.1,1.109592448839048
314,2593.06,1.0994429731435662
315,2605.0299999999997,1.073826936553815
316,2617.05,1.062772714765276
317,2623.09,1.0914525427517339
318,2635.19,1.106655024645135
319,2647.36,1.158917747260233
320,2653.46,1.167470653008146
321,2665.71,1.0985426793051842
322,2678.01,1.1282443204034347
323,2684.19,1.1222058298332875
324,2696.58,1.0918651375737203
325,2702.79,1.1088383358843006
326,2715.27,1.0729237102669158
327,2727.8,1.0716825994507433
328,2734.09,1.1036486014432632
329,2746.71,1.0110938572692731
330,2753.04,1.0219733111027631
331,2765.75,1.0402117335709553
332,2772.1200000000003,1.069504539245415
333,2784.92,1.0345947283557897
334,2797.77,0.9137391322673767
335,2804.2200000000003,0.9505697416237762
336,2817.17,1.055254375137788
337,2823.66,1.0827690363351579
338,2836.69,1.0525084735311092
339,2843.23,1.0377851495296913
340,2856.36,1.0161795163280676
341,2862.94,1.0696528441676196
342,2876.16,1.0606211776081782
343,2882.79,1.0591849202489425
344,2884.0315,1.0582043720788359
345,2896.09,1.049543730504436
346,2909.46,1.0996974723232675
347,2929.6299999999997,1.0710502419931127
348,2949.9399999999996,1.0586988157657728
349,2970.38,1.068368614776761
350,2990.97,1.0653978967550513
351,3011.71,1.072059261700643
352,3032.5800000000004,1.065832651884563
353,3046.58,1.062221662166062
354,3067.7,1.0608104239621516
355,3088.96,1.0626054898610564
356,3110.37,1.0530744387272628
357,3131.93,1.041960870560771
358,3146.39,1.0446900086086621
359,3168.2,1.0383565120543399
360,3190.1600000000003,1.0038919984673196
361,3212.27,1.020891067847601
362,3227.1,0.993952123881503
363,3249.47,1.0186821437384408
364,3272.0,1.033143225427167
365,3287.1,1.0260977108022122
366,3309.88,1.0228297641031083
367,3311.31121,1.0226257984073084
368,3325.16,1.0213474136665406
369,3332.83,1.0222402563169821
370,3340.5099999999998,0.9881783798574505
371,3348.2099999999996,1.0406018651779723
372,3355.93,1.013616612278547
373,3363.66,0.9676436402691486
374,3371.42,0.9623835109298301
375,3379.19,1.0130456624805384
376,3386.98,1.0220949758112998
377,3394.79,1.0132102509221146
378,3402.6099999999997,1.040624006922956
379,3410.46,0.9831321055938773
380,3418.32,0.9933764851548255
381,3426.2,1.008653426495827
382,3434.1,1.0309937296168814
383,3442.0099999999998,0.9911575136279627
384,3449.95,0.991998640309124
385,3457.8999999999996,0.9817801478803119
386,3465.87,0.967051517231553
387,3473.8599999999997,1.0042014483628476
388,3481.8700000000003,0.9779528412741954
389,3489.9,1.0027167959655965
390,3497.94,0.9780033315470242
391,3506.0099999999998,0.993116909798532
392,3514.09,0.9686500689400663
393,3522.19,0.999687389861654
394,3530.31,0.9733649725632949
395,3538.4500000000003,0.9998107170449893
396,3546.6,1.0122247424167101
397,3554.78,1.016478210458511
398,3562.97,1.0024327593903386
399,3568.73,0.8218460520456898
400,3571.4,0.7276308496828058
401,3574.0699999999997,1.0023187473199218
402,3576.74,1.3490072449570376
403,3579.3999999999996,1.014091261704127
404,3582.07,0.46964895934124284
405,3584.7400000000002,0.27719524197835876
406,3587.41,0.7471722546154748
407,3590.07,0.7005154713625641
408,3592.74,1.60884766899968
409,3595.41,1.606552166636796
410,3598.0800000000004,1.1749066642739119
411,3600.75,0.5464305619110278
412,3603.4100000000003,0.44161477865811705
413,3606.08,0.7132072762952331
414,3608.75,0.8981002739323489
415,3611.42,1.3625733715694648
416,3614.08,0.4859930883165542
417,3616.7500000000005,0.63596868595367
418,3619.42,0.489238883590786
419,3622.09,0.640985581227902
420,3624.76,0.8040299788650178
421,3627.42,0.1736170956121072
422,3630.09,0.9161077932492231
423,3632.7599999999998,0.5503821908863391
424,3635.43,0.237465578523455
425,3638.09,0.05940310527054424
426,3640.76,1.1419127029076601
427,3643.43,1.5936710005447763
428,3646.1,0.8931330981818921
429,3648.7599999999998,0.6600762149289814
430,3651.43,0.5514726125660974
431,3654.1,0.9345762102032132
432,3656.7699999999995,1.3541917078403292
433,3659.44,1.195060605477445
434,3662.1,1.0363489222245343
435,3664.77,0.5918502198616504
436,3667.44,1.4579409174987663
437,3670.1099999999997,1.3379794151358824
438,3672.77,0.8357158318829716
439,3675.4399999999996,1.0661563295200875
440,3678.11,1.3260811271572033
441,3680.78,1.435744624794319
442,3683.45,0.5559727224314353
443,3686.11,1.0355475391785245
444,3688.7799999999997,0.8988555368156406
445,3691.45,0.7452166344527564
446,3694.1200000000003,1.1088132320898723
447,3696.78,1.3135730488369615
448,3699.4500000000003,0.7090878464740775
449,3702.12,0.8884303441111935
450,3704.79,0.8200592417483095
451,3707.46,0.7769024393854254
452,3710.12,0.9120405561325147
453,3712.7900000000004,1.1128574537696305
454,3715.46,1.2663749514067466
455,3718.13,0.7317675490438624
456,3720.79,1.0813350657909517
457,3723.46,1.5789554634280676
458,3726.13,1.7468419610651835
459,3728.7999999999997,2.4316274587022995
460,3731.4700000000003,2.1547109563394153
461,3734.13,1.8888086730865048
462,3736.8,1.1978552707236207
463,3739.47,0.9402886683607368
464,3742.14,1.0028895659978525
465,3744.7999999999997,1.049788382744942
466,3747.47,1.2941843803820579
467,3750.1400000000003,1.2866728780191736
468,3752.81,1.0236932756562898
469,3755.4700000000003,0.840376692403379
470,3758.14,1.248891690040495
471,3760.81,1.3515870876776108
472,3763.48,1.2184968853147269
473,3766.1499999999996,1.2733030829518426
474,3768.8100000000004,0.9575778996989319
475,3771.48,0.738708497336048
476,3774.15,1.0692968949731638
477,3776.82,1.2464340926102797
478,3779.48,0.9354526093573691
479,3782.15,1.199630006994485
480,3784.8199999999997,1.351061004631601
481,3787.4900000000002,1.182580702268717
482,3790.1600000000003,1.0108526999058327
483,3792.82,0.4800673166529221
484,3795.4900000000002,1.015696814290038
485,3798.16,1.381970711927154
486,3800.83,0.8113425095642699
487,3801.8939600000003,0.7596611792432824
488,3803.49,0.6821907588077527
489,3806.1600000000003,1.2298822618265448
490,3808.8300000000004,1.341470164845337
491,3811.5,1.4045980678641292
492,3814.17,1.4575699708829215
493,3816.83,1.2706487394334784
494,3819.5,1.4232366424522707
495,3822.1699999999996,1.5694275454710631
496,3824.8399999999997,0.8324134484898552
497,3827.5,1.056988417040412
498,3830.17,1.0172323200592044
499,3832.84,1.1457877230779965
500,3835.5099999999998,0.9655526260967888
501,3838.18,0.884422829115581
502,3840.8399999999997,1.1623392976661382
503,3843.5099999999998,1.3536645006849302
504,3846.1800000000003,0.6684561037037224
505,3848.85,1.0501770067225147
506,3851.51,1.4921350752730715
507,3854.18,1.6652719782918641
508,3856.85,1.4265768813106563
509,3859.52,1.1001742843294484
510,3862.18,1.3882685528800054
511,3864.8500000000004,1.1878766558987977
512,3867.52,1.6643533589175898
513,3870.19,1.603259261936382
514,3872.86,1.5197671649551743
515,3875.52,1.5562509335057313
516,3878.19,1.1375921365245234
517,3880.8599999999997,1.5657847395433155
518,3883.53,1.4543616425621078
519,3886.19,1.460632411112665
520,3888.86,1.067009914131457
521,3891.53,0.6008363171502492
522,3894.2,0.5558058201690415
523,3896.87,1.4557850231878335
524,3899.5299999999997,1.2949247917383908
525,3902.2000000000003,1.380589694757183
526,3904.87,0.7817905977759751
527,3907.54,1.1817577007947673
528,3910.2,1.2510132693453244
529,3912.87,1.7231201723641165
530,3915.54,1.5615040753829088
531,3918.2099999999996,1.5136579784017008
532,3920.88,1.4377438814204933
533,3923.54,1.3329016499710502
534,3926.21,1.6067975529898424
535,3928.88,1.7505874560086347
536,3931.5499999999997,1.021859659027427
537,3934.21,0.7704935275779838
538,3936.8799999999997,1.448901030596776
539,3939.55,0.8315992336155683
540,3942.2200000000003,1.0291837366343604
541,3944.89,1.1406933396531527
542,3947.55,1.1099377082037096
543,3950.22,1.588874411222502
544,3952.89,1.4718023142412942
545,3955.5600000000004,1.5533732172600863
546,3958.2200000000003,1.1578686858106433
547,3960.8900000000003,1.5449638888294355
548,3963.56,1.5126667918482277
549,3966.23,1.11556199486702
550,3968.9,1.2178595978858122
551,3971.56,0.7234650664363692
552,3974.2300000000005,0.9633491694551615
553,3976.9,0.9832532724739537
554,3979.57,0.8697051754927458
555,3982.23,1.462494844043303
556,3984.9,1.400614747062095
557,3987.5699999999997,1.1428467500808872
558,3990.24,1.2442195530996794
559,3992.8999999999996,1.5452653216502366
560,3995.57,1.4592142246690287
561,3998.2400000000002,2.1552361276878207
562,4000.91,1.390566030706613
563,4003.58,1.3438619337254052
564,4006.24,1.3470017022759624
565,4008.91,1.4782146052947545
566,4011.58,1.3470295083135466
567,4014.2499999999995,1.792897411332339
568,4016.9100000000003,1.677427179882896
569,4019.58,1.4428260829016881
570,4022.25,1.7005219859204803
571,4024.92,1.7725468889392726
572,4027.5899999999997,1.455729791958065
573,4030.25,1.2909715605086218
574,4032.9199999999996,1.3959064635274139
575,4035.59,1.6985603665462063
576,4038.26,1.4885632695649986
577,4040.92,1.4488930381155554
578,4043.59,1.6338599411343475
579,4046.2599999999998,1.53836084415314
580,4048.93,1.4723267471719321
581,4051.6000000000004,1.4039906501907244
582,4054.26,1.0151581187412813
583,4056.9300000000003,1.1129094217600737
584,4059.6,1.541240224778866
585,4062.27,1.5988961277976579
586,4064.93,1.627939896348215
587,4067.6,1.9465557993670073
588,4070.2700000000004,1.3769467023857995
589,4072.94,1.2548556054045916
590,4075.6,1.1418239739551486
591,4078.27,1.493076276973941
592,4080.94,1.663458179992733
593,4083.6099999999997,1.4004930830115252
594,4086.2799999999997,1.3759329860303173
595,4088.9399999999996,1.6233817545808746
596,4091.61,1.3908866575996668
597,4094.28,1.3838635606184588
598,4096.95,1.478818463637251
599,4099.610000000001,1.453792232187808
600,4102.28,1.3057191352066004
601,4104.95,1.2103970382253926
602,4107.62,1.0586434412441847
