,lambda (Angstroms),Total Flux (erg/s/cm^2/Angstrom)
0,100.05,103.07036245386215
1,101.91000000000001,102.78363864043504
2,104.05,102.45375210240603
3,104.712855,102.35157128877741
4,105.98,101.32551202668681
5,107.95,99.73032225257374
6,109.96000000000001,98.10274283837717
7,114.09,94.75851249975436
8,118.1,91.5114510813821
9,120.22644299999999,89.78958299567942
10,121.11999999999999,89.18296249850107
11,125.08999999999999,86.48779769782453
12,127.13000000000001,85.10287674231316
13,128.01,84.50545985954358
14,130.99,82.48238905198284
15,131.9,81.86460568457335
16,134.04,80.41179644692909
17,136.85,78.50413571899432
18,138.038426,77.69733372317347
19,140.03,76.73091379302433
20,142.97,75.3042660286739
21,146.97,73.36324866221072
22,151.09,71.36400077475363
23,154.95999999999998,69.48606647270051
24,158.489319,67.77344910500341
25,158.94,67.60811174143196
26,161.89,66.52587125972579
27,166.05,64.99972874993001
28,169.92,63.57997598240367
29,173.07,62.424363264649664
30,177.11,60.94224409648263
31,179.98,59.88935250919568
32,181.970086,59.159267210457855
33,182.07000000000002,59.13130327453957
34,185.88,58.06496026106159
35,191.09,56.6067851691403
36,194.19,55.73915699544439
37,197.79999999999998,54.72878999317282
38,201.94,53.570086561204945
39,205.23,52.64928117686345
40,208.929613,51.613833283131164
41,210.01,51.38650058784353
42,215.89000000000001,50.14924370832691
43,219.89999999999998,49.30546818335096
44,222.96,48.66158960319501
45,227.10999999999999,47.788355581088936
46,229.74,47.23495667070042
47,234.01000000000002,46.33647250821106
48,239.88329199999998,45.10062711157144
49,240.01000000000002,45.08008142904277
50,246.17,44.081238385370355
51,251.9,43.15211977496687
52,257.18,42.29596859467136
53,260.15,41.81438355580366
54,263.77000000000004,41.22740111785143
55,269.3,40.33071247643251
56,274.3,39.519963252750614
57,275.42287,39.33789005659981
58,278.76,38.922608343235844
59,283.94,38.27799477553721
60,289.89,37.5375602721027
61,295.96,36.78219263592347
62,300.77,36.18362289458421
63,307.77,35.31252347906108
64,316.227766,34.26001561935373
65,317.86,34.10830509556715
66,328.27000000000004,33.14073148039647
67,338.25,32.21312488334356
68,347.71999999999997,31.332921028747368
69,356.64,30.503837778717475
70,363.078055,29.90544276095957
71,365.79,29.716672092722252
72,375.17,29.063757351693848
73,384.8,28.393440832193846
74,394.67,27.70641860803765
75,404.79,27.00199460611692
76,414.22,26.34559951347908
77,416.86938299999997,26.16118360711534
78,421.92,25.89271137344565
79,429.77000000000004,25.475434231321927
80,440.79,24.889651546547686
81,451.06,24.343736104596207
82,460.5,23.84194041095668
83,470.14,23.329513458646847
84,478.630092,22.87821139104078
85,479.99,22.82261550715214
86,490.03999999999996,22.411750478683118
87,500.29999999999995,21.99230022485575
88,506.09000000000003,21.75559292562102
89,511.96,21.515615220085458
90,520.27,21.17588508134071
91,529.95,20.780146496338297
92,539.8,20.377457921405664
93,549.5408739999999,19.979230898019743
94,549.8299999999999,19.970213972614825
95,560.06,19.651172615856623
96,570.47,19.326517658311552
97,579.74,19.037415513647407
98,590.52,18.70122172690528
99,600.11,18.402140054941682
100,609.86,18.098068912291353
101,619.77,17.789008050863305
102,629.84,17.474957240037526
103,630.957344,17.440110848521854
104,640.0799999999999,17.214570930538837
105,650.4799999999999,16.957452178762857
106,658.01,16.77128841139779
107,665.63,16.582899438377584
108,674.89,16.353964404196713
109,684.28,16.121815321487418
110,695.4000000000001,15.846899569088313
111,705.07,15.607827773667024
112,716.53,15.324506608720505
113,724.43596,15.129049158390048
114,726.49,15.091354513274005
115,734.91,14.936835677236964
116,745.13,14.7492875888831
117,755.5000000000001,14.558985508740326
118,764.24,14.398597235336965
119,774.88,14.203342891744171
120,785.65,14.005703527250995
121,794.75,13.838710182764263
122,805.81,13.635748359872546
123,815.14,13.464535178042832
124,824.58,13.291310877421253
125,831.763771,13.159464296841913
126,834.13,13.127001760105639
127,845.7299999999999,12.967914631669741
128,855.52,12.833632516208711
129,865.43,12.697712757047137
130,875.4499999999999,12.560286600201733
131,885.59,12.421220557055781
132,895.8399999999999,12.280641712726002
133,904.1299999999999,12.166935020771769
134,914.6,12.023491442074324
135,925.19,11.881233870076336
136,935.91,11.738851346361091
137,944.5699999999999,11.628575274488515
138,954.992586,11.49375861540115
139,955.5,11.487345541867395
140,964.34,11.37268233723081
141,975.51,11.198012152016934
142,984.54,11.098033507676623
143,995.94,10.948695435452974
144,1005.15,10.842490973235446
145,1014.4499999999999,10.718279724579313
146,1023.84,10.565773549484568
147,1035.7,10.419998853241369
148,1045.28,10.329265773442899
149,1054.95,10.20089438720582
150,1064.71,10.054846844530134
151,1074.56,9.93783018541584
152,1084.51,9.789198448036428
153,1094.54,9.679537346044919
154,1096.4782,9.653533767911513
155,1104.6699999999998,9.563556795720094
156,1114.89,9.45033836569897
157,1125.21,9.330921914327348
158,1135.62,9.24304824774028
159,1146.1200000000001,9.120369725937756
160,1154.07,9.043662128572988
161,1164.75,8.933398936339568
162,1175.52,8.780422878890695
163,1183.67,8.72779456882493
164,1194.63,8.568565704810107
165,1205.6799999999998,8.424749095579838
166,1214.04,8.317247796678016
167,1225.27,8.239754497016843
168,1233.76,8.200084518359375
169,1245.18,8.095381852132252
170,1253.81,7.997463717584084
171,1258.92541,7.931214917295409
172,1265.4099999999999,7.867693072224439
173,1274.18,7.853817303299845
174,1285.9699999999998,7.77893576343429
175,1294.8899999999999,7.666121254562298
176,1303.8600000000001,7.593377565707838
177,1315.9299999999998,7.553500917940473
178,1325.0500000000002,7.478752689138614
179,1334.2300000000002,7.382620844357796
180,1343.48,7.359917147601531
181,1355.9099999999999,7.258336203960407
182,1365.3100000000002,7.160861067256736
183,1374.78,7.106384078577618
184,1384.31,7.0387231739195375
185,1393.8999999999999,6.940883553282498
186,1403.5600000000002,6.8773249806700045
187,1416.55,6.779725421225257
188,1426.3700000000001,6.717474172668871
189,1436.26,6.639366272137035
190,1442.89,6.607811806462001
191,1445.43977,6.595900731905826
192,1446.21,6.594124753770915
193,1456.24,6.5335299649537735
194,1466.3300000000002,6.4585666994338355
195,1476.5,6.405680198310174
196,1483.31,6.381389392543001
197,1493.59,6.336796117464216
198,1503.94,6.26997798623217
199,1510.89,6.201269068158476
200,1517.8600000000001,6.185677791183852
201,1524.8700000000001,6.136699596407364
202,1535.44,6.046765817265072
203,1546.08,6.025280581969521
204,1553.2199999999998,5.972490854336979
205,1563.98,5.917170865635836
206,1574.8200000000002,5.8789594413309665
207,1585.74,5.839493881422375
208,1596.73,5.79084026536052
209,1604.1,5.747479910367267
210,1615.22,5.6914979614493575
211,1626.42,5.613117676927724
212,1633.92,5.596456989078415
213,1645.25,5.544437471700726
214,1656.65,5.455177498169776
215,1659.58691,5.452880381687355
216,1664.3,5.456915387165898
217,1671.9800000000002,5.3835445718575405
218,1675.8400000000001,5.4156053709343315
219,1683.5700000000002,5.409404272453396
220,1695.24,5.3435078999731225
221,1703.07,5.3017872351470245
222,1714.8700000000001,5.24148950641804
223,1726.76,5.196363007978412
224,1734.7299999999998,5.19108089026909
225,1746.75,5.140220135580751
226,1754.82,5.138640551526269
227,1766.98,5.058571943954705
228,1775.14,5.042942390189578
229,1783.33,5.0207672465209
230,1795.69,5.002291806259016
231,1803.98,4.969506196245178
232,1816.49,4.894620506465553
233,1824.8700000000001,4.8718790267410705
234,1833.29,4.826615260478524
235,1845.9999999999998,4.750220838008577
236,1854.52,4.722320705400869
237,1863.08,4.701801086255099
238,1876.0,4.6829331344603125
239,1884.6599999999999,4.62385874896938
240,1893.3500000000001,4.580296573574898
241,1905.46072,4.5497693674953075
242,1906.48,4.548243041589373
243,1915.28,4.515263251755421
244,1924.12,4.488384704240405
245,1933.0,4.474410799044325
246,1946.4,4.450606975888078
247,1955.3799999999999,4.40567722648934
248,1968.94,4.40080737260884
249,1978.03,4.386460614587178
250,1982.58,4.3541534033662135
251,1996.3300000000002,4.304049125500662
252,2005.5400000000002,4.2903120944358095
253,2014.8,4.250364541269628
254,2024.1000000000001,4.243713630422382
255,2033.44,4.199215061894073
256,2042.83,4.189766371264435
257,2056.99,4.132336852167985
258,2066.48,4.106929217335686
259,2076.02,4.1054044604020605
260,2085.6,4.072905045787372
261,2095.23,4.026400209071353
262,2104.9,4.00111241467427
263,2114.62,3.976436398175859
264,2124.3799999999997,3.955697323996385
265,2134.18,3.8989923921358467
266,2144.04,3.882140073753713
267,2153.93,3.867935362110782
268,2163.87,3.8279310283665215
269,2173.86,3.795850372520931
270,2183.9,3.761301694574012
271,2187.7616199999998,3.7569656716347546
272,2193.98,3.7556280786875007
273,2204.1,3.725061791449438
274,2214.28,3.688038782547908
275,2224.5,3.657005325870734
276,2234.77,3.662999834474004
277,2245.08,3.6301570953016298
278,2255.44,3.6034546214097
279,2265.85,3.596462112798214
280,2276.31,3.5906537694671727
281,2286.82,3.5829306914165757
282,2297.38,3.5488891786464234
283,2302.67,3.539381685317436
284,2313.3,3.5079979639399053
285,2323.98,3.418862507842819
286,2334.7000000000003,3.453942703970088
287,2345.48,3.428018878433891
288,2356.31,3.4367482181781384
289,2367.1800000000003,3.3931518101467404
290,2372.64,3.3958638387712643
291,2383.5899999999997,3.355618835188578
292,2394.59,3.3617171968863344
293,2405.65,3.329643636920626
294,2416.75,3.3203001291792726
295,2422.32,3.3310545014207733
296,2433.5,3.2988170981281306
297,2444.74,3.302628873172022
298,2456.02,3.2773551004402677
299,2467.36,3.2595861060450466
300,2473.04,3.2393019219035257
301,2484.46,3.2377226319570154
302,2495.9300000000003,3.1982844072909495
303,2507.45,3.2175641479053296
304,2511.88643,3.1828986256590093
305,2513.23,3.1730504902419385
306,2519.02,3.1794458443532028
307,2524.83,3.153629804696285
308,2536.48,3.143579384730175
309,2542.33,3.131633357536893
310,2554.0600000000004,3.1429584624980547
311,2565.85,3.124897886154671
312,2577.7,3.1350764285067396
313,2583.64,3.1274247793566374
314,2595.5699999999997,3.1100770466359777
315,2607.55,3.083938079494862
316,2613.56,3.0752172021561233
317,2625.6200000000003,3.0792679599422788
318,2637.7400000000002,3.071780836423889
319,2643.82,3.099251930896511
320,2656.02,3.0870777323053935
321,2662.1499999999996,3.047724592357561
322,2674.43,3.0546954186937127
323,2686.7799999999997,3.0367200168412283
324,2692.9700000000003,3.016798495588848
325,2705.4,3.012953118663635
326,2717.89,2.9827360604338753
327,2724.15,2.980186210992858
328,2736.73,2.990147630806278
329,2743.04,2.9282108469448063
330,2755.7,2.919303791685498
331,2762.0499999999997,2.927384320287661
332,2774.8,2.936008643071532
333,2787.6099999999997,2.9081925845508585
334,2794.04,2.8081931380802927
335,2806.9300000000003,2.826472904486889
336,2813.3999999999996,2.9012573704799602
337,2826.39,2.8995674680456456
338,2832.9100000000003,2.8717718996182606
339,2845.98,2.8492061221112177
340,2852.54,2.838514866147469
341,2865.71,2.852568719799515
342,2872.31,2.8379620762994016
343,2884.0315,2.829891595214605
344,2885.57,2.8294716755860545
345,2892.22,2.817529694989496
346,2912.27,2.8400593422134044
347,2932.46,2.813768914056333
348,2952.79,2.7981621105182812
349,2973.25,2.7921863226978902
350,2986.98,2.789223344263191
351,3007.68,2.7836315700754057
352,3028.5299999999997,2.7708610294079987
353,3049.52,2.7566040133596115
354,3070.66,2.7422885308316034
355,3091.95,2.735537181823973
356,3113.38,2.716544257435362
357,3127.7500000000005,2.70641934868761
358,3149.43,2.6982178468329634
359,3171.26,2.683747578498695
360,3193.24,2.648547943684806
361,3207.9800000000005,2.6573463642873194
362,3230.22,2.631332560908753
363,3252.61,2.6313267910505638
364,3267.62,2.6327975519897597
365,3290.27,2.619890913566893
366,3311.31121,2.607983769390658
367,3313.08,2.6074982838535776
368,3320.72,2.6142617570738467
369,3328.37,2.6122036534266018
370,3336.04,2.6173816960443315
371,3343.7299999999996,2.5886323849270365
372,3351.44,2.6025596200747154
373,3359.17,2.582658301487369
374,3366.9100000000003,2.58057080603251
375,3374.68,2.5522341799751134
376,3382.4500000000003,2.5604761539177154
377,3390.25,2.5924726972577803
378,3398.07,2.5904481868628193
379,3405.9,2.568345899600345
380,3413.75,2.5698799586028462
381,3421.6200000000003,2.5920078638703217
382,3429.51,2.5839146154027715
383,3437.4100000000003,2.5883655900677085
384,3445.34,2.544260334130108
385,3453.28,2.5859779013249935
386,3461.24,2.5359585147848547
387,3469.2200000000003,2.54377037450969
388,3477.22,2.5239599804995
389,3485.2300000000005,2.5354513096217968
390,3493.27,2.5359381081415555
391,3501.32,2.5364846297938013
392,3509.39,2.5163771977110225
393,3517.48,2.5019952118932176
394,3525.59,2.521094672340387
395,3533.7200000000003,2.535102479052531
396,3534.23,3.062588658809382
397,3536.87,1.9495602657860192
398,3539.52,2.2444276958951432
399,3542.16,1.5747915028717807
400,3544.81,3.301211332980905
401,3547.45,3.0120240399575424
402,3550.1,3.108104670066667
403,3552.75,3.158233300175791
404,3555.39,2.2412283071524284
405,3558.04,2.543080737261553
406,3560.68,3.1399553442381904
407,3563.33,2.1956151743473145
408,3565.9800000000005,1.6949214344564387
409,3568.6200000000003,2.7553233114330764
410,3571.2699999999995,2.0465845415422015
411,3573.9100000000003,3.463901648518838
412,3576.56,2.9612432786279625
413,3579.2000000000003,2.5470238856045997
414,3581.85,2.918667615713724
415,3584.5,2.687778245822849
416,3587.14,2.9307659527994865
417,3589.79,3.18142558290861
418,3592.43,2.4259302898852475
419,3595.08,2.0656505199943718
420,3597.73,1.7254413101034967
421,3600.37,1.703576607080134
422,3603.02,3.0483808871892584
423,3605.66,2.1431067941658957
424,3608.31,2.53354062427502
425,3610.95,2.2362260312516575
426,3613.6000000000004,1.9883982613607816
427,3616.2499999999995,2.222999691469907
428,3618.8900000000003,2.054039498446543
429,3621.54,2.244538528555668
430,3624.1800000000003,2.652800235532305
431,3626.83,2.7372768656414297
432,3629.48,2.2410516957505537
433,3632.12,2.3405644027271912
434,3634.77,2.586331832836316
435,3637.41,2.7289445398129533
436,3640.06,2.4975522699220774
437,3642.71,2.9221748000312022
438,3645.35,2.509399107007839
439,3648.0,2.603160337116964
440,3650.64,2.478209944093601
441,3653.29,2.4335161742027256
442,3655.93,2.204299981179363
443,3658.5800000000004,2.1362069112884865
444,3661.2299999999996,2.430311341397612
445,3663.8700000000003,3.234146148374249
446,3666.52,3.1538487784833733
447,3669.1600000000003,1.7039000854600101
448,3671.81,2.404256015569135
449,3674.46,2.38343314567826
450,3677.1,2.7052464526548965
451,3679.75,2.3443079827640214
452,3682.39,3.210250789740659
453,3685.04,2.687769419849783
454,3687.68,2.7117821268264204
455,3690.33,2.017753956935545
456,3692.98,2.071428987044669
457,3695.62,2.352871794021307
458,3698.27,2.391929024130431
459,3700.91,1.9354250311070682
460,3703.5600000000004,2.4502932612161925
461,3706.2099999999996,2.359709491325318
462,3708.8500000000004,2.953602398301954
463,3711.5,2.5123635284110786
464,3714.1400000000003,3.1404487353877157
465,3716.79,2.4871969654968407
466,3719.4300000000003,2.2930182724734776
467,3722.08,2.840664702582602
468,3724.73,3.1049373326917267
469,3727.37,3.066405039668364
470,3730.02,3.7784136697774886
471,3732.66,2.6330563767541255
472,3735.31,2.87298900686325
473,3737.96,2.5930716369723745
474,3740.6,2.618056343949012
475,3743.25,2.3128892740581364
476,3745.89,2.1536534810347736
477,3748.5400000000004,3.0568793111438977
478,3751.1800000000003,1.9243163181205352
479,3753.8300000000004,2.8848826482296595
480,3756.48,2.801355278338784
481,3759.1200000000003,2.4274432853154213
482,3761.77,2.454674815424546
483,3764.4100000000003,2.387879022401183
484,3767.06,2.3698161525103076
485,3769.71,1.9842865826194322
486,3772.35,2.2013006895960694
487,3775.0,2.480380219705194
488,3777.64,2.436984626681831
489,3780.29,2.7975872567909557
490,3782.93,3.124044963767593
491,3785.58,2.8268745938767172
492,3788.23,2.9793232239858414
493,3790.87,2.7422359309624786
494,3793.5200000000004,2.6493295610716032
495,3796.1600000000003,1.9609907680482404
496,3798.8100000000004,1.934930098157365
497,3801.46,2.1811058282664897
498,3801.8939600000003,2.204852350743617
499,3804.1000000000004,2.326020825480941
500,3806.75,2.664520568724101
501,3809.3900000000003,2.1377631363323815
502,3812.04,2.7562476795755417
503,3814.69,2.748640222818702
504,3817.33,2.9337957904269825
505,3819.98,3.0516563336701426
506,3822.62,3.068464901278423
507,3825.27,2.425136944521583
508,3827.91,2.5343520121298635
509,3830.56,2.7559135553730236
510,3833.21,2.5713330986161838
511,3835.85,2.545981666224464
512,3838.5000000000005,2.907536209467624
513,3841.1400000000003,2.855210777075904
514,3843.7900000000004,2.731042320319064
515,3846.44,2.9531368635622246
516,3849.08,2.8602844311705047
517,3851.73,3.006156974413665
518,3854.37,2.6806535420219455
519,3857.02,2.9830490852651055
520,3859.66,2.918144652873386
521,3862.31,2.9875121961165463
522,3864.96,2.866041739359706
523,3867.6,2.9318453069679866
524,3870.25,2.914136850211147
525,3872.89,2.358804817819427
526,3875.54,2.608064961062587
527,3878.19,2.6741705043057475
528,3880.83,2.4040294719140274
529,3883.4800000000005,2.605140615157188
530,3886.1200000000003,2.960840182765468
531,3888.7699999999995,3.4019717260086284
532,3891.4100000000003,3.1952582936169085
533,3894.06,2.779341836860069
534,3896.71,2.796263380103229
535,3899.35,2.9129129477115088
536,3902.0,3.0663444909546693
537,3904.64,3.1542940585629498
538,3907.29,3.37641960180611
539,3909.94,2.7991191450492696
540,3912.58,3.08904171265755
541,3915.23,3.33343825590071
542,3917.87,3.1711408235089906
543,3920.52,2.7185553667521507
544,3923.16,2.6410109343604313
545,3925.81,3.0718234776035915
546,3928.4599999999996,2.9804020208467517
547,3931.1000000000004,2.6707395884550316
548,3933.7499999999995,2.8860281316981924
549,3936.3900000000003,2.916198699306472
550,3939.04,2.7826822425496323
551,3941.69,3.0833517857927926
552,3944.33,2.937834353401073
553,3946.98,2.586095896644233
554,3949.62,3.0219394642525135
555,3952.27,3.2488640074956736
556,3954.91,2.549368575103954
557,3957.56,3.044579118347114
558,3960.21,3.3167666615902744
559,3962.85,2.513571229198554
560,3965.5,2.0855491724417146
561,3968.14,2.3481495400499948
562,3970.79,2.551048883293155
563,3973.4399999999996,2.714863426536316
564,3976.0800000000004,2.848827994144595
565,3978.7299999999996,2.9067455373877555
566,3981.3700000000003,3.395664104996036
567,3984.02,3.284636648239196
568,3986.67,3.095694191482356
569,3989.31,3.5078247590906364
570,3991.96,3.456208302333797
571,3994.6,3.194789869942077
572,3997.25,3.125983413185237
573,3999.89,3.0200209807935177
574,4002.54,3.4076085240366774
575,4005.19,3.491623067279838
576,4007.83,2.853891634888118
577,4010.48,3.1236641781312784
578,4013.12,3.3371147457395587
579,4015.77,3.1005562889827187
580,4018.4199999999996,3.2437618322258785
581,4021.0600000000004,3.463015399834159
582,4023.7099999999996,3.1057239430773196
583,4026.3500000000004,2.9727535106855996
584,4029.0,2.9706980539287597
585,4031.6400000000003,3.0333026215370396
586,4034.29,3.1991871647802004
587,4036.94,3.2859617080233603
588,4039.58,3.2871192756316407
589,4042.23,3.0967958188748006
590,4044.87,3.2619093864830813
591,4047.52,3.1860459297262413
592,4050.17,3.1426784729694015
593,4052.81,3.0189930405776817
594,4055.46,3.118661583820842
595,4058.1,2.9268141514291224
596,4060.75,2.8361146946722826
597,4063.39,3.037739262280563
598,4066.0400000000004,2.8008358055237226
599,4068.6899999999996,3.2041383487668833
600,4071.3300000000004,3.088639916375163
601,4073.98,2.974477459618323
602,4076.6200000000003,3.0770440272266035
603,4079.27,3.249264570469764
604,4081.92,2.9606051137129237
605,4084.56,3.2358496813212048
606,4087.21,2.9964682245643646
607,4089.85,2.886865792172645
