,lambda (Angstroms),Total Flux (erg/s/cm^2/Angstrom)
0,100.09,48.95560886393505
1,101.94999999999999,48.819414731275565
2,104.09,48.66271825600573
3,104.712855,48.617111161149836
4,106.02000000000001,48.11434674575167
5,107.99,47.3566298144793
6,110.0,46.58352776873331
7,114.13,44.99501460933002
8,117.87,43.55650632551758
9,120.22644299999999,42.6501526578133
10,120.89000000000001,42.43617536958907
11,125.14000000000001,41.06567745245554
12,126.88,40.50457948422491
13,128.06,40.12406476966689
14,131.04,39.163103882760986
15,131.95,38.86965610423548
16,134.09,38.179570100914006
17,136.9,37.27342915305549
18,138.038426,36.906320817112515
19,140.09,36.43344050641323
20,143.02,35.75808638155365
21,147.03,34.83379641064637
22,151.15,33.88415163186805
23,155.02,32.99213100072766
24,158.489319,32.1924658984947
25,159.0,32.10347493926263
26,161.95999999999998,31.587667186401994
27,166.11,30.864490843680176
28,169.98,30.19010720197118
29,173.14,29.639447732988533
30,177.17,28.937182743335924
31,180.05,28.435316047951076
32,181.970086,28.10072328236865
33,182.14000000000001,28.07813438363477
34,185.95000000000002,27.571621192867894
35,191.16,26.87898776456475
36,193.82,26.52535945239614
37,197.88,25.98561085638325
38,202.02,25.435227018281118
39,204.83,25.061657520447294
40,208.929613,24.51664275079792
41,210.09,24.400663987073933
42,215.97000000000003,23.812969414035855
43,219.99,23.411178172309004
44,223.04999999999998,23.10533697929021
45,227.19,22.691552455293603
46,229.82,22.4287027570031
47,234.1,22.000954558288445
48,239.88329199999998,21.422948060403257
49,240.1,21.406257892726906
50,246.26,20.931812780069155
51,252.0,20.489726888924437
52,257.27,20.083813710299058
53,260.25,19.854313560382806
54,263.87,19.575510815765753
55,268.78,19.197347127465832
56,273.78,18.81225114633454
57,275.42287,18.685718789600976
58,278.87,18.481965169059276
59,284.05,18.175784853530487
60,290.0,17.824083599142014
61,296.07,17.46530216600268
62,300.88,17.180988128697372
63,307.89,16.76664531089297
64,316.227766,16.273822465558414
65,317.98,16.196467360561577
66,327.64,15.770007614323772
67,338.37,15.296306283993676
68,347.85,14.877791658599426
69,356.78000000000003,14.48355854430495
70,363.078055,14.205518734554412
71,365.93,14.111231511459664
72,375.32000000000005,13.800787816358737
73,384.94,13.482728391618283
74,394.82000000000005,13.15609844929835
75,404.95000000000005,12.821191598178928
76,414.38000000000005,12.509422107558084
77,416.86938299999997,12.42711924092919
78,422.08000000000004,12.29556466540606
79,429.93,12.097372592971315
80,440.96000000000004,11.818898720024023
81,451.23,11.559605852891051
82,459.62,11.347777983214554
83,470.32,11.07762744337611
84,478.630092,10.867820661378289
85,480.16999999999996,10.837920338408848
86,490.22999999999996,10.64257529987337
87,500.49,10.443357509592056
88,506.29,10.330755851562854
89,512.15,10.217145828189903
90,520.47,10.055602369423184
91,530.15,9.867651727764793
92,540.0,9.676367723082443
93,549.5408739999999,9.491210903664879
94,550.04,9.483823114887118
95,560.27,9.332391080330236
96,569.37,9.197675222962921
97,579.96,9.040788379301397
98,589.38,8.90139227372996
99,600.3399999999999,8.739062473988668
100,610.09,8.59473400423797
101,620.01,8.448009203910086
102,630.0799999999999,8.298943441955268
103,630.957344,8.285951534041217
104,640.32,8.176053278629999
105,650.72,8.054112289403745
106,658.26,7.965666316239711
107,664.3499999999999,7.894285644261069
108,675.1400000000001,7.767656300026326
109,684.54,7.657267256514137
110,695.6600000000001,7.5272015227337565
111,705.34,7.413436868061628
112,716.8,7.279391276658467
113,724.43596,7.189847954360963
114,726.7700000000001,7.169541476518355
115,735.18,7.0963908695739235
116,745.41,7.007633205963753
117,755.7800000000001,6.917513980840831
118,764.53,6.84148079079401
119,775.1700000000001,6.749206044825073
120,784.15,6.671333476650163
121,795.0500000000001,6.576633282014691
122,804.26,6.496654140711694
123,815.45,6.399401158871242
124,824.8900000000001,6.3177528854401555
125,831.763771,6.2571928033385795
126,834.44,6.23950555192556
127,844.11,6.177967366528738
128,855.8499999999999,6.1018344275981615
129,865.76,6.0379194094582935
130,875.7800000000001,5.973319156686199
131,885.9200000000001,5.908061838042582
132,894.12,5.855287491821906
133,904.48,5.788036905913832
134,914.95,5.725378219373529
135,925.54,5.746217603961706
136,934.1099999999999,5.819604992887169
137,944.9200000000001,5.974172936210886
138,954.992586,6.083395577159743
139,955.87,6.093033357675272
140,964.71,6.15935927865268
141,975.88,5.46234687065694
142,984.91,6.004321627039972
143,994.0200000000001,5.963667877278001
144,1005.5300000000001,6.1690793431660085
145,1014.84,6.046819378041538
146,1024.23,5.414213506772065
147,1036.0900000000001,5.661028195775692
148,1045.6699999999998,6.210812759911845
149,1055.3500000000001,6.1461210163667435
150,1065.12,5.8586575159085195
151,1074.97,5.990565009305292
152,1084.92,5.702115995020813
153,1094.96,5.93419122382321
154,1096.4782,5.918428991446339
155,1105.09,5.838970398720916
156,1115.31,5.764235048501188
157,1125.6299999999999,5.602824737907492
158,1136.05,5.816537466939826
159,1143.9199999999998,5.658035185508393
160,1154.51,5.683255581904977
161,1165.19,5.688473213964988
162,1175.97,5.236174885651031
163,1184.1200000000001,5.548736115172481
164,1195.08,5.0891152581853785
165,1206.14,4.772288040824304
166,1214.5,4.398014553560418
167,1225.74,4.867595807526198
168,1234.23,5.3143247717761515
169,1245.6499999999999,5.417109897068786
170,1254.2900000000002,5.330827520757783
171,1258.92541,5.230162238537608
172,1265.89,5.0893524965484245
173,1274.67,5.419551392068413
174,1286.46,5.45951817204343
175,1295.3799999999999,5.119922131956676
176,1304.36,5.072243833752745
177,1316.43,5.348000742514277
178,1325.55,5.2549625087036045
179,1334.74,5.0657088070895595
180,1343.99,5.284567847358339
181,1356.43,5.1949219977306225
182,1365.8300000000002,5.004094892706464
183,1375.3000000000002,5.045110319878933
184,1384.83,5.0427664889342285
185,1394.43,4.8061211901861505
186,1404.1000000000001,4.834535423634702
187,1413.8300000000002,4.849289398966078
188,1423.6299999999999,4.844915906494084
189,1433.5,4.808187946218716
190,1443.43,4.858442727826174
191,1445.43977,4.866437855119974
192,1446.76,4.873173429709615
193,1453.44,4.821664599109433
194,1463.51,4.684757989207663
195,1473.66,4.658379596903495
196,1483.87,4.6599303677975294
197,1494.1599999999999,4.661728356289167
198,1504.52,4.566243535178705
199,1511.46,4.393645411770732
200,1518.44,4.4681143971615604
201,1525.4499999999998,4.415962464151491
202,1536.02,4.215645214234737
203,1546.67,4.305766181915585
204,1553.81,4.213380602501619
205,1564.5800000000002,4.216691896578871
206,1575.4199999999998,4.286202381054027
207,1586.34,4.322472083126784
208,1593.66,4.350630993307424
209,1604.71,4.278669048976286
210,1615.8300000000002,4.257496295043049
211,1623.29,4.165550586019494
212,1634.54,4.228573185682363
213,1645.8700000000001,4.227089002942833
214,1653.47,4.094631674715082
215,1659.58691,4.15401543275734
216,1664.93,4.2100447612430045
217,1672.62,4.03272592503891
218,1676.4699999999998,4.201363411464688
219,1684.2099999999998,4.2499626205388505
220,1695.8899999999999,4.137483597539653
221,1703.71,4.067504279059026
222,1715.5200000000002,3.984592773783297
223,1723.44,3.966395545859184
224,1735.39,4.041488367362574
225,1743.3999999999999,3.991379420939324
226,1755.48,4.069929760166182
227,1763.59,3.919913904299445
228,1775.81,3.952100570305422
229,1784.01,3.961100995939547
230,1796.37,4.037425988724643
231,1804.6599999999999,4.009702695859631
232,1812.9899999999998,3.892400639217225
233,1825.56,3.897596622171
234,1833.99,3.830487656085106
235,1846.7,3.6866089658180012
236,1855.23,3.6893790902886217
237,1863.79,3.7186616419261966
238,1876.71,3.8004029418277696
239,1885.3700000000001,3.671827584021858
240,1894.07,3.6041204624385523
241,1902.8200000000002,3.6666363861335025
242,1905.46072,3.653518102892484
243,1916.01,3.6062398110689085
244,1924.85,3.564916533173573
245,1933.7299999999998,3.5863219327538243
246,1947.1399999999999,3.6528525564442713
247,1956.13,3.548967319082385
248,1965.1499999999999,3.6646270898271904
249,1974.2299999999998,3.693118876785375
250,1983.3400000000001,3.6005706718502495
251,1997.08,3.543514384714287
252,2006.3,3.5660635428370258
253,2015.5600000000002,3.51887437843535
254,2024.87,3.561083560878159
255,2034.2099999999998,3.4902217514276574
256,2043.6000000000001,3.5281972888216386
257,2053.04,3.4385331730601045
258,2067.27,3.438544685000079
259,2072.03,3.542277304594898
260,2076.81,3.483906262927511
261,2086.4,3.519077187699426
262,2096.03,3.430910789946928
263,2105.7000000000003,3.429643069670017
264,2115.42,3.4363576962375895
265,2125.1800000000003,3.4432480002807484
266,2134.99,3.329300651168391
267,2144.85,3.3581376489005166
268,2154.75,3.395891324108229
269,2164.69,3.3316846767915282
270,2174.69,3.310642045688207
271,2184.72,3.289573422691577
272,2187.7616199999998,3.3055219998705585
273,2194.81,3.3455189444669715
274,2204.94,3.2931418801579424
275,2215.12,3.211832721750646
276,2225.34,3.169507488064735
277,2235.61,3.2615761602805566
278,2245.93,3.191537738398111
279,2256.3,3.1230632224173966
280,2266.71,3.1382846311580694
281,2277.18,3.1687479269808203
282,2282.43,3.205308046662715
283,2292.96,3.109094229567545
284,2303.54,3.117039318374107
285,2314.1800000000003,3.0524542942627475
286,2324.86,2.7856431948727747
287,2335.5899999999997,2.9455030013845342
288,2346.3700000000003,2.8791907137980246
289,2357.2000000000003,2.982610332113249
290,2362.63,2.8634981130413806
291,2373.54,2.898741580799376
292,2384.5,2.7856799544591038
293,2395.5,2.8512152528402175
294,2406.56,2.79880243830341
295,2417.67,2.8135015296683346
296,2423.2400000000002,2.8942880471213166
297,2434.43,2.8364629879290133
298,2445.66,2.896621853458096
299,2456.95,2.8684936060692574
300,2462.62,2.852674935325704
301,2473.98,2.7915985561992906
302,2485.4,2.7970500641549556
303,2496.87,2.7084974780123536
304,2502.63,2.855243637891918
305,2511.88643,2.7242994248633092
306,2514.18,2.6923812006972465
307,2519.98,2.7069917249272137
308,2525.79,2.658920529371371
309,2537.44,2.6721499789022527
310,2543.2900000000004,2.6584419042031677
311,2555.0299999999997,2.742909875661757
312,2566.83,2.698170528405483
313,2572.7400000000002,2.7633331349915355
314,2584.6200000000003,2.741082029448779
315,2596.55,2.71225032497697
316,2602.53,2.66222089306235
317,2614.5499999999997,2.6342467105182474
318,2626.62,2.6899599290450933
319,2632.6699999999996,2.7393944586298002
320,2644.82,2.8552179188701623
321,2657.03,2.895087060395662
322,2663.16,2.747877831693886
323,2675.45,2.795753214932903
324,2687.8,2.804700279457057
325,2693.99,2.7146347320404187
326,2706.4300000000003,2.7511233184922785
327,2712.6699999999996,2.663083172146589
328,2725.19,2.6404080003119654
329,2737.77,2.6994685097624807
330,2744.08,2.5110833249161173
331,2756.75,2.5422473562943386
332,2763.1,2.595842292304734
333,2775.8500000000004,2.643523565396472
334,2782.25,2.542604902477815
335,2795.1,2.285764977711449
336,2808.0,2.3470174540160316
337,2814.4700000000003,2.5978997525967014
338,2827.46,2.66807275082899
339,2833.98,2.621129450480608
340,2847.06,2.5602439706406033
341,2853.62,2.4805017911489804
342,2866.79,2.6247368332366814
343,2873.3999999999996,2.641116054816006
344,2884.0315,2.6245670028135164
345,2886.67,2.620980739671113
346,2893.3199999999997,2.62806279393575
347,2906.68,2.75077442776666
348,2926.82,2.675206420682418
349,2947.11,2.6383132268522655
350,2967.54,2.6528795920592634
351,2988.11,2.6451875163034115
352,3008.8199999999997,2.6525049995847096
353,3029.6800000000003,2.648464296120097
354,3050.68,2.644479151692636
355,3071.83,2.6478958205192633
356,3093.12,2.6399820483830414
357,3107.4,2.6473430701723673
358,3128.94,2.6087196534596275
359,3150.62,2.600620795784039
360,3172.4599999999996,2.611421005579478
361,3187.11,2.5209584333955584
362,3209.2,2.5644139986144805
363,3231.44,2.4749693770874925
364,3246.3599999999997,2.589679668760934
365,3268.86,2.648249656874367
366,3291.52,2.6234667124588302
367,3306.71,2.6031458679896327
368,3311.31121,2.595829488870057
369,3321.98,2.580341898439522
370,3329.64,2.6491919741149554
371,3337.31,2.601535688270383
372,3345.0,2.574564679385799
373,3352.7200000000003,2.5325155859411965
374,3360.44,2.5878974924965945
375,3368.1899999999996,2.5767773144919746
376,3375.96,2.415321413447342
377,3383.7400000000002,2.4300701508827043
378,3391.54,2.5868691652780544
379,3399.35,2.6362378181533987
380,3407.19,2.521454386468725
381,3415.05,2.549285231744039
382,3422.92,2.651080715499347
383,3430.8100000000004,2.5985144762146435
384,3438.7200000000003,2.611375513889928
385,3446.6400000000003,2.3934111900452066
386,3454.59,2.5683207816404674
387,3462.5499999999997,2.4305000117157225
388,3470.54,2.514299157230959
389,3478.54,2.37669594122619
390,3486.5600000000004,2.4845320021814086
391,3494.59,2.4469917016166214
392,3502.65,2.552160316491817
393,3510.72,2.513110569847006
394,3518.8199999999997,2.4558587386421773
395,3526.93,2.4299075459173425
396,3535.06,2.526663630152496
397,3543.21,2.6168559913476375
398,3551.37,2.605033991022773
399,3559.56,2.5605269061378904
400,3567.77,2.524753098212996
401,3575.99,2.376266928768096
402,3584.23,2.291141036283183
403,3592.5,2.3298780592382533
404,3593.6400000000003,1.9721368459575737
405,3596.33,2.6613425970759703
406,3599.02,2.4921663481943668
407,3601.71,2.231551099312763
408,3604.3999999999996,2.8464538504311596
409,3607.09,3.0043886015495556
410,3609.78,2.190306352667952
411,3612.47,2.5733331037863483
412,3615.16,2.366890854904745
413,3617.8500000000004,2.0693546060231407
414,3620.54,2.5118453571415373
415,3623.23,2.639531108259934
416,3625.92,2.5352258593783303
417,3628.6099999999997,2.1258916104967267
418,3631.3,2.184566361615123
419,3633.9900000000002,2.4794891127335195
420,3636.68,1.8015308638519159
421,3639.37,1.9497476149703123
422,3642.06,2.5465913660887085
423,3644.75,2.030982117207105
424,3647.44,2.188916868325501
425,3650.1299999999997,2.4771686194438978
426,3652.82,2.235761370562294
427,3655.51,2.02195812168069
428,3658.2,2.0518788727990867
429,3660.89,1.6659862239174832
430,3663.5800000000004,2.255377375035879
431,3666.27,2.577098126154276
432,3668.96,2.609778877272672
433,3671.65,2.9941846283910687
434,3674.3399999999997,2.4835213795094653
435,3677.03,1.8574481306278612
436,3679.7200000000003,2.4813668817462577
437,3682.41,1.8396866328646542
438,3685.0899999999997,2.5880337455030564
439,3687.7799999999997,3.0577854966214533
440,3690.4700000000003,2.0252792477398494
441,3693.16,2.460985998858246
442,3695.85,2.604083749976642
443,3698.54,2.5491215010950383
444,3701.23,3.0283042522134345
445,3703.92,2.433674003331831
446,3706.61,3.222946754450228
447,3709.2999999999997,2.8114265055686243
448,3711.9900000000002,2.29466425668702
449,3714.6800000000003,1.9779190078054163
450,3717.37,2.3949917589238128
451,3720.06,2.043741510042209
452,3722.75,2.215019261160606
453,3725.44,2.7098450122790023
454,3728.13,4.147130763397398
455,3730.82,4.314152514515795
456,3733.5099999999998,4.337862265634191
457,3736.2000000000003,3.241062016752587
458,3738.8900000000003,2.415475767870984
459,3741.58,2.3061095189893805
460,3744.27,2.8176122701077766
461,3746.9599999999996,3.225138021226173
462,3749.65,3.1946737723445695
463,3752.34,2.1071905234629655
464,3755.0299999999997,2.745788274581362
465,3757.72,2.1487440256997585
466,3760.4100000000003,3.1198597768181546
467,3763.1,3.3269075279365516
468,3765.79,3.3391152790549476
469,3768.48,3.407107030173344
470,3771.1699999999996,3.194224781291741
471,3773.86,2.7639565324101367
472,3776.55,2.997344283528533
473,3779.24,3.60661203464693
474,3781.93,3.5227787857653263
475,3784.6200000000003,2.6112755368837224
476,3787.31,3.650710288002119
477,3790.0,2.998458039120515
478,3792.69,3.2844087902389116
479,3795.3799999999997,3.103961541357308
480,3798.07,3.105702292475704
481,3800.76,3.655850043594101
482,3801.8939600000003,3.238153875719727
483,3803.45,2.6651354994223015
484,3806.14,3.0446285096531716
485,3808.8300000000004,3.319339519884042
486,3811.52,3.668927530114912
487,3814.21,3.339103540345782
488,3816.8999999999996,3.3727375505766526
489,3819.59,3.035321560807523
490,3822.28,2.943700571038393
491,3824.97,3.7378335812692636
492,3827.66,3.812988591500134
493,3830.3500000000004,2.8234206017310037
494,3833.04,2.5376486119618744
495,3835.73,2.6896356221927444
496,3838.42,3.097537632423615
497,3841.1099999999997,2.7764546426544854
498,3843.8,2.7516586528853555
499,3846.4900000000002,2.9110066631162255
500,3849.18,3.106355673347096
501,3851.87,3.020369683577966
502,3854.5600000000004,3.3777786938088363
503,3857.25,3.4319997040397068
504,3859.94,3.558107714270577
505,3862.63,3.581389724501447
506,3865.3199999999997,3.494023734732318
507,3868.01,3.709729744963188
508,3870.7000000000003,3.559564755194058
509,3873.38,3.9089411520039956
510,3876.0699999999997,3.824335162234866
511,3878.7599999999998,3.3012781724657363
512,3881.4500000000003,3.406338182696606
513,3884.14,2.8884581929274766
514,3886.83,3.080357203158347
515,3889.52,3.232114213389217
516,3892.21,3.2853012236200874
517,3894.9,3.421646233850958
518,3897.59,3.2519262440818277
519,3900.2799999999997,3.1031402543126987
520,3902.9700000000003,3.2640992645435687
521,3905.6600000000003,3.411601274774439
522,3908.35,3.234520285005309
523,3911.04,3.2402042952361794
524,3913.7300000000005,3.44866530546705
525,3916.42,3.79687431569792
526,3919.11,3.66982632592879
527,3921.7999999999997,2.9145483361596605
528,3924.49,3.052848346390531
529,3927.1800000000003,3.192299356621401
530,3929.87,3.3434803668522717
531,3932.56,2.921986377083142
532,3935.25,2.9479133873140118
533,3937.9399999999996,3.375024397544882
534,3940.63,3.5416194077757526
535,3943.32,4.0729364180066225
536,3946.0099999999998,3.872737428237493
537,3948.7,3.4947204384683634
538,3951.3900000000003,3.8525904486992335
539,3954.08,3.6422694589301035
540,3956.77,3.718804469160974
541,3959.46,3.4498244793918444
542,3962.1499999999996,3.229498489622715
543,3964.84,3.104060499853585
544,3967.53,2.660943510084455
545,3970.22,2.5993415203153254
546,3972.91,2.4170855305461956
547,3975.6000000000004,2.525135540777066
548,3978.29,2.8784045510079364
549,3980.98,2.7791925612388066
550,3983.67,2.9224375714696764
551,3986.36,3.688966581700547
552,3989.05,3.704887591931417
553,3991.74,3.7911986021622877
554,3994.43,3.830353612393158
555,3997.12,3.836956622624028
556,3999.81,3.826192632854898
557,4002.5,3.890881643085769
558,4005.19,3.8846026533166387
559,4007.8799999999997,3.6310366635475093
560,4010.57,3.9048266737783797
561,4013.26,3.95927868400925
562,4015.95,3.71882369424012
563,4018.64,3.70874970447099
564,4021.3300000000004,4.086057714701861
565,4024.02,3.838931724932731
566,4026.71,3.629301735163601
567,4029.4,3.8241897453944715
568,4032.0899999999997,3.630201755625342
569,4034.78,3.5537627658562116
570,4037.4700000000003,3.5766997760870822
571,4040.16,3.7105137863179523
572,4042.85,3.7265487965488227
573,4045.5400000000004,3.6401038067796927
574,4048.23,3.687538817010563
575,4050.92,3.7240478272414332
576,4053.61,3.798971837472304
577,4056.2999999999997,3.734264847703174
578,4058.9900000000002,4.008860857934044
579,4061.68,4.090915868164915
580,4064.37,4.073595878395785
581,4067.0499999999997,3.9854442752057224
582,4069.7400000000002,3.603285285436593
583,4072.4300000000003,4.285393295667463
584,4075.12,3.9220973058983333
585,4077.81,3.6313783161292035
586,4080.5000000000005,3.527335326360074
587,4083.19,3.653788336590944
588,4085.88,3.587931346821814
589,4088.57,3.4758353570526843
590,4091.2599999999998,3.7934493672835554
591,4093.9500000000003,3.3406703775144253
592,4096.639999999999,2.9120433877452956
593,4099.33,3.4085113979761656
594,4102.02,3.2312004082070356
595,4104.71,3.2323994184379066
596,4107.4,3.181954428668776
597,4110.09,3.4350424388996466
598,4112.78,3.260492449130517
599,4115.47,3.9575514593613876
600,4118.16,3.9526534695922577
