,lambda (Angstroms),Total Flux (erg/s/cm^2/Angstrom)
0,100.05999999999999,9.858597940512752
1,101.92,9.831172626409616
2,104.05,9.799766218319128
3,104.712855,9.789992558883137
4,105.99000000000001,9.6910748189003
5,107.96,9.538493907812414
6,109.97,9.382814907349028
7,114.09,9.06371168250313
8,118.1,8.753128204332944
9,120.22644299999999,8.588430439151306
10,121.13000000000001,8.529757451903672
11,125.10000000000001,8.27196323953867
12,127.13000000000001,8.140144032813984
13,128.01,8.083000732303924
14,131.0,7.8888433798988595
15,131.9,7.830401372660035
16,134.05,7.690789899554223
17,136.85,7.508970317621766
18,138.038426,7.4317992011994
19,140.04000000000002,7.3388963829275475
20,142.97,7.202900921171987
21,146.98,7.016777663706683
22,151.1,6.825548483677722
23,154.97,6.645923066456137
24,158.489319,6.482574489106847
25,158.95,6.4664089879412785
26,161.9,6.362892192270532
27,166.06,6.216916013336259
28,169.93,6.08111608950002
29,173.08,5.970581296453732
30,177.11999999999998,5.828816078278783
31,179.99,5.7281066701962535
32,181.970086,5.658624694418781
33,182.07999999999998,5.655682232530206
34,185.89000000000001,5.5536863831028755
35,191.1,5.414211779925848
36,194.2,5.331223141393949
37,197.81,5.234581616095288
38,201.95999999999998,5.1234840237441155
39,204.76999999999998,5.04825901305814
40,208.929613,4.936903885887418
41,210.02,4.914958272325782
42,215.9,4.796615860907933
43,219.92000000000002,4.715708179777892
44,222.98,4.6541216073104
45,227.12,4.5707989567237925
46,229.75,4.5178745653315024
47,234.01999999999998,4.431949406496112
48,239.88329199999998,4.313954362274053
49,240.03,4.311679287414402
50,246.18,4.2162956074419915
51,251.92,4.127277898333743
52,257.19,4.045535512794897
53,260.16999999999996,3.9993273649078276
54,263.79,3.943188919968164
55,268.69,3.8671954949833176
56,273.69,3.7896507810130657
57,275.42287,3.7627758471491264
58,278.78,3.722818580943762
59,283.96000000000004,3.661165483638064
60,289.90999999999997,3.590343693084357
61,295.98,3.518098989384726
62,300.79,3.460847900577292
63,307.79,3.377534309701754
64,316.227766,3.277108651227507
65,317.88,3.26242146141007
66,328.28999999999996,3.169881478352471
67,338.27000000000004,3.0811631786350024
68,347.74,2.9969781513860627
69,356.66,2.9176835467698488
70,363.078055,2.8606312415860042
71,365.81,2.842444921236346
72,375.2,2.779932997620143
73,384.82000000000005,2.7158841471331487
74,394.69,2.6501836108822525
75,404.82,2.5827477916208963
76,414.24999999999994,2.5199680522184695
77,416.86938299999997,2.5025292133450003
78,421.95000000000005,2.4766989263184747
79,429.79,2.4368401513688522
80,440.82000000000005,2.3807673034091152
81,451.08000000000004,2.3286048803587165
82,459.47,2.2859484279452813
83,470.17,2.231549463003832
84,478.630092,2.188540836493847
85,480.02000000000004,2.183106756545233
86,490.07,2.1438067260806104
87,500.33,2.1036950613928465
88,506.13,2.0810163738013228
89,511.99,2.058145395117474
90,520.3,2.0256558678303085
91,529.98,1.9878078579016962
92,539.83,1.9492851302781606
93,549.5408739999999,1.9113398095707184
94,549.87,1.9103589634728044
95,560.09,1.8799074357046555
96,570.5,1.8488842006325001
97,579.77,1.8212305115843852
98,590.5500000000001,1.789118590341269
99,600.15,1.7604872783704055
100,609.9,1.7314218491437467
101,619.8100000000001,1.7019471379242403
102,629.88,1.6719397185118867
103,630.957344,1.6687293588708478
104,640.11,1.6471142497688598
105,650.52,1.6225563784242294
106,658.0500000000001,1.6047823162781132
107,665.67,1.5868208568820439
108,674.93,1.5649620317534867
109,684.32,1.54275129730833
110,695.4399999999999,1.5166491412807326
111,705.11,1.4937397959690535
112,716.5699999999999,1.4668579737749647
113,724.43596,1.4483219524787359
114,726.54,1.4446460606625557
115,734.95,1.429959929207654
116,745.17,1.4121603716144202
117,755.54,1.394075835059446
118,764.29,1.3787679742912662
119,774.9200000000001,1.3603407492026087
120,785.7,1.3415189991522114
121,794.8,1.3257242874733046
122,805.86,1.3064787796943254
123,815.1899999999999,1.2902436132740835
124,824.63,1.2739279262818985
125,831.763771,1.2611088531100256
126,834.1800000000001,1.2578380447629165
127,845.78,1.2432965583662612
128,855.5699999999999,1.2305918880021876
129,865.48,1.2178986202271138
130,875.5,1.2050313349086237
131,885.64,1.1920571061791334
132,895.9,1.1788644890386435
133,904.1899999999999,1.1681081548120682
134,914.6600000000001,1.1558775044523284
135,925.25,1.169228609681589
136,935.96,1.1942646304998494
137,944.62,1.2480313991726912
138,954.992586,1.2902954877080943
139,955.5600000000001,1.2926235517665443
140,964.4,1.3077832493869657
141,975.57,1.1087055620589223
142,984.6,1.248234108202859
143,995.9999999999999,1.247144419613809
144,1005.21,1.333854831727392
145,1014.51,1.3137055068257986
146,1023.9,1.1382784449090284
147,1035.76,1.2017744337979641
148,1045.34,1.38374776040471
149,1055.01,1.3658168499962786
150,1064.78,1.27084986512654
151,1074.63,1.3218689806877553
152,1084.57,1.2305833592337942
153,1094.6100000000001,1.3214241633185253
154,1096.4782,1.3163311777371227
155,1104.73,1.2957555700716057
156,1114.96,1.2709326461196537
157,1125.27,1.2231844367409028
158,1135.69,1.3096751099003023
159,1146.19,1.2603261976329032
160,1154.14,1.2803759083447293
161,1164.82,1.2841037038670318
162,1175.6,1.1356057926058352
163,1183.74,1.2551837004290132
164,1194.7,1.1127462969575181
165,1205.75,1.018807397380874
166,1214.1100000000001,0.9434470702803541
167,1225.3400000000001,1.0826327784934118
168,1233.84,1.2291488018959935
169,1245.25,1.263679517898753
170,1253.89,1.2341018918044355
171,1258.92541,1.200848831213826
172,1265.49,1.1594783607947425
173,1274.2600000000002,1.277650898340558
174,1286.05,1.2971135838211927
175,1294.96,1.1715894209401454
176,1303.94,1.162763807845667
177,1316.01,1.2707172924725763
178,1325.1299999999999,1.2407934789512352
179,1334.31,1.1734528081040958
180,1343.56,1.260653487043525
181,1355.99,1.2355492277156443
182,1365.3899999999999,1.1706963133405779
183,1374.86,1.18987934875208
184,1384.39,1.1901441268377837
185,1393.98,1.1079643475976895
186,1403.6499999999999,1.1181466252565304
187,1413.3799999999999,1.1347350455895733
188,1426.45,1.1391195414531774
189,1436.3400000000001,1.1328975755840913
190,1442.97,1.1575422910833797
191,1445.43977,1.1623328056200775
192,1446.3000000000002,1.1641960092144465
193,1456.3200000000002,1.1437027249299487
194,1466.4199999999998,1.0985786996531597
195,1476.5800000000002,1.0955972936321516
196,1483.4,1.1026396490393096
197,1493.68,1.1081034815298647
198,1504.0300000000002,1.0754341031521646
199,1510.98,1.0183198669468494
200,1517.95,1.046699370493461
201,1524.96,1.0310288535439271
202,1535.53,0.9642117124374259
203,1546.17,0.9927584604626696
204,1553.31,0.9682309519006622
205,1564.08,0.9773437083134324
206,1574.9199999999998,1.0027506538579476
207,1585.83,1.0201172885342078
208,1596.83,1.0257380520941402
209,1604.2,1.013893450679295
210,1615.3200000000002,1.0103445527507902
211,1626.51,0.9811684439540307
212,1634.02,1.0086010208026757
213,1645.35,1.012014490269406
214,1656.75,0.9708052488678813
215,1659.58691,0.9854761361387525
216,1664.4,1.011120928039789
217,1672.08,0.9538952692947054
218,1675.9399999999998,1.016556013727515
219,1683.6699999999998,1.0348717394958096
220,1695.34,0.9974000049183194
221,1703.17,0.9769543997133707
222,1714.98,0.9501196817733397
223,1726.8600000000001,0.9446763221520385
224,1734.83,0.9758263335845494
225,1746.8600000000001,0.9597998275033831
226,1754.92,0.9912986710599749
227,1763.0199999999998,0.9459098622272697
228,1775.2399999999998,0.9540229572969413
229,1783.44,0.9615607174909924
230,1795.8,0.9925304291981234
231,1804.0900000000001,0.9857167215162559
232,1816.59,0.9423677498608464
233,1824.98,0.9499109112057355
234,1833.4,0.9292525832586516
235,1846.11,0.884814186559431
236,1854.6299999999999,0.8870273276391039
237,1863.19,0.9013621163294794
238,1876.11,0.932369894586448
239,1884.77,0.8912352523035804
240,1893.4699999999998,0.8717288576314153
241,1905.46072,0.8924927417428807
242,1906.59,0.8945587985819622
243,1915.3899999999999,0.8765905445720831
244,1924.23,0.8633687530439773
245,1933.1200000000001,0.870730839618088
246,1946.52,0.8964562710121359
247,1955.5,0.8636329981702364
248,1969.05,0.905753963870934
249,1978.1399999999999,0.9166418628539112
250,1982.7,0.8902424857760648
251,1996.4499999999998,0.8738374638856288
252,2005.6599999999999,0.8840814503139258
253,2014.92,0.8677429148444393
254,2024.2199999999998,0.8838050418567263
255,2033.5600000000002,0.8604778313507864
256,2042.95,0.8775959989470632
257,2057.11,0.8451702174948033
258,2066.61,0.8482136569159564
259,2076.15,0.886664058818883
260,2085.73,0.8840920232035828
261,2095.36,0.8541859656904993
262,2105.0299999999997,0.8539094706591891
263,2114.74,0.858327438109652
264,2124.51,0.8616253992827748
265,2134.31,0.8244474073172277
266,2144.16,0.8364822934538971
267,2154.06,0.8513133576927832
268,2164.0,0.8323050844134425
269,2173.9900000000002,0.8273284892363183
270,2184.03,0.8200798721614109
271,2187.7616199999998,0.8276636292002164
272,2194.11,0.8411166260459876
273,2204.23,0.8263958194881751
274,2214.41,0.7997280162511659
275,2224.63,0.7859298485613588
276,2234.9,0.816215000305555
277,2245.22,0.795233271483754
278,2255.58,0.7718065782091552
279,2265.99,0.7794943043685594
280,2276.45,0.7917685499619664
281,2286.96,0.8033464149893763
282,2297.51,0.7717432155639885
283,2302.81,0.7772966755682962
284,2313.44,0.7563454472373131
285,2324.12,0.666492738340333
286,2334.84,0.719563864990555
287,2345.62,0.7025414949615807
288,2356.45,0.7376350443666093
289,2367.33,0.6978521132056408
290,2372.7799999999997,0.711089131511957
291,2383.73,0.6750834875585925
292,2394.74,0.6987325469260315
293,2405.79,0.6829210418406727
294,2416.9,0.6911418400761176
295,2422.47,0.7192029650240408
296,2433.65,0.7025186504670896
297,2444.88,0.7234346553441413
298,2456.17,0.7164166635419966
299,2467.5,0.7104489072870541
300,2473.19,0.6937652388765845
301,2484.6099999999997,0.6976167376028473
302,2496.08,0.6636602557631128
303,2507.6,0.7177748933573814
304,2511.88643,0.6767679127988
305,2513.38,0.6625485254658534
306,2519.17,0.6691543467435687
307,2524.98,0.6556642617044537
308,2536.63,0.6614254321509792
309,2542.4799999999996,0.6570456344782043
310,2554.22,0.6846407264989947
311,2566.01,0.67069235272771
312,2577.85,0.6924906131643505
313,2583.7900000000004,0.6857963370658405
314,2595.7200000000003,0.6774573190767459
315,2607.7,0.6626018352955763
316,2613.71,0.6544010870881615
317,2625.7799999999997,0.6746326248812569
318,2637.9,0.6899497968822772
319,2643.98,0.7282094765659574
320,2656.1800000000003,0.7400791232996577
321,2662.31,0.690934437191263
322,2674.59,0.7102859586576433
323,2686.94,0.7098025080151187
324,2693.13,0.6850236029562339
325,2705.5600000000004,0.6979258270463892
326,2718.05,0.6708413321860547
327,2724.32,0.6700511018598498
328,2736.8900000000003,0.6887673817321951
329,2743.2000000000003,0.6261642387723304
330,2755.86,0.6363911402189407
331,2762.2200000000003,0.6525623314670009
332,2774.97,0.6706640544878764
333,2787.78,0.6379246585582617
334,2794.2,0.5593864308558321
335,2807.1000000000004,0.5796735565004822
336,2813.57,0.6597875630059775
337,2826.5600000000004,0.6858923102248928
338,2833.0699999999997,0.6694500040967282
339,2846.15,0.6566757728899086
340,2852.71,0.6353738009696688
341,2865.88,0.6788476913371141
342,2872.49,0.6780138536247994
343,2884.0315,0.6747305495684293
344,2885.74,0.6743124321992502
345,2892.4,0.6716443660311242
346,2912.45,0.7103608779423968
347,2932.63,0.689633366339877
348,2952.96,0.6791997199137509
349,2966.59,0.6878305622753792
350,2987.16,0.6871778801314827
351,3007.86,0.6909591744737942
352,3028.71,0.6891848339924991
353,3049.71,0.6885076586875976
354,3070.84,0.6912204598689038
355,3092.13,0.6928084705716964
356,3113.5600000000004,0.6921274021057897
357,3127.94,0.6829675703493858
358,3149.6200000000003,0.6845031105108017
359,3171.4500000000003,0.6849210158486112
360,3193.43,0.6564455863628144
361,3208.17,0.6727623510297549
362,3230.4100000000003,0.6468527745163735
363,3252.8,0.6757212631793856
364,3267.82,0.6917831695089274
365,3290.47,0.6863436111443552
366,3311.31121,0.684574576307441
367,3313.28,0.6844623419388987
368,3320.92,0.6828602851012167
369,3328.57,0.693034251356679
370,3336.24,0.7058650637984302
371,3343.93,0.6700147224264701
372,3351.6400000000003,0.6799421272407986
373,3359.37,0.6853541782414163
374,3367.1099999999997,0.6778975523351781
375,3374.88,0.6351584957083731
376,3382.6600000000003,0.6498634621747126
377,3390.45,0.6883285517341965
378,3398.27,0.6831393105731136
379,3406.1000000000004,0.6710398925051749
380,3413.9599999999996,0.6775518437166697
381,3421.8199999999997,0.6949504949281643
382,3429.71,0.681355715419092
383,3437.6200000000003,0.6904288820963087
384,3445.5400000000004,0.6300023718666697
385,3453.4900000000002,0.6980208309164638
386,3461.45,0.6519799130594025
387,3469.43,0.6639749413886299
388,3477.42,0.6433117928110016
389,3485.44,0.6573613135128066
390,3493.48,0.6523845804009003
391,3501.5299999999997,0.6552997703821385
392,3509.6,0.6571081065496654
393,3517.69,0.6420900889034811
394,3525.8,0.6539098174435857
395,3533.9300000000003,0.677790792169979
396,3542.0800000000004,0.694238413082661
397,3550.2400000000002,0.6913250570884876
398,3558.42,0.6775963472806028
399,3566.63,0.6879647067521513
400,3574.85,0.6343949893168441
401,3583.0899999999997,0.6306529180678259
402,3591.35,0.6006891930050963
403,3599.6299999999997,0.6705084141286555
404,3607.93,0.6413298814385036
405,3610.12,0.6749903388371261
406,3612.86,0.6360498663586903
407,3615.59,0.6585993707871103
408,3618.3199999999997,0.67280647521553
409,3621.05,0.65057167964395
410,3623.79,0.6440815071655143
411,3626.5199999999995,0.6515657115939342
412,3629.25,0.6602405160223541
413,3631.98,0.680522820450774
414,3634.7200000000003,0.7027536479723382
415,3637.45,0.6649896524007581
416,3640.1800000000003,0.685070656829178
417,3642.92,0.6915534843507424
418,3645.6499999999996,0.7066710887791622
419,3648.38,0.700140593207582
420,3651.11,0.7071257976360019
421,3653.8500000000004,0.6844585251575662
422,3656.58,0.7140023295859862
423,3659.31,0.6921002340144061
424,3662.04,0.669707838442826
425,3664.78,0.6943984659643903
426,3667.5099999999998,0.6747723703928101
427,3670.2400000000002,0.67994567482123
428,3672.98,0.6684658023427943
429,3675.71,0.6848176067712142
430,3678.44,0.6884327111996341
431,3681.17,0.679906315628054
432,3683.9100000000003,0.6768738431496183
433,3686.64,0.6586395475780382
434,3689.3700000000003,0.6546300520064581
435,3692.1,0.661641556434878
436,3694.8399999999997,0.6819553839564423
437,3697.57,0.685885588384862
438,3700.3,0.6830579928132821
439,3703.0299999999997,0.6898331972417019
440,3705.77,0.6815221247632662
441,3708.5,0.6813818291916861
442,3711.23,0.6615719336201059
443,3713.97,0.7056258611416703
444,3716.7,0.6964955655700902
445,3719.4300000000003,0.73295476999851
446,3722.16,0.85348557442693
447,3724.9,1.0223322019484942
448,3727.63,1.3680274063769142
449,3730.3599999999997,1.668010610805334
450,3733.09,1.503869815233754
451,3735.83,1.1157128427553182
452,3738.5600000000004,0.8465877471837381
453,3741.29,0.748834251612158
454,3744.0299999999997,0.7338788791337223
455,3746.76,0.7521302835621422
456,3749.49,0.7348677879905621
457,3752.22,0.6928495924189819
458,3754.96,0.7143975199405462
459,3757.69,0.7560740243689661
460,3760.42,0.778238528797386
461,3763.15,0.7747806332258058
462,3765.89,0.7659965607473702
463,3768.62,0.7606654651757901
464,3771.35,0.72445086960421
465,3774.0800000000004,0.7147953740326298
466,3776.82,0.7632698015541941
467,3779.5499999999997,0.829264405982614
468,3782.28,0.8777165104110339
469,3785.02,0.9061355379325982
470,3787.7499999999995,0.9080002423610182
471,3790.48,0.886649846789438
472,3793.21,0.8412703512178579
473,3795.9500000000003,0.7918597787394221
474,3798.68,0.754726383167842
475,3801.41,0.7274581875962619
476,3801.8939600000003,0.7291837982846073
477,3804.14,0.7372363869900502
478,3806.88,0.802344207055429
479,3809.61,0.8727166077045108
480,3812.34,0.8896563083535926
481,3815.08,0.8852412284189713
482,3817.81,0.8969199290680532
483,3820.54,0.898846929717135
484,3823.2699999999995,0.8617408303662167
485,3826.01,0.8388466504315955
486,3828.74,0.8094876510806772
487,3831.4700000000003,0.7731430517297591
488,3834.2,0.732202652378841
489,3836.9399999999996,0.6934821724442197
490,3839.67,0.7054669730933014
491,3842.4,0.7544539737423832
492,3845.13,0.807091474391465
493,3847.87,0.8603462944568439
494,3850.6,0.9018489951059256
495,3853.33,0.9306413957550075
496,3856.0699999999997,0.9506315158203862
497,3858.8,0.952050916469468
498,3861.53,0.9619177171185498
499,3864.2599999999998,0.9768528177676316
500,3867.0,0.9905664378330105
501,3869.73,0.9855869384820922
502,3872.4599999999996,0.976641739131174
503,3875.19,0.9608512397802558
504,3877.93,0.9253162598456346
505,3880.6600000000003,0.8924208604947164
506,3883.39,0.8533014611437981
507,3886.1299999999997,0.806203181209177
508,3888.86,0.7796977818582588
509,3891.5899999999997,0.7607818825073406
510,3894.32,0.7782554831564223
511,3897.06,0.7992091032218012
512,3899.7900000000004,0.8310213038708829
513,3902.52,0.8773123045199648
514,3905.25,0.9138167051690466
515,3907.9900000000002,0.9375886252344253
516,3910.72,0.948059325883507
517,3913.45,0.9625918265325889
518,3916.1800000000003,0.9833658271816706
519,3918.92,0.9852093472470494
520,3921.6499999999996,0.9740407478961313
521,3924.38,0.948139648545213
522,3927.12,0.923100368610592
523,3929.85,0.8635148692596737
524,3932.58,0.8202459699087554
525,3935.3100000000004,0.7786753705578373
526,3938.05,0.778068590623216
527,3940.7799999999997,0.8441604912722979
528,3943.51,0.8954849919213796
529,3946.24,0.9317179925704614
530,3948.9800000000005,0.9472963126358402
531,3951.71,0.9586687132849221
532,3954.44,0.9669774139340038
533,3957.1800000000003,0.9172788339993826
534,3959.91,0.8678301346484645
535,3962.64,0.8229244352975462
536,3965.37,0.7716281359466279
537,3968.11,0.7105855560120068
538,3970.84,0.6752300566610886
539,3973.57,0.6916704573101704
540,3976.2999999999997,0.7326652579592522
541,3979.04,0.780773378024631
542,3981.77,0.8558728786737126
543,3984.5000000000005,0.9144191793227945
544,3987.23,0.9314901799718763
545,3989.97,0.9599804000372552
546,3992.7000000000003,0.9862079006863369
547,3995.43,0.9952606013354187
548,3998.1699999999996,1.0101560214007974
549,4000.9,1.0142277220498792
550,4003.63,1.010683822698961
551,4006.36,1.0191324233480428
552,4009.1,1.0288892434134218
553,4011.83,1.0396138440625036
554,4014.56,1.0161988447115853
555,4017.29,1.0507338453606672
556,4020.03,1.0330038654260458
557,4022.76,1.0591351660751278
558,4025.49,1.0401844667242095
559,4028.23,1.0284069867895882
560,4030.96,1.02888978743867
561,4033.6899999999996,1.0324363880877518
562,4036.42,1.0316061887368335
563,4039.16,1.0302457088022123
564,4041.8900000000003,1.0498991094512942
565,4044.62,1.046355110100376
566,4047.35,1.0476257107494578
567,4050.09,1.0496792308148366
568,4052.8199999999997,1.0217123314639185
569,4055.55,1.0404903321130001
570,4058.28,1.046313032762082
571,4061.02,1.0357610528274608
572,4063.75,1.0119958534765425
573,4066.48,1.0144920541256244
574,4069.2200000000003,1.011293374191003
575,4071.95,0.997446274840085
576,4074.68,1.0236388754891668
577,4077.4100000000003,0.9928880761382485
578,4080.15,0.9768302962036274
579,4082.8799999999997,0.9732511968527091
580,4085.61,0.995276797501791
581,4088.3399999999997,0.9683164981508727
582,4091.0800000000004,0.9491336182162514
583,4093.81,0.9057423188653333
584,4096.54,0.889802919514415
585,4099.28,0.8609038395797939
586,4102.01,0.8375761402288757
587,4104.74,0.8563100408779575
588,4107.469999999999,0.8470407415270392
589,4110.21,0.8663924615924181
590,4112.94,0.8917182622414999
591,4115.67,0.9057429628905815
592,4118.4,0.9341588635396635
593,4121.139999999999,0.9648723836050423
594,4123.87,0.964707284254124
595,4126.6,0.9695580849032058
596,4129.34,0.9788775049685846
597,4132.07,0.9652142056176665
