,lambda (Angstroms),Total Flux (erg/s/cm^2/Angstrom)
0,100.09,324.80872744545275
1,101.94999999999999,323.9051120276559
2,104.08000000000001,322.87032662972166
3,104.712855,322.5628763421238
4,106.02000000000001,319.22715498559984
5,107.99,314.19988481178314
6,109.99,309.09605722657227
7,114.12,298.5566532620121
8,118.13000000000001,288.3234789562418
9,120.22644299999999,282.9735372310766
10,120.88,281.5752443382458
11,125.13,272.4823192076866
12,126.87,268.759568689182
13,128.05,266.2349447749515
14,131.03,259.85919963541306
15,131.94,257.9122439580964
16,134.07999999999998,253.33368873012142
17,136.89,247.3216607062663
18,138.038426,244.86458975384588
19,140.07999999999998,241.7424350728383
20,143.01,237.2616224535131
21,147.02,231.12918112096384
22,151.14000000000001,224.8285153175984
23,155.01,218.91017178024896
24,158.489319,213.5892920945702
25,158.99,213.01042002517957
26,161.95000000000002,209.58815857282107
27,166.1,204.7900557949281
28,169.97000000000003,200.31568047304015
29,173.13,196.6621855317815
30,177.16,192.00282342678778
31,180.04,188.67305620055424
32,181.970086,186.4415502347524
33,182.13,186.3004986408162
34,185.94,182.93990156632913
35,191.15,178.34443946838616
36,193.81,175.99819660281995
37,197.87,172.41708830683788
38,202.01,168.7654167672426
39,204.82,166.28686716599543
40,208.929613,162.6619969418653
41,210.07000000000002,161.9057662503684
42,215.96,157.99990567487782
43,219.97,155.34073655364207
44,223.03,153.3115444111449
45,227.17999999999998,150.55953707995465
46,229.81,148.81552889935202
47,234.08,145.98400960081935
48,239.88329199999998,142.13569242557313
49,240.09,142.03006275497205
50,246.25,138.8821892475322
51,251.98000000000002,135.95408330389625
52,257.26,133.25587616196214
53,260.24,131.73308342888146
54,263.86,129.88321927606938
55,268.76,127.37924077769455
56,273.76,124.82415936363037
57,275.42287,123.97440577457229
58,278.85,122.63034805601212
59,284.03000000000003,120.59884769901096
60,289.98,118.26535071582994
61,296.05,115.88481343915852
62,300.86,113.99841455373604
63,307.87,111.24922493325668
64,316.227766,107.97146703521116
65,317.96,107.46406074021185
66,328.38,104.41182287922851
67,338.34999999999997,101.49139611379842
68,347.83000000000004,98.71449990758398
69,356.76,96.09871154897911
70,363.078055,94.24802161198771
71,365.90999999999997,93.62678870163445
72,375.29,91.56912432228619
73,384.91999999999996,89.45660154276818
74,394.79,87.29146589714722
75,404.92,85.06928298228978
76,414.35,83.00064620440756
77,416.86938299999997,82.44797306335718
78,422.06,81.57842285681636
79,429.9,80.26504246215602
80,440.93,78.41727398100801
81,451.2,76.69681107968778
82,459.59,75.29128808634681
83,470.3,73.49711740314208
84,478.630092,72.10164127959841
85,480.14,71.90710499075907
86,490.2,70.61095535298264
87,500.46,69.28906441812197
88,506.26,68.54177855477948
89,512.12,67.78684876657172
90,520.44,66.71489691128801
91,530.12,65.46771889439161
92,539.97,64.19861740129359
93,549.5408739999999,62.965543310304994
94,550.01,62.91943694247736
95,560.24,61.91401923834726
96,570.65,60.89090697995095
97,579.9200000000001,59.97977744244068
98,589.35,59.05301011396044
99,600.3,57.976781767465475
100,610.06,57.01752643309717
101,619.9699999999999,56.04363599910702
102,630.0400000000001,55.053936730046885
103,630.957344,54.96377542069975
104,640.28,54.237405045997015
105,650.6800000000001,53.42716852289901
106,658.22,52.839743621710454
107,664.3100000000001,52.36528567778893
108,675.1,51.524578510726
109,684.5,50.792155196443204
110,695.62,49.92601339920226
111,705.29,49.17251716522835
112,716.76,48.27904283664709
113,724.43596,47.6810125899076
114,726.73,47.54834794734874
115,735.14,47.06200791653535
116,745.37,46.4705513462689
117,755.74,45.87091761073683
118,764.49,45.36494249713552
119,775.12,44.75035942282444
120,784.0999999999999,44.23115770907247
121,795.01,43.60027735523013
122,804.21,43.06830787720361
123,815.4,42.42122408583005
124,824.84,41.87553796277674
125,831.763771,41.47465539501252
126,834.39,41.360954394066226
127,844.05,40.94410887543689
128,855.8000000000001,40.436243067009904
129,865.7099999999999,40.0080973029885
130,875.73,39.57521822071458
131,885.87,39.13724429689249
132,894.07,38.783005271432806
133,904.42,38.335500424401374
134,914.89,37.88589731182174
135,925.49,37.47953459239825
136,934.0500000000001,37.181514175294
137,944.87,36.839105117365484
138,954.992586,36.51681218547107
139,955.81,36.491549868189345
140,964.65,36.130007149444296
141,975.82,35.316970303269855
142,984.85,35.16036870434815
143,993.96,34.83126526693104
144,1005.47,34.57013427465102
145,1014.78,34.17872361599532
146,1024.1699999999998,33.4694347888442
147,1036.03,33.07188350939666
148,1045.61,33.08963223206889
149,1055.29,32.66926894412183
150,1065.05,32.04362088767934
151,1074.91,31.771379120617564
152,1084.85,31.160489185060356
153,1094.89,30.980821938883853
154,1096.4782,30.90880340510671
155,1105.02,30.58695074180118
156,1115.25,30.184187259487402
157,1125.57,29.743646103428926
158,1135.98,29.617022473625756
159,1143.85,29.254552925061788
160,1154.44,28.960213047769223
161,1165.1200000000001,28.614571096731968
162,1175.9,27.93658276375616
163,1184.05,27.93382338576425
164,1195.01,27.23812790529905
165,1206.06,26.680200851089158
166,1214.4199999999998,26.33463060102629
167,1225.6599999999999,26.234560091133144
168,1234.16,26.290910526356296
169,1245.58,25.993091468973766
170,1254.21,25.625290197676808
171,1258.92541,25.397015732127493
172,1265.82,25.13179997706504
173,1274.59,25.216680944015884
174,1286.38,24.996286552265644
175,1295.3,24.452278459016107
176,1304.28,24.21729250168641
177,1316.35,24.211324144228794
178,1325.47,23.929339004045403
179,1334.66,23.533576822435165
180,1343.91,23.560355176744775
181,1356.3500000000001,23.21205275745954
182,1365.75,22.82696285156877
183,1375.22,22.663907204251153
184,1384.7499999999998,22.439837092853384
185,1394.3500000000001,22.059823140028755
186,1404.01,21.85779572312399
187,1413.74,21.627672864792366
188,1423.5400000000002,21.435117465033898
189,1433.4099999999999,21.175652223848594
190,1443.35,21.000092841236434
191,1445.43977,20.966369946354305
192,1446.6699999999998,20.955689424267355
193,1453.35,20.79778645794811
194,1463.43,20.524896668651994
195,1473.57,20.353915339538645
196,1483.7800000000002,20.207401147305177
197,1494.0700000000002,20.05595566864873
198,1504.4299999999998,19.810647626872175
199,1511.37,19.56432595467822
200,1518.35,19.52006368927278
201,1525.3500000000001,19.36112267726159
202,1535.93,19.04722832282182
203,1546.57,18.969161128564814
204,1553.71,18.7954079903134
205,1564.48,18.617955593119042
206,1575.3300000000002,18.4871850095017
207,1586.2499999999998,18.35548186276425
208,1593.57,18.246942305061115
209,1604.61,18.044391478689185
210,1615.74,17.86212574259139
211,1623.1899999999998,17.67198208195091
212,1634.45,17.545062942915774
213,1645.78,17.365678840760523
214,1653.3700000000001,17.152743953879813
215,1659.58691,17.095347116149426
216,1664.83,17.074011414899548
217,1672.5200000000002,16.852646740582284
218,1676.3700000000001,16.936398207146468
219,1684.1100000000001,16.90481787005731
220,1695.78,16.691141059097305
221,1703.6100000000001,16.55441988901874
222,1715.42,16.351436382297432
223,1723.34,16.25375927922946
224,1735.28,16.175040269301228
225,1743.2900000000002,16.056874233243843
226,1755.38,15.98404833499993
227,1763.48,15.791834365953143
228,1775.7,15.668421364502302
229,1783.8999999999999,15.588504969911728
230,1796.27,15.51634638014521
231,1804.56,15.409611052565221
232,1817.0700000000002,15.167712967037398
233,1825.45,15.089466806468005
234,1833.8799999999999,14.945429783126716
235,1846.59,14.715305446511321
236,1855.1100000000001,14.608860490180618
237,1863.68,14.53428597107803
238,1876.6,14.46453839082068
239,1885.26,14.280161938728678
240,1893.96,14.14219061641916
241,1905.46072,14.047255348963015
242,1907.09,14.039060033869728
243,1915.89,13.924081257541783
244,1924.73,13.835395299048711
245,1933.6200000000001,13.782295912849229
246,1947.0199999999998,13.699112987531683
247,1956.01,13.56290724591938
248,1965.0400000000002,13.570825522141954
249,1974.1100000000001,13.517386116199404
250,1983.22,13.381442528091727
251,1996.97,13.232352808829312
252,2006.1799999999998,13.181293265308819
253,2015.44,13.059605394081911
254,2024.7499999999998,13.0256723951486
255,2034.0900000000001,12.888812659591439
256,2043.48,12.84652499632787
257,2052.91,12.723541950899177
258,2067.14,12.595527545655239
259,2071.91,12.618238122463842
260,2076.69,12.528307353731163
261,2086.27,12.479545925183242
262,2095.9,12.34373296892891
263,2105.58,12.261313884968175
264,2115.29,12.183921764383589
265,2125.06,12.109606670551315
266,2134.87,11.955653594553912
267,2144.72,11.893224936391386
268,2154.62,11.840096550522448
269,2164.56,11.724017282488383
270,2174.56,11.626728941206629
271,2184.5899999999997,11.52098566330103
272,2187.7616199999998,11.505154611293417
273,2194.68,11.490413699629858
274,2204.81,11.405869303358823
275,2214.98,11.302462656263419
276,2225.21,11.213254482931466
277,2235.48,11.207392458775146
278,2245.8,11.108640746088366
279,2256.1600000000003,11.010085282577219
280,2266.58,10.968847792829521
281,2277.04,10.926497352257458
282,2287.5499999999997,10.884480423154933
283,2292.82,10.81037085204453
284,2303.41,10.743972721293273
285,2314.04,10.640563939717646
286,2324.7200000000003,10.41502116961156
287,2335.45,10.459170410975016
288,2346.23,10.37795096380801
289,2357.06,10.364922728110548
290,2362.49,10.274378753702678
291,2373.4,10.228256216356478
292,2384.35,10.116714528185913
293,2395.36,10.094299113778796
294,2406.42,9.999194310841222
295,2417.52,9.950231657079277
296,2423.1,9.95480701708003
297,2434.28,9.861479961669353
298,2445.52,9.832998280022123
299,2456.8,9.754579147550526
300,2462.47,9.716598068196454
301,2473.83,9.623605534076122
302,2485.25,9.57364287371924
303,2496.7200000000003,9.470167424831898
304,2502.4800000000005,9.502029106122997
305,2511.88643,9.384668743419269
306,2514.0299999999997,9.361193958305675
307,2519.83,9.35414424101178
308,2525.6400000000003,9.299687739550135
309,2537.29,9.256302884123606
310,2543.14,9.216883345990972
311,2554.88,9.208236033054707
312,2566.6699999999996,9.137802599279707
313,2572.59,9.149127871972834
314,2584.47,9.0868467806881
315,2596.39,9.02454345273237
316,2602.38,8.97489063625126
317,2614.39,8.912691650785803
318,2626.46,8.88663746031385
319,2632.51,8.878078938826253
320,2644.67,8.87691929084457
321,2656.87,8.8358088061919
322,2663.0,8.739529511362315
323,2675.29,8.716163069199908
324,2687.64,8.65554382203101
325,2693.83,8.600808222194942
326,2706.27,8.562871717516312
327,2712.51,8.5031502968415
328,2725.0299999999997,8.44605781882089
329,2737.6,8.420526319961535
330,2743.92,8.305544425944737
331,2756.58,8.259684469575651
332,2762.94,8.251879438887864
333,2775.69,8.222873925009043
334,2782.0899999999997,8.164074057650264
335,2794.93,7.998227586261711
336,2807.83,7.97422920986667
337,2814.3,8.044365653333653
338,2827.29,8.016758219428878
339,2833.81,7.961273942057121
340,2846.8900000000003,7.888958450642612
341,2853.4500000000003,7.839948636599861
342,2866.62,7.836099387675625
343,2873.23,7.803966752794134
344,2884.0315,7.752584028344922
345,2886.49,7.744108852406742
346,2893.15,7.715254321974382
347,2913.2000000000003,7.704037620747836
348,2926.65,7.636575127156962
349,2946.94,7.561876834743663
350,2967.36,7.508469209604208
351,2987.93,7.443741877473034
352,3008.6400000000003,7.38683782548292
353,3029.5,7.318426266501087
354,3050.5,7.249581587660316
355,3071.64,7.183061988960605
356,3092.93,7.120209083269176
357,3107.21,7.06975615765745
358,3128.75,6.993799073646487
359,3150.44,6.926899582643804
360,3172.27,6.8555046717821835
361,3186.9199999999996,6.779148122257552
362,3209.0099999999998,6.729180845943615
363,3231.25,6.6320127626379595
364,3253.65,6.590036185207802
365,3268.67,6.558933411770259
366,3291.3199999999997,6.482220156020572
367,3306.52,6.4343852141929645
368,3311.31121,6.417195927399612
369,3321.7799999999997,6.38925215167157
370,3329.44,6.391228046129694
371,3337.1099999999997,6.361824637708521
372,3344.8,6.329976523528752
373,3352.51,6.307543303590387
374,3360.24,6.30221127789343
375,3367.9900000000002,6.282254746437876
376,3375.75,6.222686412103026
377,3383.53,6.212748372009579
378,3391.3399999999997,6.2381341232782415
379,3399.15,6.232945374546903
380,3406.99,6.184611617177671
381,3414.84,6.178943256929143
382,3422.71,6.18445669092202
383,3430.6,6.155855519156303
384,3438.51,6.143652841631988
385,3446.44,6.064803258349079
386,3454.38,6.089297872186874
387,3462.3500000000004,6.034220777386776
388,3470.33,6.041833979707381
389,3478.33,5.988677976269391
390,3486.35,5.994462267072804
391,3494.39,5.972688452117623
392,3502.44,5.975340934283144
393,3510.51,5.944334810690071
394,3518.6099999999997,5.9211351784591075
395,3526.72,5.899220943348844
396,3534.85,5.906903402479986
397,3543.0,5.911616355852533
398,3544.8,5.922043737578984
399,3547.4,5.544261488961636
400,3550.0,6.0461668403442905
401,3552.6000000000004,5.836791991726942
402,3555.1899999999996,5.891506045988895
403,3557.79,5.764633597371547
404,3560.39,6.0474105487542005
405,3562.99,5.724453800136853
406,3565.59,5.6080294515195055
407,3568.19,5.825789902902159
408,3570.78,5.42362405716411
409,3573.38,5.734190008546762
410,3575.9800000000005,5.311577189929413
411,3578.58,5.533150111312068
412,3581.18,5.617289662694722
413,3583.7799999999997,6.133245214077376
414,3586.37,5.8397936683393254
415,3588.9700000000003,5.742768619721978
416,3591.57,5.72505407110463
417,3594.17,5.926440822487284
418,3596.7700000000004,5.6850133738699355
419,3599.37,5.96895812525259
420,3601.97,5.790613176635244
421,3604.56,5.906051830897194
422,3607.16,5.959029182279846
423,3609.76,5.348031933662499
424,3612.36,5.4495332850451526
425,3614.96,5.621253436427805
426,3617.5600000000004,5.452132087810458
427,3620.1499999999996,5.70049534207241
428,3622.75,6.071166093455062
429,3625.35,5.422760244837715
430,3627.95,5.795517396220369
431,3630.55,5.710512247603021
432,3633.15,5.696644398985674
433,3635.7400000000002,5.542008753247623
434,3638.3399999999997,5.768339404630279
435,3640.9399999999996,5.425836756012933
436,3643.54,5.486291807395583
437,3646.14,5.734560558778237
438,3648.74,5.2863931101608905
439,3651.33,5.511356464422841
440,3653.9300000000003,5.704521815805492
441,3656.53,5.4096246671881465
442,3659.13,5.599527518570799
443,3661.7300000000005,5.5709201699534505
444,3664.33,5.582698221336106
445,3666.92,5.451754075598055
446,3669.52,5.631633826980709
447,3672.12,5.5763924783633625
448,3674.7200000000003,5.676912929746015
449,3677.32,5.794064481128667
450,3679.92,5.7122382325113215
451,3682.5200000000004,5.628985983893973
452,3685.1099999999997,5.887846838155925
453,3687.71,5.611215489538578
454,3690.31,5.562276140921231
455,3692.91,5.275017092303884
456,3695.51,5.396787443686536
457,3698.11,5.56503629506919
458,3700.7000000000003,5.428666849331139
459,3703.2999999999997,5.750800100713794
460,3705.8999999999996,5.837652152096447
461,3708.5,5.5052077034791
462,3711.1,5.629405454861753
463,3713.7,5.846059606244405
464,3716.29,5.7715635605063556
465,3718.8900000000003,5.624282711889008
466,3721.4900000000002,5.836061263271661
467,3724.0899999999997,6.274042314654316
468,3726.6899999999996,6.681626566036968
469,3729.29,6.732376817419621
470,3731.88,6.220084371681571
471,3734.48,5.987455623064224
472,3737.08,5.672678174446878
473,3739.6800000000003,5.7593910258295296
474,3742.28,5.543421777212183
475,3744.8799999999997,5.5248655285948365
476,3747.47,5.393281882856787
477,3750.0699999999997,5.483466134239441
478,3752.67,5.543239485622093
479,3755.27,5.6641054370047454
480,3757.87,5.7322461883874
481,3760.4700000000003,5.7108657397700515
482,3763.07,5.483315391152704
483,3765.6600000000003,5.356913945414655
484,3768.2599999999998,5.44935169679731
485,3770.8599999999997,5.705640648179962
486,3773.46,5.219820699562614
487,3776.06,5.6169712509452685
488,3778.66,5.573193302327921
489,3781.25,5.62348415658987
490,3783.8500000000004,5.569967807972524
491,3786.4500000000003,5.716431259355177
492,3789.0499999999997,5.735324810737831
493,3791.6499999999996,5.759156962120485
494,3794.25,5.663001613503137
495,3796.84,5.327953967765087
496,3799.44,5.533528419147739
497,3801.8939600000003,5.300796600139619
498,3802.04,5.2870407364953405
499,3804.6400000000003,5.362727497716836
500,3807.2400000000002,5.604031658938334
501,3809.8399999999997,5.784382020159832
502,3812.43,5.539057215761246
503,3815.0299999999997,5.466494176982743
504,3817.63,5.63195953820424
505,3820.23,5.416802399425737
506,3822.83,5.334411060647234
507,3825.4300000000003,5.644299521868731
508,3828.02,5.604379917470145
509,3830.6200000000003,5.438191378691641
510,3833.22,5.296800839913139
511,3835.8199999999997,5.458962101134636
512,3838.42,5.203538062356134
513,3841.02,5.38193412357763
514,3843.61,5.712829319179043
515,3846.21,5.849566380400541
516,3848.81,5.648807641622039
517,3851.4100000000003,5.559898502843534
518,3854.0099999999998,5.889311564065033
519,3856.6099999999997,5.663651625286529
520,3859.21,5.470753386508027
521,3861.8,5.46129988210944
522,3864.4,5.563397643330938
523,3867.0,5.609222604552435
524,3869.6000000000004,5.521426465773931
525,3872.2000000000003,5.571216526995428
526,3874.7999999999997,5.825993888216927
527,3877.39,5.60640618381834
528,3879.99,5.450233945039837
529,3882.59,5.431787306261334
530,3885.19,5.211204867482831
531,3887.79,5.062559628704328
532,3890.3900000000003,5.505895189925824
533,3892.9799999999996,5.355447185527241
534,3895.58,5.223196346748736
535,3898.18,5.480763907970234
536,3900.7799999999997,5.589748169191731
537,3903.38,5.506472930413228
538,3905.98,5.4819745916347244
539,3908.57,5.475790587236139
540,3911.17,5.363301248457636
541,3913.7699999999995,5.557980909679134
542,3916.3700000000003,5.528265770900629
543,3918.97,5.559274432122127
544,3921.5699999999997,5.7555534933436245
545,3924.17,5.43912055456512
546,3926.76,5.381115650166535
547,3929.36,5.475283611388033
548,3931.96,5.14963347260953
549,3934.56,5.253644033831027
550,3937.1600000000003,5.307746595052523
551,3939.7599999999998,5.494357056274021
552,3942.35,5.361159851875435
553,3944.95,5.312872813096932
554,3947.55,5.464078574318428
555,3950.15,5.502182735539924
556,3952.75,5.159922396761422
557,3955.3500000000004,5.4249455579829196
558,3957.9399999999996,5.406936853584334
559,3960.54,5.162919714805831
560,3963.14,5.110313176027328
561,3965.74,5.101702237248825
562,3968.34,5.0988089984703215
563,3970.94,5.116484159691819
564,3973.53,5.150107255293233
565,3976.13,5.126722116514729
566,3978.7299999999996,5.146588377736228
567,3981.33,5.162475638957725
568,3983.93,5.381361500179222
569,3986.5299999999997,5.780819361400718
570,3989.12,5.384693157002132
571,3991.7200000000003,5.490895318223629
572,3994.32,5.410680479445126
573,3996.92,5.785933440666623
574,3999.5199999999995,5.520693501888121
575,4002.1200000000003,5.346923763109618
576,4004.72,5.410625324331115
577,4007.31,5.3095640199325285
578,4009.91,5.5756805811540255
579,4012.51,5.478980642375522
580,4015.11,5.56090570359702
581,4017.71,5.383171064818517
582,4020.3100000000004,5.340587726040013
583,4022.8999999999996,5.581057721641429
584,4025.5,5.378350882862925
585,4028.1,5.428348844084422
586,4030.7,5.413519905305919
587,4033.3,5.430407966527416
588,4035.9,5.314163227748914
589,4038.4900000000002,5.297823723350327
590,4041.09,5.176778584571824
591,4043.6899999999996,5.254391945793322
592,4046.29,5.147606407014819
593,4048.89,5.0675315682363165
594,4051.49,5.245725529457813
595,4054.08,5.479239125059227
596,4056.68,5.529864186280724
597,4059.28,5.372022247502221
598,4061.88,5.350584308723716
599,4064.4799999999996,5.407608369945215
600,4067.08,5.306596231166711
601,4069.67,5.452536326768126
602,4072.27,5.371765387989623
603,4074.87,5.116194749211121
604,4077.4700000000003,5.157776810432617
605,4080.07,5.335970571654114
606,4082.67,5.355433632875611
607,4085.26,5.242964928477026
