,lambda (Angstroms),Total Flux (erg/s/cm^2/Angstrom)
0,101.99,40.14246434121248
1,103.89,40.02808064518333
2,104.712855,39.978544789710796
3,106.07000000000001,39.5493177621609
4,108.03999999999999,38.92627336978855
5,110.05,38.290617586367
6,113.91,37.069852494720664
7,117.92,35.80164867843988
8,120.22644299999999,35.072993503723104
9,120.94000000000001,34.884037506980384
10,124.89999999999999,33.83426522147543
11,126.92999999999999,33.296086953012015
12,128.10999999999999,32.98327815363428
13,131.09,32.19323691366338
14,132.0,31.95229757652461
15,134.14000000000001,31.384941911297176
16,136.95000000000002,30.640434983143404
17,138.038426,30.351894483243253
18,140.14000000000001,29.95371385939681
19,143.07999999999998,29.402012523971237
20,147.09,28.653659797139063
21,150.86,27.940126907790614
22,155.09,27.139773561015044
23,158.489319,26.496795553352623
24,159.06,26.415242479713847
25,162.02,25.992136360702094
26,166.18,25.397870945334223
27,170.04999999999998,24.844622728585747
28,172.81,24.450354858966673
29,176.83999999999997,23.87429791470405
30,180.12,23.405325810663992
31,181.79000000000002,23.166783887235063
32,181.970086,23.141038274540254
33,186.03,22.698555750415956
34,190.8,22.178824520393146
35,193.9,21.841301462789225
36,197.96,21.398792446249896
37,202.1,20.94777626396595
38,204.91,20.641633304686263
39,208.929613,20.20213206498257
40,210.17000000000002,20.100163160224472
41,216.06,19.619997153804984
42,220.07999999999998,19.29120098322666
43,223.14000000000001,19.040143694577484
44,226.76000000000002,18.744411588136305
45,229.92,18.51014782345285
46,234.19,18.208981032788806
47,239.88329199999998,17.772003771393624
48,240.2,17.75366651040358
49,245.79,17.38810264578296
50,252.1,16.99675189287489
51,256.79,16.67112611361358
52,259.76,16.50533746192785
53,263.98,16.24574548613196
54,268.89,15.933348488227269
55,273.89,15.61454439178664
56,275.42287,15.516520398447206
57,278.98,15.34143960886098
58,284.17,15.088829832863874
59,290.12,14.791297983695708
60,296.19,14.49561177034264
61,301.0,14.25645393093106
62,308.02,13.915840376114168
63,316.227766,13.51688115554873
64,318.11,13.44854638347927
65,327.77,13.094781074090207
66,337.72999999999996,12.728411920310178
67,347.98999999999995,12.351327022139184
68,356.92,12.025723427434798
69,363.078055,11.803284798657502
70,366.08000000000004,11.722216627268882
71,374.6,11.486958967043282
72,385.1,11.192242260427225
73,394.97999999999996,10.927746097630404
74,405.10999999999996,10.653120720390342
75,413.59,10.419433698475661
76,416.86938299999997,10.32836767721549
77,422.25,10.213525967237656
78,430.1,10.04715170128208
79,441.14,9.81769340903373
80,451.41,9.601421371407769
81,459.8,9.422279844418304
82,470.51000000000005,9.197315375579548
83,478.630092,9.028716373305434
84,480.37000000000006,9.000931976198679
85,490.43,8.834112274510497
86,499.53999999999996,8.69065561609307
87,506.49,8.575118143743877
88,512.36,8.491169699428804
89,519.48,8.374515952389059
90,530.36,8.196101292193491
91,540.22,8.030905430141258
92,549.5408739999999,7.87928025317352
93,550.27,7.870180522696033
94,560.5,7.7503867424581525
95,569.6,7.641399558551534
96,580.19,7.5092545187744895
97,589.62,7.393300481956974
98,600.58,7.252959007098012
99,610.34,7.125497907369595
100,620.26,7.015544688957104
101,630.34,6.888982771860542
102,630.957344,6.881559900203916
103,640.58,6.790152865176214
104,649.4900000000001,6.701231848672708
105,658.53,6.610119065564773
106,664.6199999999999,6.554031961557327
107,675.4200000000001,6.449739045189437
108,684.81,6.352747455069581
109,694.3399999999999,6.263869570144956
110,705.62,6.147602290160717
111,715.4399999999999,6.058367027426215
112,724.43596,5.970725953630287
113,725.3900000000001,5.963805695179107
114,735.48,5.890500625609359
115,745.71,5.814857440099101
116,754.35,5.751470509198941
117,764.8399999999999,5.669900125513446
118,775.48,5.597839614034545
119,784.46,5.529722950136
120,795.38,5.452625746776075
121,804.59,5.386486220260974
122,815.78,5.3055666368729195
123,825.23,5.237243275888369
124,831.763771,5.185549154207493
125,834.78,5.1671450706521025
126,844.45,5.120056870917217
127,854.23,5.066347167203964
128,864.12,5.013463719512339
129,874.12,4.9592423878423455
130,884.25,4.9042269314706415
131,894.48,4.848688361482238
132,904.8399999999999,4.7918612567921235
133,915.32,4.73531142776197
134,925.92,4.713203004391776
135,934.49,4.702135994440591
136,945.3100000000001,4.673953843113658
137,954.0500000000001,4.644858007014083
138,954.992586,4.640649620725132
139,965.1,4.596692618804294
140,974.0300000000001,4.4616658157789635
141,985.31,4.459265571957493
142,994.4300000000001,4.406138912272049
143,1005.94,4.37162165986202
144,1015.25,4.324655463516463
145,1024.64,4.2253765833140156
146,1034.1200000000001,4.205636996272567
147,1046.1,4.185480363703312
148,1055.78,4.127699617019639
149,1065.55,4.050930563496965
150,1075.41,4.011140803135289
151,1085.36,3.935406835934613
152,1095.4,3.9074754618949346
153,1096.4782,3.901001412774353
154,1105.54,3.8552000057523648
155,1115.77,3.8066849181139277
156,1126.09,3.7456122379156214
157,1133.89,3.732802649393645
158,1144.39,3.6793805840756004
159,1154.98,3.6335873261976883
160,1165.66,3.585075075759907
161,1173.74,3.509768988162783
162,1184.6,3.4960416526052636
163,1195.56,3.429257203092334
164,1203.8500000000001,3.3770253461888498
165,1214.99,3.307950951556182
166,1226.23,3.2934034829681043
167,1234.73,3.2765558967582598
168,1246.16,3.2305668416549027
169,1254.79,3.1892459773030253
170,1258.92541,3.1691981140553205
171,1266.41,3.14213751060503
172,1275.1799999999998,3.128866509854645
173,1284.02,3.1030923234654297
174,1295.9,3.0474144607613716
175,1304.8899999999999,3.019355505146096
176,1313.93,3.0068568597887992
177,1326.0900000000001,2.963601354529427
178,1335.28,2.9260950399460692
179,1344.54,2.9077402397238834
180,1353.8600000000001,2.8754195518112713
181,1366.38,2.827428620409352
182,1375.8500000000001,2.7984534632706795
183,1385.3899999999999,2.7679389204931795
184,1395.0000000000002,2.7152781920768487
185,1404.66,2.6836552839184993
186,1414.4,2.670830672172917
187,1424.2099999999998,2.638402784788506
188,1434.0800000000002,2.6103651097136695
189,1440.7,2.5915786678701624
190,1445.43977,2.5770754451562805
191,1447.3500000000001,2.572995426563738
192,1454.03,2.5550980634206213
193,1464.1100000000001,2.5275655323304096
194,1474.26,2.505888077135405
195,1484.47,2.4845288355648627
196,1494.76,2.461659072160272
197,1505.13,2.434722286921631
198,1512.0700000000002,2.412573302817854
199,1515.56,2.4079005553074535
200,1526.06,2.3840719095884833
201,1536.6399999999999,2.3505333420354635
202,1543.74,2.331489634263588
203,1554.44,2.307335543959494
204,1565.21,2.2896915695506066
205,1576.06,2.2702520333076706
206,1583.33,2.2563823041384405
207,1594.31,2.233113477415174
208,1605.3600000000001,2.207307566587114
209,1616.4899999999998,2.1822774339250057
210,1623.95,2.164058437899908
211,1635.21,2.1430109647574693
212,1646.54,2.118635547510237
213,1654.14,2.0995794032755533
214,1659.58691,2.089287290906844
215,1665.61,2.0817607085842456
216,1673.3,2.0637213093810534
217,1677.15,2.066133890469182
218,1684.89,2.0547394281632387
219,1696.57,2.0333244693604713
220,1704.41,2.019185620849024
221,1716.22,1.9978889199791021
222,1724.14,1.9849284225032529
223,1736.0900000000001,1.9702916109456265
224,1744.1100000000001,1.9566533872642737
225,1756.2,1.9407095450189433
226,1764.3,1.9246930023731885
227,1776.53,1.9057691594401531
228,1784.73,1.894450520588895
229,1792.97,1.8845451972554357
230,1805.4,1.865300381911394
231,1813.73,1.8478213009929818
232,1826.3,1.8299269449612363
233,1834.73,1.815504287837321
234,1843.2,1.797960166231204
235,1855.98,1.7791173791679018
236,1864.5400000000002,1.767717609976832
237,1873.15,1.7574413376830107
238,1886.13,1.7334690582087022
239,1894.8400000000001,1.7186809997093777
240,1903.59,1.708318906727853
241,1905.46072,1.7051902302818833
242,1916.78,1.6907833225498115
243,1925.63,1.678720294802065
244,1934.5200000000002,1.6698846393356852
245,1943.4499999999998,1.6634575461506718
246,1956.92,1.6446786469007122
247,1965.9499999999998,1.6394926444191138
248,1975.0300000000002,1.6300982622892228
249,1984.14,1.6184397143703566
250,1993.3000000000002,1.6071716168031978
251,2007.1200000000001,1.5929744800151922
252,2016.38,1.5818715831514487
253,2025.69,1.5716660066394132
254,2035.04,1.5604858824087438
255,2044.43,1.5522157504594403
256,2053.87,1.5367462988618446
257,2063.35,1.5273655295456148
258,2072.87,1.5221481525107512
259,2077.65,1.5271937201340022
260,2087.24,1.5255299995915297
261,2096.88,1.5099755494007643
262,2106.56,1.4985092714913653
263,2116.28,1.492416185863332
264,2126.0499999999997,1.477483640587007
265,2135.86,1.4633840375920477
266,2145.7200000000003,1.4610589349487957
267,2155.62,1.450938894586911
268,2165.57,1.4334848445767328
269,2175.57,1.4226888549182628
270,2185.61,1.4208823575411589
271,2187.7616199999998,1.4184835577668493
272,2195.7,1.4124478835092222
273,2205.83,1.4032356538597512
274,2216.0099999999998,1.3837653328201052
275,2226.24,1.381815710390284
276,2236.52,1.3891252965702876
277,2246.84,1.377824577638151
278,2257.21,1.3563087873158395
279,2262.42,1.3493457364595964
280,2272.8599999999997,1.34587503219104
281,2283.35,1.3539754165323081
282,2293.89,1.3337320194834015
283,2304.48,1.3370726010443197
284,2315.12,1.3186915612150627
285,2325.8,1.2972635762736657
286,2336.54,1.287835013664059
287,2347.32,1.2688169459423115
288,2352.73,1.2862809195253682
289,2363.59,1.2589357515793407
290,2374.5,1.2583920322431383
291,2385.46,1.2363063415167612
292,2396.47,1.2339260694002085
293,2407.54,1.225225709615446
294,2413.09,1.2256678353060122
295,2424.22,1.2410350678530397
296,2435.41,1.233107232731857
297,2446.65,1.236810976220499
298,2452.3,1.237467079130715
299,2463.61,1.2162119986731121
300,2474.99,1.2000846542692643
301,2486.41,1.169075604753276
302,2492.14,1.1705552374392119
303,2503.64,1.1884988676989436
304,2511.88643,1.1556239770013317
305,2515.2000000000003,1.1430406678868101
306,2526.81,1.1336245847727409
307,2532.64,1.1484823488248488
308,2544.3300000000004,1.144142129660036
309,2556.0699999999997,1.1833588817135097
310,2567.87,1.1500325892289254
311,2573.7900000000004,1.1682465414739471
312,2585.67,1.1504447629386203
313,2597.6,1.135191925621579
314,2603.59,1.122015907572201
315,2615.6099999999997,1.109197958448074
316,2627.68,1.1231054105422325
317,2633.74,1.1832553321984547
318,2645.9,1.2260053124855272
319,2652.0,1.3085053011163776
320,2664.24,1.1914798753527074
321,2676.5299999999997,1.209058620807323
322,2682.7000000000003,1.240374129143773
323,2695.09,1.16628821703496
324,2707.53,1.2025470761444323
325,2713.77,1.1389842041864828
326,2726.29,1.0970085572452124
327,2732.58,1.1271534565055485
328,2745.19,1.057709147757192
329,2757.8599999999997,1.0809404444707786
330,2764.22,1.1139685634367145
331,2776.98,1.116288698343215
332,2783.3799999999997,1.0484680142837797
333,2796.23,0.9922424073831944
334,2802.67,0.9974419202983873
335,2815.61,1.0749800015907163
336,2822.1000000000004,1.137668185724195
337,2835.13,1.1170996252094383
338,2848.21,1.0509516359129671
339,2854.78,0.9898417239957028
340,2867.96,1.097555067135803
341,2874.57,1.1754216421931671
342,2884.0315,1.150486719057697
343,2887.8399999999997,1.1410679763559362
344,2894.5,1.204720703751755
345,2907.8500000000004,1.31893655100914
346,2928.0099999999998,1.2509221879910792
347,2948.31,1.2104520898131703
348,2968.7400000000002,1.2187645589868314
349,2989.3199999999997,1.2157479904892274
350,3010.04,1.2067887868317757
351,3030.91,1.2284624455030588
352,3051.92,1.236998069014494
353,3073.07,1.2748634573660818
354,3087.26,1.255757493664381
355,3108.66,1.3313631192305264
356,3130.2000000000003,1.2785579096368238
357,3151.9,1.2734126598604387
358,3166.4500000000003,1.3210283057477012
359,3188.4,1.2328469931858737
360,3210.5,1.275816142952781
361,3232.75,1.181655555048423
362,3247.68,1.3679750055018132
363,3270.19,1.4710297523005949
364,3292.86,1.447119658916694
365,3308.05,1.388637844073224
366,3311.31121,1.3797247809621083
367,3323.32,1.3482710640152888
368,3330.99,1.3727744102244763
369,3338.66,1.3020695564336635
370,3346.3599999999997,1.404139609994386
371,3354.07,1.3785028993389534
372,3361.81,1.3176150960350563
373,3369.56,1.3282242285150043
374,3377.3199999999997,1.3063388967787974
375,3385.11,1.3097248723941257
376,3392.9100000000003,1.3800855837932993
377,3400.73,1.4556548667601628
378,3408.57,1.3726368212947166
379,3416.43,1.2940740473969607
380,3424.31,1.4542982450668949
381,3432.2000000000003,1.4954232785206742
382,3440.11,1.3763970835421437
383,3448.04,1.2336952601313034
384,3455.99,1.3470456082881532
385,3463.96,1.2330589280126933
386,3471.94,1.3851898835210785
387,3479.95,1.203741046380999
388,3487.9700000000003,1.3024317450247644
389,3496.0099999999998,1.2568517152362202
390,3504.07,1.455222757015366
391,3512.15,1.3788611703622022
392,3520.2400000000002,1.454303919492883
393,3528.3599999999997,1.1735340759751
394,3536.49,1.3954259682411614
395,3538.4700000000003,1.5957981534424899
396,3541.17,1.4863893150806655
397,3543.87,1.434270776718841
398,3546.58,1.5975909741408614
399,3549.28,1.6045389357790367
400,3551.98,1.4106726974172121
401,3554.6899999999996,1.430416394839233
402,3557.3900000000003,1.4547934564774079
403,3560.09,1.4124117181155835
404,3562.7999999999997,1.2923444155376043
405,3565.5,1.3820811771757793
406,3568.2000000000003,1.3796148388139549
407,3570.91,1.2722967362359754
408,3573.6099999999997,1.352834697874151
409,3576.31,1.4187946595123262
410,3579.02,1.2727985569343467
411,3581.72,1.2659209185725224
412,3584.4199999999996,1.1977175802106976
413,3587.13,1.1713496776327181
414,3589.83,1.2394178392708937
415,3592.5299999999997,1.3737504009090689
416,3595.2400000000002,1.4884407983310894
417,3597.94,1.447673159969265
418,3600.64,1.4000196216074405
419,3603.3500000000004,1.4284241190294609
420,3606.05,1.3426305806676364
421,3608.75,1.3782505423058118
422,3611.46,1.390624539727832
423,3614.1600000000003,1.3435627013660076
424,3616.86,1.3395899630041832
425,3619.5699999999997,1.4250165604262037
426,3622.2700000000004,1.4491247220643788
427,3624.9700000000003,1.4820012837025545
428,3627.68,1.5392930811245749
429,3630.38,1.4692076427627505
430,3633.0800000000004,1.4575425044009258
431,3635.79,1.4260202018229464
432,3638.49,1.4841262634611219
433,3641.19,1.4665438250992973
434,3643.9,1.4299110225213176
435,3646.6,1.3797828841594932
436,3649.2999999999997,1.4490245457976685
437,3652.0099999999998,1.4510159432196892
438,3654.71,1.5710931048578645
439,3657.41,1.53618906649604
440,3660.12,1.5447429639180605
441,3662.82,1.6861763255562359
442,3665.52,1.5672458871944115
443,3668.23,1.5462668846164318
444,3670.93,1.5256722462546075
445,3673.63,1.4968468078927826
446,3676.34,1.4594607053148032
447,3679.04,1.4963718669529786
448,3681.7400000000002,1.497133428591154
449,3684.4500000000003,1.4558742260131745
450,3687.15,1.4781532876513501
451,3689.85,1.5333009492895253
452,3692.56,1.636909546711546
453,3695.26,1.6454712083497212
454,3697.96,1.6603268699878968
455,3700.6699999999996,1.6142795674099175
456,3703.3700000000003,1.5107878290480927
457,3706.07,1.5053092906862684
458,3708.7799999999997,1.4619519881082887
459,3711.4799999999996,1.4644886497464642
460,3714.1800000000003,1.5190445113846396
461,3716.89,1.54228440880666
462,3719.5899999999997,1.4489058704448357
463,3722.29,1.310447332083011
464,3725.0,1.3915705295050316
465,3727.7,1.4290195911432069
466,3730.3999999999996,1.3489280527813823
467,3733.11,1.2815789502034027
468,3735.81,1.2948204118415783
469,3738.5099999999998,1.239097373479754
470,3741.2200000000003,1.3394792709017742
471,3743.92,1.2983347325399497
472,3746.62,1.314158194178125
473,3749.3300000000004,1.2969455916001456
474,3752.03,1.368607753238321
475,3754.73,1.4081010148764963
476,3757.44,1.3740504122985169
477,3760.1400000000003,1.3505504739366923
478,3762.84,1.4187698355748677
479,3765.5499999999997,1.4341561329968884
480,3768.25,1.4353478946350637
481,3770.9500000000003,1.483179456273239
482,3773.66,1.5382656536952597
483,3776.36,1.5751769153334352
484,3779.0600000000004,1.5710971769716104
485,3781.77,1.562598174393631
486,3784.47,1.5778844360318065
487,3787.18,1.4960104334538271
488,3789.88,1.4270006950920022
489,3792.58,1.4169493567301776
490,3795.29,1.3515367541521983
491,3797.99,1.3181386157903736
492,3800.69,1.3810323774285491
493,3801.8939600000003,1.4084927491142438
494,3803.4,1.4429638148346942
495,3806.1,1.5101085368305869
496,3808.8,1.4784335588264796
497,3811.51,1.369072918311246
498,3814.21,1.3625195403071386
499,3816.91,1.3965807623030313
500,3819.6200000000003,1.2988937217877976
501,3822.32,1.2332741437836903
502,3825.02,1.239254565779583
503,3827.7299999999996,1.1421060252643493
504,3830.4300000000003,1.095254947260242
505,3833.13,1.1457284692561345
506,3835.8399999999997,1.167626828740901
507,3838.5399999999995,1.1502603507367937
508,3841.2400000000002,1.121650772732686
509,3843.95,1.2551184322174527
510,3846.6499999999996,1.2350086542133454
511,3849.3500000000004,1.2716516762092378
512,3852.06,1.2736458356940044
513,3854.7599999999998,1.283875957689897
514,3857.4599999999996,1.2271322796857898
515,3860.17,1.2677507391705558
516,3862.87,1.2857810611664486
517,3865.5699999999997,1.2545895831623413
518,3868.28,1.3396958426471075
519,3870.98,1.3161971646430004
520,3873.68,1.309697486638893
521,3876.3900000000003,1.3080333461236593
522,3879.09,1.284749768119552
523,3881.79,1.2686745901154448
524,3884.5,1.287291049600211
525,3887.2000000000003,1.3343166715961035
526,3889.9,1.4276054935919964
527,3892.61,1.4732798530767628
528,3895.31,1.5127207750726552
529,3898.01,1.504715097068548
530,3900.72,1.5088600565533143
531,3903.42,1.5245777785492072
532,3906.1200000000003,1.5412636005450997
533,3908.83,1.596943960029866
534,3911.5299999999997,1.616319082025759
535,3914.23,1.6347272040216514
536,3916.94,1.6023993635064175
537,3919.64,1.5369950855023105
538,3922.34,1.446307307498203
539,3925.0499999999997,1.3025723669829694
540,3927.75,1.2491639889788622
541,3930.45,1.1160321109747549
542,3933.16,0.9873229704595212
543,3935.86,1.0317280924554137
544,3938.56,1.1133646144513065
545,3941.27,1.2065404739360726
546,3943.97,1.3637904959319656
547,3946.67,1.470097717927858
548,3949.38,1.5530513774126242
549,3952.08,1.566402099408517
550,3954.7799999999997,1.5601182214044096
551,3957.4900000000002,1.485938380889176
552,3960.19,1.4401153028850686
553,3962.89,1.3109107248809615
554,3965.6000000000004,1.2009587843657277
555,3968.3,1.1439460063616202
556,3971.0,1.185376828357513
557,3973.7099999999996,1.2873208878422795
558,3976.4100000000003,1.439084109838172
559,3979.11,1.6260824318340648
560,3981.8199999999997,1.715814591318831
561,3984.5199999999995,1.797591713314724
562,3987.2200000000003,1.8675348353106163
563,3989.93,1.8309019947953824
564,3992.6299999999997,1.8918081167912755
565,3995.3300000000004,1.895960238787168
566,3998.04,1.8757353982719345
567,4000.74,1.927011520267827
568,4003.4399999999996,1.9915756422637199
569,4006.15,1.9746858017484858
570,4008.85,2.0451659237443787
571,4011.5499999999997,2.1345290457402712
572,4014.26,2.0914952052250375
573,4016.96,2.0722473272209303
574,4019.66,2.070751449216823
575,4022.37,2.078713608701589
576,4025.07,2.054355730697482
577,4027.77,2.0217668526933745
578,4030.48,1.9685660121781412
579,4033.1800000000003,1.9840691341740335
580,4035.89,2.0133342936588
581,4038.59,2.025341415654693
582,4041.29,1.9724175376505855
583,4044.0,1.9292766971353517
584,4046.7,1.9413908191312443
585,4049.4,1.945166941127137
586,4052.1099999999997,2.0076771006119034
587,4054.81,1.9955302226077962
588,4057.5099999999998,1.9392713446036889
589,4060.22,1.918616504088455
590,4062.92,1.9064146260843478
591,4065.62,1.8958277480802406
592,4068.33,1.9194989075650066
593,4071.0299999999997,1.9355940295608995
594,4073.73,1.9149471515567922
595,4076.44,1.9522823110415586
596,4079.14,1.981825433037451
597,4081.8399999999997,2.0269695550333435
598,4084.55,2.08124871451811
