,lambda (Angstroms),Total Flux (erg/s/cm^2/Angstrom)
0,102.05000000000001,0.2372437528009515
1,103.95,0.23656756676924443
2,104.712855,0.23629607635935534
3,105.88,0.23411418623770017
4,108.10000000000001,0.22996406262373859
5,110.11,0.22620651947331707
6,113.98,0.21897184548610527
7,117.97999999999999,0.21149414643670447
8,120.22644299999999,0.2072946000419269
9,121.01,0.20606652178259982
10,124.97,0.1998599547803496
11,127.0,0.19667830594917615
12,127.88000000000001,0.19529906971770494
13,130.86,0.1906284731446626
14,132.07,0.18873202569901232
15,133.91,0.1858481688328226
16,137.03,0.18095815480716487
17,138.038426,0.1793776363215516
18,139.9,0.17729213746816364
19,143.16,0.17364003292485441
20,147.17,0.1691477270255946
21,150.94,0.16492426767237173
22,155.17,0.1601854829917947
23,158.489319,0.15646692523942396
24,159.14999999999998,0.15590736378894257
25,162.10999999999999,0.15340040951428588
26,165.89,0.15019897195416482
27,170.14000000000001,0.14659947045192395
28,172.91,0.14425345962431146
29,176.93,0.14084878006293985
30,179.81,0.13840961853823333
31,181.89000000000001,0.13664800471822863
32,181.970086,0.1365801774876873
33,186.13000000000002,0.13389237735209691
34,190.9,0.1308104256810105
35,194.0,0.12880748604809691
36,198.07000000000002,0.12617783164160384
37,202.21,0.12350296285015148
38,205.03,0.12168097585207524
39,208.929613,0.11916143024276216
40,209.79999999999998,0.11873865189230395
41,216.17999999999998,0.11563977090481818
42,220.20000000000002,0.11368719258819543
43,222.75,0.11244864961239
44,226.89000000000001,0.11043782291143527
45,230.04,0.10890984964196972
46,233.78,0.10709682993178839
47,239.78,0.10418564845118732
48,239.88329199999998,0.10413548098411542
49,245.93,0.10187249451377961
50,252.24,0.09951199926460713
51,256.93,0.09775420652054707
52,259.9,0.0966454527611743
53,264.13,0.09506351319115851
54,269.04,0.0932263758060338
55,274.04,0.09135555117729173
56,275.42287,0.09083807305855573
57,279.13,0.08977356069178535
58,284.32,0.08828354744040312
59,290.28000000000003,0.08657150130209136
60,295.67,0.08502430654358459
61,301.17,0.08344369924265932
62,308.18,0.08143158188944363
63,316.227766,0.07912145201000761
64,318.28000000000003,0.0786815804527949
65,327.95,0.07660822037147956
66,337.92,0.07447017020508721
67,348.19000000000005,0.07226766689361787
68,357.12,0.07035290699015913
69,363.078055,0.06907556355962363
70,366.28000000000003,0.06856163135352639
71,374.81,0.06719190503450796
72,385.31,0.06550455700585686
73,395.19,0.0639191140004404
74,405.33,0.06229112047882879
75,413.82,0.060927598026148035
76,416.86938299999997,0.0604377257893773
77,422.48,0.059749488864468805
78,430.34000000000003,0.05878518633781336
79,441.37999999999994,0.0574317838902973
80,450.62,0.056298532932702344
81,460.06,0.05514024925511615
82,469.68999999999994,0.05395894879203829
83,478.630092,0.05286264783486372
84,479.52000000000004,0.052778738121011574
85,489.56,0.051831027942182105
86,499.82,0.05086379157873685
87,505.6,0.050320292841103946
88,511.46,0.04977869480997439
89,519.77,0.048994371099259956
90,529.43,0.048082764112039565
91,540.52,0.04703443929481657
92,549.5408739999999,0.04618608212168565
93,550.57,0.04611233422692625
94,559.51,0.04547361900362689
95,569.92,0.044726725062301784
96,580.51,0.04396330345325924
97,589.9399999999999,0.04328802109728463
98,599.53,0.042596883987783406
99,610.68,0.041794734611397724
100,620.6,0.04108901033274785
101,630.68,0.04036473287057139
102,630.957344,0.04034482375680909
103,639.46,0.03986134375616347
104,649.85,0.039271431868458155
105,657.37,0.03884320999041735
106,664.98,0.038412544644407964
107,674.23,0.03788691359430458
108,685.1899999999999,0.037259850612798295
109,694.72,0.03672616672345933
110,704.39,0.036170532159502604
111,715.8299999999999,0.03552957080216393
112,724.43596,0.0350408171398402
113,725.7900000000001,0.034983834863860454
114,734.1899999999999,0.03463111476663824
115,744.41,0.034204160298351195
116,754.76,0.03376995056070239
117,765.26,0.033327144389174605
118,774.1199999999999,0.03296065810805688
119,784.89,0.032510846915546954
120,795.81,0.032053599589158065
121,805.0300000000001,0.03166786854673081
122,814.3499999999999,0.03127805468171758
123,825.6800000000001,0.030807489482726172
124,831.763771,0.030542317162122617
125,835.24,0.030427991707895022
126,844.91,0.03014382822324636
127,854.69,0.029840416129775425
128,864.5899999999999,0.02953699883577111
129,874.5999999999999,0.029230165132944522
130,884.7299999999999,0.028921074829584545
131,894.9699999999999,0.02860652421740231
132,905.34,0.028283941512975554
133,915.8199999999999,0.028064677999726544
134,924.29,0.02919673122041174
135,935.0,0.031047745397807067
136,945.82,0.03748696596638012
137,954.58,0.04935279402744297
138,954.992586,0.04965363141399259
139,965.63,0.057417186528328445
140,974.5600000000001,0.03274429466428169
141,985.85,0.07496545798510054
142,994.97,0.07797602395373365
143,1004.18,0.08923858126416248
144,1015.8000000000001,0.07246927450489896
145,1025.2,0.032451792648007655
146,1034.69,0.057053946132912065
147,1044.26,0.10029184881052379
148,1053.93,0.10584656297901965
149,1066.1299999999999,0.09549641486688411
150,1076.0,0.10631031201714823
151,1085.95,0.09438422036011967
152,1096.0,0.10744046019397524
153,1096.4782,0.10728898120326483
154,1106.14,0.10428268204920722
155,1113.81,0.10221196112857864
156,1124.11,0.09957700950113735
157,1134.52,0.10905272727379135
158,1145.01,0.10235343551924193
159,1155.61,0.10533692316478781
160,1166.3,0.11008848759222982
161,1174.38,0.09812152534468366
162,1185.25,0.10616158333591795
163,1196.22,0.07594129441814797
164,1204.51,0.05899186466169281
165,1215.65,0.028193375998615537
166,1224.08,0.05831273156955438
167,1235.41,0.09675222977936897
168,1243.97,0.10936603036860224
169,1255.48,0.10844857214220911
170,1258.92541,0.10254542799268457
171,1264.18,0.09358082490414307
172,1275.88,0.11296989804082246
173,1284.73,0.1168395540031825
174,1293.63,0.10547256570544288
175,1305.6000000000001,0.10285453583758408
176,1314.65,0.1153938147595455
177,1323.76,0.11254437856938729
178,1336.01,0.1051131648449704
179,1345.27,0.11529310587451322
180,1354.6,0.1124276309399165
181,1363.99,0.10646004089320023
182,1373.4399999999998,0.10925059573436434
183,1386.1499999999999,0.11119615281703056
184,1395.76,0.10756668402587577
185,1405.43,0.10975401012260137
186,1415.18,0.10721435940316752
187,1424.9899999999998,0.10788896357161407
188,1434.8600000000001,0.10685993262794102
189,1441.49,0.10953680773872601
190,1445.43977,0.10998674499044928
191,1448.1399999999999,0.11030908849878887
192,1454.82,0.10869439228617307
193,1464.91,0.10536818930933275
194,1475.06,0.10399218891142104
195,1485.29,0.10365570861874744
196,1495.58,0.10414691090500246
197,1505.95,0.1023696532964956
198,1512.9,0.09752219868905851
199,1516.3899999999999,0.10082242203007212
200,1523.39,0.09816454623840887
201,1533.95,0.09293482012984258
202,1544.5800000000002,0.09848291036335967
203,1555.29,0.09414294070211487
204,1566.07,0.09271265738295348
205,1573.3,0.09560960814384985
206,1584.2,0.09739727998254563
207,1595.1799999999998,0.09922819192647955
208,1606.2399999999998,0.09557527397565162
209,1613.65,0.0958662224733338
210,1624.84,0.09233865344351783
211,1636.1000000000001,0.09424966075578521
212,1643.65,0.09434255193763413
213,1655.0500000000002,0.08888569193406826
214,1659.58691,0.09123088532092813
215,1666.52,0.09484092097108357
216,1670.36,0.08962417987295179
217,1678.0700000000002,0.09266257243373406
218,1685.8200000000002,0.09486086133724414
219,1693.6000000000001,0.09178396499780006
220,1705.34,0.08931442658840757
221,1713.21,0.08712449452010103
222,1725.08,0.08649958672457388
223,1733.05,0.08906925051308681
224,1745.06,0.08701761491710694
225,1753.11,0.09015778139107547
226,1765.27,0.08426311958032481
227,1773.41,0.08746978032543089
228,1785.71,0.08753661071422751
229,1793.95,0.08943240731615307
230,1806.3799999999999,0.08878136831881502
231,1814.72,0.08605337077756006
232,1823.1,0.08615307957903288
233,1835.7399999999998,0.08414788388101575
234,1844.21,0.08058955695362613
235,1856.99,0.07983071345515629
236,1865.56,0.08056242238458614
237,1874.18,0.08363721924242572
238,1887.1699999999998,0.0800474590432768
239,1895.88,0.07790191017225392
240,1904.6299999999999,0.08054253764395884
241,1905.46072,0.0803378812960095
242,1913.42,0.07839583351689215
243,1926.68,0.0776801699815189
244,1935.5800000000002,0.07825156554224123
245,1944.5100000000002,0.08011885672844915
246,1953.49,0.07703624395713303
247,1967.03,0.07997295625962521
248,1976.1100000000001,0.08073240557326103
249,1985.23,0.07824691572087761
250,1994.39,0.07630584670247499
251,2003.6000000000001,0.07718085372654832
252,2012.84,0.07572473637610723
253,2026.8,0.07750185743539754
254,2036.1499999999999,0.0755736973784036
255,2045.55,0.07612973336388561
256,2054.99,0.07378287018334839
257,2064.48,0.07432325304528715
258,2074.01,0.07594452674120668
259,2078.79,0.07468575640190925
260,2083.58,0.07557413127110699
261,2093.2000000000003,0.07323672184348326
262,2102.86,0.07377276324984032
263,2117.44,0.07352786723583263
264,2127.21,0.0740680059356368
265,2137.03,0.07133394067791694
266,2146.89,0.07214763625417787
267,2156.8,0.07267567787291476
268,2166.76,0.07070637553412762
269,2176.76,0.07021002402932125
270,2186.81,0.06971662856699085
271,2187.7616199999998,0.06987378595711669
272,2196.9,0.0714021151536033
273,2207.04,0.06962658686807996
274,2217.23,0.06775890940955108
275,2227.46,0.06621381661261777
276,2232.6,0.06908877562764836
277,2242.9,0.06695953598850729
278,2253.25,0.06543122717636068
279,2263.6600000000003,0.06578498535660744
280,2274.1,0.06668651203305087
281,2284.6,0.06732511570188765
282,2295.15,0.06524714019771889
283,2305.7400000000002,0.0649489693551457
284,2316.38,0.06374399933956698
285,2327.07,0.056323600150982714
286,2332.44,0.06166533097018781
287,2343.2,0.059430124939395784
288,2354.02,0.06173909590099712
289,2364.89,0.05901624768959291
290,2375.8,0.06019889413978427
291,2386.77,0.05731401758236899
292,2392.27,0.059429458551759684
293,2403.31,0.05785531515213664
294,2414.41,0.058297978744906956
295,2425.5499999999997,0.059832616999272836
296,2436.75,0.05788745224603207
297,2442.36,0.05966958103481058
298,2453.64,0.05891583560476095
299,2464.96,0.05829025483630689
300,2476.34,0.057086861060246186
301,2487.77,0.05823356811117994
302,2493.5099999999998,0.056810677050144046
303,2505.0099999999998,0.05915171725887004
304,2510.79,0.05630602085942972
305,2511.88643,0.056390447818771686
306,2516.58,0.05675710526945896
307,2522.38,0.054928782181308845
308,2534.02,0.054912105363021387
309,2545.7200000000003,0.05456013258175306
310,2557.47,0.05646782649800069
311,2563.36,0.05565685946537929
312,2575.2000000000003,0.05725702943715561
313,2587.08,0.0570058387669447
314,2593.05,0.056531270450348815
315,2605.0099999999998,0.05514287849616342
316,2617.04,0.054675347918500344
317,2623.07,0.0554552536389236
318,2635.18,0.05612442177728604
319,2647.34,0.05883008661316444
320,2653.45,0.0590658910496132
321,2665.69,0.05666083460151711
322,2678.0,0.057704449529943344
323,2684.17,0.05769573800341124
324,2696.56,0.056035641647862997
325,2702.78,0.05660773681884684
326,2715.25,0.054753069179324106
327,2727.79,0.054284842916323704
328,2734.07,0.05563528212432669
329,2746.69,0.051857914577351796
330,2753.03,0.05227572782237392
331,2765.73,0.05345117899142454
332,2772.1099999999997,0.05455468159445943
333,2784.9,0.05309237881903875
334,2797.76,0.04751455742014041
335,2804.2099999999996,0.04938061139969762
336,2817.15,0.05392664871682479
337,2823.6499999999996,0.05447764939389794
338,2836.68,0.05334158276655382
339,2843.2200000000003,0.05213220280163973
340,2856.34,0.05104777222982431
341,2862.9300000000003,0.05341162896242617
342,2876.14,0.05339170444613946
343,2882.77,0.05327088053675408
344,2884.0315,0.05327941332642628
345,2896.08,0.05337246915617709
346,2909.4500000000003,0.05517222970466438
347,2929.61,0.05368775833274993
348,2949.9199999999996,0.05289934096848491
349,2970.37,0.05299744067802605
350,2990.9599999999996,0.05276530746137334
351,3011.69,0.05286277131852678
352,3032.57,0.052740239183329665
353,3046.56,0.05262152963010133
354,3067.68,0.05239008390714333
355,3088.95,0.05215828219183477
356,3110.3599999999997,0.05203580755033236
357,3131.92,0.0513733869164794
358,3153.63,0.05114442029027588
359,3168.18,0.051242739032272146
360,3190.1400000000003,0.04974734575215104
361,3212.26,0.050466513413522686
362,3227.08,0.04920409936928795
363,3249.45,0.05065402037674199
364,3271.98,0.05149948232568879
365,3287.08,0.05105787242906635
366,3309.86,0.05061479772409555
367,3311.31121,0.05033885839707019
368,3325.14,0.04771869664659568
369,3332.81,0.04801938528042133
370,3340.49,0.045663867576090304
371,3348.1899999999996,0.04852555719544592
372,3355.91,0.04672472413848817
373,3363.65,0.04388502840521706
374,3371.4,0.04415796633378927
375,3379.17,0.04731386158604812
376,3386.96,0.0475126541619936
377,3394.7699999999995,0.047412284061625724
378,3402.6,0.04831703128494448
379,3410.44,0.04527158217010656
380,3418.3,0.046423500378955276
381,3426.18,0.04780935591149064
382,3434.08,0.048314818767712625
383,3441.99,0.04642061528577794
384,3449.93,0.045934312789373204
385,3457.8799999999997,0.045644213954811795
386,3465.85,0.04516676244393702
387,3473.84,0.04710528825674889
388,3481.8500000000004,0.04592920139324739
389,3489.88,0.047302061853432525
390,3497.92,0.045733725975460986
391,3505.99,0.046411081083019404
392,3514.07,0.04544361985242114
393,3522.17,0.047099395945509506
394,3530.29,0.04534504936228452
395,3538.4300000000003,0.04709767010274617
396,3546.58,0.04779821450505114
397,3554.76,0.04830610989288606
398,3562.95,0.047194418942564306
399,3571.17,0.0456255389777725
400,3579.3999999999996,0.044298082674824026
401,3587.65,0.04265340369556218
402,3595.92,0.04485790203998698
403,3604.21,0.04620172770809841
404,3611.71,0.04194653409058764
405,3614.46,0.06793493109750036
406,3617.21,0.054272658104413084
407,3619.96,0.0314157851113258
408,3622.71,0.033940052118238515
409,3625.4599999999996,0.038384229125151235
410,3628.2,0.02948057247022064
411,3630.95,0.04242396947713336
412,3633.7000000000003,0.05401012648404608
413,3636.45,0.054005603490958794
414,3639.2000000000003,0.04108302049787151
415,3641.95,0.06583440750478423
416,3644.7000000000003,0.06070882451169696
417,3647.45,0.024122121518609672
418,3650.1899999999996,0.04299759486367907
419,3652.94,0.038852161870591796
420,3655.6899999999996,0.04253165887750451
421,3658.44,0.05029145588441723
422,3661.19,0.05491069289132995
423,3663.94,0.05698862989824266
424,3666.69,0.06012752690515539
425,3669.44,0.03870483391206811
426,3672.19,0.027604090918980823
427,3674.9300000000003,0.04349580426405022
428,3677.68,0.04715317127096294
429,3680.4300000000003,0.04687739827787566
430,3683.18,0.06690694528478838
431,3685.93,0.057519262291701095
432,3688.68,0.051014349298613815
433,3691.43,0.04157475630552654
434,3694.1800000000003,0.07175879331243926
435,3696.92,0.06288992665750866
436,3699.67,0.05079741366442138
437,3702.42,0.0673459206713341
438,3705.17,0.045733687678246815
439,3707.92,0.04192300468515953
440,3710.6699999999996,0.048384241692072255
441,3713.42,0.05812644869898497
442,3716.1699999999996,0.03602178570589769
443,3718.9100000000003,0.04713972905096709
444,3721.66,0.05225242605787981
445,3724.4100000000003,0.11902275306479253
446,3727.16,0.13940046007170523
447,3729.9100000000003,0.13965556707861798
448,3732.66,0.10561967408553069
449,3735.4100000000003,0.0658894610924434
450,3738.16,0.035149028099356126
451,3740.91,0.037369345106268846
452,3743.65,0.049053828451338245
453,3746.3999999999996,0.05702716545825096
454,3749.15,0.04960653246516368
455,3751.9,0.024032319472076402
456,3754.65,0.03764130647898912
457,3757.4,0.05180624348590184
458,3760.15,0.05093988049281456
459,3762.9,0.05006773749972728
460,3765.64,0.04990862084479668
461,3768.39,0.051406557851709396
462,3771.14,0.04571730485862212
463,3773.89,0.062184051865534835
464,3776.64,0.05550309887244756
465,3779.3900000000003,0.06376882587936027
466,3782.14,0.05479283288627299
467,3784.8900000000003,0.06290464989318571
468,3787.63,0.06538211323825512
469,3790.3799999999997,0.06142135024516784
470,3793.13,0.057065267252080554
471,3795.8799999999997,0.05761286425899327
472,3798.63,0.05012585126590599
473,3801.3799999999997,0.046299788272818714
474,3801.8939600000003,0.04723644336899175
475,3804.13,0.05131252483894355
476,3806.88,0.05230004494769404
477,3809.63,0.05884240505644453
478,3812.37,0.05522760676479957
479,3815.1200000000003,0.05753386687355006
480,3817.87,0.06093762698230055
481,3820.6200000000003,0.07001743709105104
482,3823.37,0.06701121719980153
483,3826.12,0.059112877308552025
484,3828.87,0.06169133741730252
485,3831.62,0.046905957526053005
486,3834.36,0.03770256923440804
487,3837.11,0.042291389343158535
488,3839.86,0.047703569451909025
489,3842.61,0.05098517956065952
490,3845.3599999999997,0.06148568966941002
491,3848.11,0.0653136297781605
492,3850.8599999999997,0.061618709886911
493,3853.61,0.059462799995661494
494,3856.35,0.061269181704016525
495,3859.1,0.06327821181276702
496,3861.85,0.05904751192151751
497,3864.6000000000004,0.061565382030268
498,3867.35,0.07403390213901849
499,3870.1000000000004,0.08037715224776898
500,3872.85,0.07928410235651948
501,3875.6000000000004,0.07654913246526997
502,3878.35,0.06830067257402045
503,3881.0899999999997,0.0733226642823755
504,3883.84,0.07232196439112598
505,3886.5899999999997,0.06867704449987648
506,3889.34,0.07071204460862697
507,3892.09,0.06669680471737746
508,3894.84,0.07757147482612795
509,3897.59,0.07764422493487845
510,3900.34,0.07676087504362894
511,3903.08,0.08076620675198397
512,3905.83,0.08925349686073447
513,3908.58,0.08345010696948495
514,3911.33,0.08537832707823545
515,3914.08,0.08560978718698593
516,3916.83,0.07249996729573643
517,3919.58,0.05972681740448692
518,3922.33,0.05409371751323742
519,3925.07,0.049912349221592454
520,3927.82,0.05501094933034294
521,3930.5699999999997,0.05637360943909343
522,3933.32,0.051992859547843925
523,3936.0699999999997,0.049616679656594415
524,3938.82,0.0638646797653449
525,3941.5699999999997,0.05992255987409541
526,3944.32,0.05848997998284589
527,3947.0699999999997,0.06608271009159639
528,3949.8100000000004,0.05409956179995142
529,3952.56,0.05510824190870191
530,3955.3100000000004,0.0686742820174524
531,3958.06,0.0480011921262029
532,3960.81,0.05780627223495339
533,3963.56,0.05152581234370388
534,3966.31,0.03834004245245437
535,3969.06,0.048223982561204866
536,3971.7999999999997,0.0444061742695599
537,3974.55,0.058883144378310395
538,3977.2999999999997,0.06066998448706088
539,3980.05,0.06321766459581138
540,3982.8,0.05540877470456186
541,3985.5499999999997,0.06924508481331236
542,3988.3,0.06905044492206285
543,3991.0499999999997,0.07573708503081333
544,3993.79,0.08090626673916837
545,3996.54,0.07466041684791887
546,3999.29,0.07612597695666937
547,4002.04,0.07145857706541986
548,4004.79,0.06184423717417035
549,4007.54,0.07134149728292083
550,4010.2900000000004,0.06623068739167133
551,4013.04,0.06430177750042182
552,4015.7900000000004,0.08312347760917232
553,4018.53,0.07508892931752735
554,4021.2799999999997,0.06788023942627784
555,4024.03,0.06629181953502833
556,4026.7799999999997,0.06790070964377883
557,4029.53,0.051378149752529315
558,4032.2799999999997,0.0669256398612798
559,4035.03,0.0656940999700303
560,4037.78,0.06822446007878079
561,4040.5200000000004,0.07297326178713583
562,4043.27,0.06663603189588632
563,4046.02,0.07084296200463681
564,4048.77,0.0636621721133873
565,4051.52,0.06608578222213779
566,4054.27,0.06471764233088828
567,4057.02,0.06839745243963878
568,4059.77,0.07410682254838927
569,4062.5099999999998,0.07327384425674431
570,4065.2599999999998,0.0729637743654948
571,4068.01,0.07653777447424528
572,4070.7599999999998,0.06430807458299578
573,4073.51,0.07337827469174626
574,4076.2599999999998,0.07537286480049676
575,4079.01,0.06264973490924726
576,4081.7599999999998,0.06320921501799774
577,4084.51,0.058466805126748234
