,lambda (Angstroms),Total Flux (erg/s/cm^2/Angstrom)
0,102.07000000000001,34.94774866336398
1,103.97,34.84815520665332
2,104.712855,34.80921980141536
3,105.9,34.48231075742567
4,108.12,33.870982188208814
5,109.88,33.386390832412566
6,114.0,32.25187298692361
7,118.01,31.147642337615668
8,120.22644299999999,30.53787356183641
9,121.02999999999999,30.352567305436803
10,125.0,29.43618416705768
11,127.03,28.967585182229065
12,127.91,28.76447627173193
13,130.89,28.076589570412093
14,132.1,27.79744884422853
15,133.94,27.372725514098153
16,137.06,26.652764958790133
17,138.038426,26.426927167777734
18,139.93,26.114882188952336
19,142.86,25.633821692839142
20,146.85999999999999,24.9778042056539
21,150.97,24.300239640321056
22,154.85,23.66078479875137
23,158.489319,23.061046202721467
24,158.82,23.019866659733346
25,162.14,22.60634481301716
26,165.92,22.135779423563196
27,170.17999999999998,21.60521274386111
28,172.94,21.261647187434402
29,176.97,20.759821569101202
30,179.85000000000002,20.401222527612465
31,181.93,20.142226766537263
32,181.970086,20.13723519190045
33,186.17000000000002,19.738495426849255
34,190.94,19.285750593974456
35,194.04999999999998,18.990613337068666
36,198.10999999999999,18.60524236644567
37,201.79,18.256096847309554
38,205.07000000000002,17.944698573949097
39,208.929613,17.57772203605951
40,209.85,17.51195341903534
41,216.22,17.058640645007515
42,220.23999999999998,16.77222801017363
43,222.79,16.59033434934616
44,226.94,16.294633605450482
45,230.09,16.08451836972243
46,233.83,15.845888175175485
47,239.83,15.43971449616968
48,239.88329199999998,15.435859154277498
49,245.98,15.094881698211752
50,251.70999999999998,14.785061733693373
51,256.97999999999996,14.475207922748897
52,259.96,14.32763710959623
53,264.18,14.100631036809569
54,269.09,13.82986563866206
55,274.1,13.55334343973761
56,275.42287,13.48009111716315
57,279.19,13.319800182721062
58,283.72999999999996,13.12835424251965
59,289.67,12.87217349040591
60,295.74,12.615724415114597
61,301.23,12.378584198615533
62,308.25,12.08341372702657
63,316.227766,11.747335062939829
64,318.35,11.680664500763976
65,328.02,11.37367069359161
66,337.99,11.056357168140885
67,348.26000000000005,10.729191054411803
68,357.19,10.446290068326052
69,363.078055,10.260696290964338
70,366.36,10.183298801028535
71,374.89000000000004,9.97931053661105
72,385.39,9.725426199813443
73,395.28000000000003,9.493426222534552
74,405.42,9.253188064141433
75,413.90999999999997,9.050272885102226
76,416.86938299999997,8.979133284866434
77,421.6,8.891882434452064
78,430.43,8.730064550385304
79,441.46999999999997,8.529945282582695
80,450.72,8.360613541697353
81,460.15,8.187248975032627
82,469.79,8.011325219958607
83,478.630092,7.850784430384315
84,479.63,7.8367995617029695
85,489.66999999999996,7.693902120637872
86,499.92,7.551543020626192
87,505.71,7.468771933956181
88,511.57,7.3917548476373085
89,519.88,7.27433447360833
90,529.5500000000001,7.137009074972921
91,539.39,6.996047375761711
92,549.42,6.854551051789307
93,549.5408739999999,6.852891347923733
94,559.63,6.747625626602032
95,570.04,6.637350830127313
96,580.64,6.523020031584371
97,590.0699999999999,6.422072838408904
98,599.66,6.316789786123357
99,609.4,6.206998999047104
100,619.3,6.108479142860773
101,629.3700000000001,5.999377813244975
102,630.957344,5.982596820277376
103,639.59,5.910311561810257
104,649.98,5.821315044587983
105,657.51,5.755859742529875
106,665.12,5.692877328019625
107,674.38,5.614569326683893
108,685.34,5.5191833407400885
109,694.8699999999999,5.44010687737837
110,704.5400000000001,5.355119742225394
111,715.9799999999999,5.261041981568724
112,724.43596,5.189335652768811
113,725.94,5.1798404522211055
114,734.35,5.1266470162317725
115,744.5699999999999,5.061488517229277
116,754.9200000000001,4.995938437789369
117,765.43,4.926314088580345
118,774.29,4.873473222615362
119,785.0600000000001,4.804224512531518
120,794.15,4.747838155023428
121,805.1999999999999,4.678611157843625
122,814.52,4.619844298792425
123,825.85,4.548623674516663
124,831.763771,4.5094589648701575
125,835.4200000000001,4.4910076629413
126,845.09,4.448071973403929
127,854.88,4.40152788731594
128,864.77,4.355232349102434
129,874.79,4.308021842125759
130,884.92,4.260230510811016
131,895.17,4.211887712945653
132,905.53,4.162821630742223
133,916.02,4.113736739775623
134,924.49,4.096769855744442
135,935.2,4.069767436101707
136,946.0300000000001,4.041184149908354
137,954.78,4.012681383925727
138,954.992586,4.011853010725694
139,965.84,3.9706775588268637
140,974.77,3.8713389322302083
141,986.06,3.8622265067793426
142,995.18,3.8166238549359504
143,1004.39,3.7911910627125245
144,1016.02,3.737572624714866
145,1025.4199999999998,3.6545659872447036
146,1034.91,3.636663589394506
147,1044.49,3.6229290711642763
148,1054.1499999999999,3.5746852970406837
149,1063.91,3.514287678050386
150,1076.23,3.466260170472471
151,1086.18,3.402879006235436
152,1096.23,3.375798997131699
153,1096.4782,3.3744897156830653
154,1103.83,3.341790327342909
155,1114.05,3.3009882623228015
156,1124.35,3.2517121253651595
157,1134.76,3.2261993019934065
158,1145.26,3.181052635191927
159,1155.85,3.14197832496072
160,1163.8700000000001,3.1110032882228267
161,1174.64,3.0444574311321664
162,1185.5,3.025066150611779
163,1193.72,2.9798190840300487
164,1204.77,2.926042525158015
165,1215.91,2.864483492856254
166,1224.34,2.8615984449384952
167,1235.67,2.833615574285088
168,1244.24,2.8045997054766425
169,1255.75,2.7588012079637823
170,1258.92541,2.745065377730092
171,1264.45,2.727095602396907
172,1276.15,2.705011820208232
173,1285.0,2.682389279706542
174,1293.91,2.645620020116705
175,1305.88,2.6133124770313683
176,1314.93,2.5993435262358546
177,1324.05,2.5709507248375036
178,1336.3,2.5316432993408142
179,1345.5600000000002,2.514091376736786
180,1354.8899999999999,2.48658292352992
181,1364.28,2.4552501512349068
182,1373.74,2.4302526383370546
183,1386.4499999999998,2.395982723164572
184,1396.0600000000002,2.355389407546352
185,1405.73,2.328792502839986
186,1415.48,2.31276382601609
187,1425.29,2.2851282601040475
188,1435.17,2.2599286535891667
189,1441.79,2.2434305708636093
190,1445.43977,2.23370711843833
191,1448.45,2.2281093394109694
192,1455.13,2.2132409100812755
193,1465.22,2.190497063444059
194,1475.38,2.1714276741641654
195,1485.6,2.152598168333407
196,1495.9,2.13256776376816
197,1506.2700000000002,2.1102125865602375
198,1513.22,2.0921290527516496
199,1516.71,2.0876895467096386
200,1523.71,2.0737186824419958
201,1534.27,2.0469095594896656
202,1544.9099999999999,2.025175037802849
203,1555.6200000000001,2.0039064734733545
204,1566.4,1.987159586501184
205,1573.63,1.9766059021218896
206,1584.5400000000002,1.9575125759561771
207,1595.52,1.937700537147789
208,1606.58,1.9150363396049128
209,1613.9999999999998,1.9006515494812117
210,1625.19,1.8778328727447935
211,1636.45,1.8591966633656987
212,1644.0,1.845449624048455
213,1655.3999999999999,1.8213716593840081
214,1659.58691,1.8147972940137003
215,1666.88,1.8074090216732963
216,1670.72,1.7970116471793938
217,1678.4299999999998,1.7997282549533553
218,1686.1799999999998,1.790132735076339
219,1693.9599999999998,1.7753312719610883
220,1705.7,1.759421421399001
221,1713.5800000000002,1.7508737241563048
222,1725.45,1.7362111362285388
223,1733.42,1.731663549271142
224,1745.43,1.7137991295649524
225,1753.49,1.7098049428928546
226,1765.64,1.6848326614082412
227,1773.7900000000002,1.678912115021443
228,1786.09,1.664287007345662
229,1794.3300000000002,1.6638939612441626
230,1806.77,1.6439700017899581
231,1815.1100000000001,1.631591661561013
232,1823.49,1.6195568936810907
233,1836.1299999999999,1.600359095971995
234,1844.6000000000001,1.5800721383773715
235,1853.1200000000001,1.576108008719025
236,1865.96,1.5678422627550388
237,1874.5800000000002,1.5562295889692466
238,1883.2299999999998,1.5432441619452222
239,1896.28,1.5303131033136004
240,1905.04,1.5183098077493853
241,1905.46072,1.5178379629078647
242,1913.83,1.5113640973872497
243,1927.1,1.4921401132453427
244,1935.99,1.4687307042761222
245,1944.93,1.487267442759268
246,1953.9,1.4780691177138343
247,1967.45,1.4768429173051798
248,1976.53,1.4644224426549521
249,1985.6499999999999,1.457812409966618
250,1994.82,1.4483586947306506
251,2004.02,1.4350141159661027
252,2013.28,1.4266221301443949
253,2027.2299999999998,1.4059818293546733
254,2036.5900000000001,1.4091924784376986
255,2045.99,1.4085361394826175
256,2055.43,1.3931104224894295
257,2064.92,1.3807529829486076
258,2074.45,1.38737566536968
259,2079.23,1.4096210898159256
260,2084.03,1.4138759252431181
261,2093.65,1.3948698070784498
262,2103.31,1.377386310875675
263,2113.02,1.3776978921252665
264,2122.77,1.3609892953367513
265,2132.57,1.3379513760006023
266,2147.35,1.3465947909201663
267,2157.26,1.337807281979224
268,2167.22,1.3145507504906488
269,2177.22,1.3065354409639667
270,2187.27,1.3139433088896506
271,2187.7616199999998,1.3138020457950725
272,2197.37,1.314007439006363
273,2207.51,1.3007220120182335
274,2212.6,1.273832533875277
275,2222.81,1.2744578056160263
276,2233.07,1.299515790734546
277,2243.38,1.2828527892308366
278,2253.74,1.2499261011048977
279,2264.14,1.2402587836811754
280,2274.59,1.2447887796352233
281,2285.0899999999997,1.2633235889670422
282,2295.64,1.235146011676631
283,2306.23,1.2475246050884365
284,2316.88,1.225829854553567
285,2327.5699999999997,1.185683174720914
286,2332.94,1.1809354914934724
287,2343.71,1.147193933065252
288,2354.52,1.1918938853392482
289,2365.39,1.1389156436665693
290,2376.31,1.1540991753716605
291,2387.2799999999997,1.1081694004545224
292,2392.7799999999997,1.1202548520092848
293,2403.83,1.1125276984965793
294,2414.92,1.1162858456860905
295,2426.0699999999997,1.1581440289289269
296,2437.27,1.149248925549533
297,2442.89,1.167895709210945
298,2454.16,1.16583320456043
299,2465.49,1.1453867559632402
300,2476.87,1.1204738207438205
301,2482.58,1.0871170884852193
302,2494.04,1.0854340946702326
303,2505.55,1.1296943142330165
304,2511.33,1.050216740703294
305,2511.88643,1.048247813546716
306,2517.12,1.0305903120463498
307,2522.92,1.0329187144015015
308,2534.56,1.0556084440935645
309,2546.26,1.0564396762582668
310,2552.13,1.114992969831498
311,2563.91,1.0745136119597198
312,2575.75,1.1008521865605811
313,2587.64,1.0810189048886423
314,2593.6,1.0654813971708323
315,2605.5699999999997,1.0426953254624127
316,2617.6,1.0240097862266324
317,2623.63,1.061613399726902
318,2635.74,1.1317651704546412
319,2647.91,1.20242217365502
320,2654.0099999999998,1.291096708373369
321,2666.2599999999998,1.1576183215372668
322,2672.41,1.1894012999828159
323,2684.75,1.220183811855673
324,2697.14,1.1323015674557295
325,2703.36,1.1820641671193577
326,2715.8300000000004,1.0998581326829335
327,2722.0899999999997,1.0653400873283216
328,2734.66,1.1030401403462968
329,2747.28,0.9942834370914715
330,2753.61,1.0356713129549389
331,2766.3199999999997,1.0798788084090731
332,2772.7000000000003,1.09772042799974
333,2785.5,0.9976780221628332
334,2791.92,0.8971465167352596
335,2804.81,0.9081385496073121
336,2817.75,1.0531948262065645
337,2824.25,1.14168391074251
338,2837.29,1.1173184347961616
339,2843.83,1.0495008743138672
340,2856.95,0.9632355083310378
341,2863.54,1.1078753915759427
342,2876.7599999999998,1.1798402130475125
343,2883.3900000000003,1.1516219512741772
344,2884.0315,1.1541085383061678
345,2896.7,1.205004777758682
346,2910.07,1.3403822834318733
347,2930.2400000000002,1.2677710160742266
348,2950.55,1.228260378095357
349,2970.9999999999995,1.2428743694952642
350,2991.6,1.2454294923724323
351,3012.33,1.242164942529893
352,3033.21,1.263183824164615
353,3047.22,1.2814716641407862
354,3068.34,1.3190339961391253
355,3089.6099999999997,1.3038144596147259
356,3111.02,1.3700359524691028
357,3132.59,1.318171878899225
358,3147.05,1.3178579133071788
359,3168.86,1.3655425901009184
360,3190.83,1.2752010004704029
361,3212.94,1.3279769402186645
362,3227.77,1.2306870522705287
363,3250.15,1.4199718486778599
364,3272.68,1.530982176562452
365,3287.78,1.5120069452733857
366,3310.5699999999997,1.4596532277185637
367,3311.31121,1.4550802244188845
368,3318.2,1.413261583217058
369,3325.8500000000004,1.4043791871404165
370,3333.52,1.473888877479261
371,3341.21,1.4082063542335912
372,3348.91,1.5376642241956646
373,3356.63,1.5068707805732235
374,3364.37,1.2050214233662686
375,3372.12,1.2720528593670568
376,3379.89,1.5059266817833308
377,3387.69,1.4542730838228335
378,3395.5,1.376560679070079
379,3403.32,1.5984263675250678
380,3411.17,1.4130329356032854
381,3419.03,1.3983684968892458
382,3426.9100000000003,1.455475744590692
383,3434.81,1.5690808787076245
384,3442.73,1.3435062992400428
385,3450.67,1.417502406187947
386,3458.62,1.4950469063435938
387,3466.6000000000004,1.43705348612247
388,3474.59,1.5126045591090889
389,3482.6000000000004,1.4532467185111935
390,3490.63,1.5176613643287842
391,3498.6699999999996,1.375397603354118
392,3506.74,1.5831401220026806
393,3514.82,1.4206944338589858
394,3522.92,1.5456904321307772
395,3531.0399999999995,1.3664796168180544
396,3539.1800000000003,1.5647233879208176
397,3547.34,1.6120485454390665
398,3555.52,1.5364282893728016
399,3563.7200000000003,1.5126910197220225
400,3571.93,1.3166782432789863
401,3580.1699999999996,1.3891360464591789
402,3588.42,1.1711684428471143
403,3596.69,1.4547755256505361
404,3604.98,1.5807527948694435
405,3613.29,1.3339375505038369
406,3621.62,1.3074399925537161
407,3629.9700000000003,1.737808221019081
408,3638.3399999999997,1.5097381358999324
409,3646.7300000000005,1.5624544371962692
410,3655.1299999999997,1.5771357317003494
411,3663.56,1.812701805827658
412,3672.0000000000005,1.6549214731627098
413,3680.4700000000003,1.6178319201209903
414,3688.95,1.551085960287014
415,3697.46,1.662438780076266
416,3705.98,1.7082861930732616
417,3714.52,1.583629792485743
418,3723.09,1.3869377715214528
419,3731.67,1.5489471437649058
420,3740.27,1.141304802423845
421,3748.89,1.32409434749827
422,3753.0,1.0958891558806232
423,3755.71,1.3305217151789632
424,3758.43,1.3967811676850463
425,3761.1499999999996,1.4700817201911294
426,3763.8700000000003,1.4678324726972123
427,3766.59,1.4440754252032955
428,3769.2999999999997,1.5610163845016354
429,3772.02,1.5872147370077183
430,3774.74,1.5205170895138016
431,3777.46,1.4799541420198845
432,3780.1800000000003,1.5266837945259675
433,3782.89,1.6978715538243079
434,3785.6099999999997,1.6681269063303907
435,3788.33,1.4685503588364737
436,3791.05,1.4561768113425566
437,3793.7599999999998,1.3964252706408966
438,3796.48,1.33019082314698
439,3799.2,1.229342575653063
440,3801.8939600000003,1.426192959008
441,3801.9199999999996,1.4280975458590839
442,3804.6400000000003,1.4722674656397974
443,3807.35,1.5353573941713174
444,3810.0699999999997,1.492645413952031
445,3812.79,1.5484048337327447
446,3815.5099999999998,1.5614040535134586
447,3818.23,1.5523032732941724
448,3820.94,1.4046779018256923
449,3823.66,1.3992013216064059
450,3826.3799999999997,1.4062133413871196
451,3829.1,1.2922953611678332
452,3831.82,1.121870180948547
453,3834.5299999999997,1.133024709480067
454,3837.25,1.1963906292607804
455,3839.97,1.1227658490414942
456,3842.69,1.184281468822208
457,3845.4100000000003,1.3057222886029216
458,3848.12,1.4397864171344414
459,3850.8399999999997,1.5376120369151551
460,3853.56,1.584736256695869
461,3856.28,1.520002476476583
462,3858.99,1.4454591050081027
463,3861.71,1.5984306247888163
464,3864.43,1.5694148445695302
465,3867.1499999999996,1.319996764350244
466,3869.8700000000003,1.4536948841309574
467,3872.58,1.4542121126624774
468,3875.2999999999997,1.293859332443191
469,3878.02,1.3278790522239048
470,3880.74,1.4612176720046186
471,3883.46,1.4944663917853322
472,3886.17,1.4351353203168522
473,3888.89,1.4563836400975658
474,3891.6099999999997,1.3868440598782796
475,3894.33,1.5965026796589932
476,3897.05,1.5802838994397068
477,3899.7599999999998,1.5910558279712268
478,3902.48,1.5621170477519406
479,3905.2,1.6839432675326542
480,3907.9199999999996,1.789708487313368
481,3910.6400000000003,1.6030417070940817
482,3913.35,1.7432496356256018
483,3916.0699999999997,1.9130768554063153
484,3918.79,1.748202075187029
485,3921.51,1.7981012949677426
486,3924.22,1.7116872234992626
487,3926.94,1.5285404432799763
488,3929.66,1.35436316306069
489,3932.3799999999997,1.0874965828414038
490,3935.1000000000004,1.0169812026221174
491,3937.81,1.0666810311536374
492,3940.5299999999997,1.1778435509343512
493,3943.25,1.3344381707150648
494,3945.97,1.6435186904957786
495,3948.69,1.7180619102764922
496,3951.4,1.7966218388080122
497,3954.12,1.7418840585887259
498,3956.8399999999997,1.6789742783694395
499,3959.56,1.6314054981501531
500,3962.28,1.5739437179308668
501,3964.99,1.3695530464623868
502,3967.71,1.1670829662431004
503,3970.43,1.0984689860238142
504,3973.1499999999996,1.169826705804528
505,3975.86,1.3046099343360478
506,3978.58,1.5464164541167615
507,3981.2999999999997,1.8187496738974753
508,3984.02,1.827174893678189
509,3986.74,1.9518781134589027
510,3989.45,1.9414510419904225
511,3992.17,1.9538842617711363
512,3994.89,2.1140504815518497
513,3997.6099999999997,2.1536707013325636
514,4000.3300000000004,2.0863929211132772
515,4003.04,2.0718018496447974
516,4005.7599999999998,2.1576520694255112
517,4008.48,2.206935289206225
518,4011.2,2.2000695089869384
519,4013.92,2.151781728767652
520,4016.63,2.310518657299172
521,4019.35,2.3356708770798855
522,4022.0699999999997,2.2345750968605995
523,4024.79,2.176907316641313
524,4027.51,2.2979355364220266
525,4030.22,2.294011464953547
526,4032.94,2.1277216847342606
527,4035.66,2.112966904514974
528,4038.3799999999997,2.179955124295688
529,4041.09,2.3041290528272076
530,4043.81,2.3192862726079215
531,4046.5299999999997,2.1808784923886355
532,4049.25,2.064029712169349
533,4051.97,2.1562529319500627
534,4054.68,2.1776128604815828
535,4057.4,2.1611630802622965
536,4060.12,2.14522630004301
537,4062.8399999999997,2.052148519823724
538,4065.56,1.9792167396044373
539,4068.27,2.147871668135957
540,4070.99,2.103745887916671
541,4073.71,2.0992191076973845
542,4076.43,2.118539327478098
543,4079.15,2.150733547258812
544,4081.86,2.2470004757903324
545,4084.58,2.2820736955710457
546,4087.2999999999997,2.2469419153517594
547,4090.02,2.2143541351324734
548,4092.7400000000002,2.2489633549131867
549,4095.45,2.2396162834447066
550,4098.17,2.0988695032254205
551,4100.889999999999,1.9424997230061343
552,4103.61,2.026858942786848
553,4106.32,1.9820748713183678
554,4109.04,2.0039130910990814
555,4111.76,2.126124310879795
556,4114.48,2.084388530660509
557,4117.2,2.1358297504412227
558,4119.91,2.1428766789727427
559,4122.63,2.175405898753456
560,4125.349999999999,2.21268811853417
561,4128.07,2.2055403383148837
562,4130.79,2.2894875580955976
563,4133.5,2.261201486627117
564,4136.22,2.1707437064078308
565,4138.94,2.2045319261885448
566,4141.66,2.2377541459692587
567,4144.38,2.168317365749972
568,4147.09,2.245414294281492
569,4149.8099999999995,2.181398514062206
570,4152.53,2.1293587338429196
571,4155.25,2.219345953623633
572,4157.97,2.213482173404347
573,4160.68,2.273491101935867
574,4163.4,2.3180713217165803
575,4166.12,2.317322541497294
576,4168.84,2.236012761278008
577,4171.55,2.1499336898095276
578,4174.2699999999995,2.1495189095902414
579,4176.99,2.133788129370955
580,4179.71,2.1215013491516688
581,4182.429999999999,2.197354568932383
582,4185.14,2.2058924974639025
583,4187.86,2.2505237172446164
584,4190.58,2.20411093702533
585,4193.3,2.2290591568060436
586,4196.0199999999995,2.1715963765867574
587,4198.73,2.1518163051182775
588,4201.45,2.197578524898991
589,4204.17,2.1312507446797047
590,4206.889999999999,2.2115749644604183
591,4209.61,2.242202184241132
592,4212.32,2.295941112772652
593,4215.04,2.4239593325533657
594,4217.76,2.3858465523340793
595,4220.48,2.283979772114793
596,4223.19,2.289176700646313
597,4225.91,2.2100259204270265
598,4228.63,2.1423361402077403
599,4231.349999999999,2.090192359988454
600,4234.07,2.151244579769168
601,4236.78,2.2344835083006878
602,4239.5,2.3274257280814012
603,4242.22,2.355302947862115
604,4244.94,2.375368167642829
605,4247.66,2.3851543874235426
606,4250.37,2.3490823159550627
