,lambda (Angstroms),Total Flux (erg/s/cm^2/Angstrom)
0,102.03,52.77180317357553
1,103.92999999999999,52.621408323932236
2,104.712855,52.55944194389001
3,106.1,51.98265200857795
4,108.07000000000001,51.16351056257855
5,110.08,50.32775508060436
6,113.95,48.718592061531496
7,117.96,47.0512193163268
8,120.22644299999999,46.10924798140365
9,120.97999999999999,45.84669473600454
10,124.94999999999999,44.46286185638105
11,126.97999999999999,43.75523588635116
12,127.86,43.448510133840664
13,131.14000000000001,42.30514519102881
14,132.05,41.98812265773955
15,133.88,41.35022660623477
16,137.0,40.26292128424302
17,138.038426,39.90096162078545
18,139.87,39.44465434354586
19,143.13,38.635930044925544
20,147.14,37.644758781478465
21,150.91,36.70613978993595
22,155.14,35.65312236799303
23,158.489319,34.81948917693851
24,159.12,34.700858523516274
25,162.08,34.14405523728396
26,165.85,33.435217637961024
27,170.10999999999999,32.63375394541046
28,172.87,32.114746597842476
29,176.9,31.3566268592559
30,180.19,30.737654784727404
31,181.85,30.425572674813335
32,181.970086,30.402981185208144
33,186.09,29.811933337555494
34,190.85999999999999,29.12783497072036
35,193.96,28.6834016500099
36,198.03,28.09953407849648
37,202.17,27.505787864450898
38,204.99,27.101458133869123
39,208.929613,26.53524438570168
40,209.76000000000002,26.445518508075207
41,216.13,25.760403943126754
42,220.15,25.32737704482333
43,223.21,24.997226442383415
44,226.84,24.60649803458704
45,230.0,24.28425209611968
46,233.73000000000002,23.918807862295857
47,239.73000000000002,23.29481247064896
48,239.88329199999998,23.278045641799487
49,245.88,22.770772822589755
50,252.19,22.25214724459276
51,256.88,21.8410641632606
52,259.85,21.610101186041728
53,264.07,21.264568875717273
54,268.97999999999996,20.854913821998537
55,273.97999999999996,20.437230049576193
56,275.42287,20.316709195113884
57,279.08,20.082048356607302
58,284.26,19.750501744708057
59,290.21999999999997,19.36347441518692
60,296.28999999999996,18.97558688830885
61,301.11,18.66437167685048
62,308.12,18.216896954376793
63,316.227766,17.699169387648062
64,318.22,17.604175920100523
65,327.89,17.140689992235842
66,337.85,16.662000941508612
67,348.11,16.16909368057876
68,357.04,15.741086665880555
69,363.078055,15.452601302332265
70,366.2,15.340858648419006
71,374.73,15.03335463689113
72,385.23,14.651840338070178
73,395.10999999999996,14.300092566265326
74,405.25,13.936431591518236
75,413.74,13.63059276044301
76,416.86938299999997,13.517630179934553
77,422.4,13.364710728182285
78,430.25,13.148030883238095
79,441.29,12.845232919660532
80,450.53000000000003,12.590203245688008
81,459.96000000000004,12.329925022423842
82,469.59000000000003,12.064937672536892
83,478.630092,11.817118234088944
84,480.53,11.777010536632622
85,489.46999999999997,11.585941741920026
86,499.71000000000004,11.370519674956157
87,505.5,11.246769606467797
88,512.53,11.101830537370535
89,519.66,10.950368368869325
90,530.55,10.719032530779824
91,540.41,10.508119147550941
92,549.5408739999999,10.314448980708
93,550.4599999999999,10.299529910883663
94,559.4,10.157115898911993
95,569.8000000000001,9.990558997222351
96,580.39,9.818714691665306
97,589.82,9.666724339719796
98,599.41,9.509774274517524
99,610.55,9.324495917765352
100,620.47,9.171719955846003
101,630.55,9.00812953066989
102,630.957344,9.001605901723261
103,639.33,8.895308482163015
104,649.71,8.761768985279767
105,658.75,8.645113535585683
106,664.85,8.568255419575294
107,675.65,8.430459340737233
108,685.05,8.30822025508188
109,694.58,8.18786642977385
110,704.24,8.062059614813137
111,715.6899999999999,7.918154617711672
112,724.43596,7.806356217655214
113,725.64,7.794904511286975
114,735.74,7.69895858835964
115,744.2600000000001,7.617428242088266
116,754.61,7.518851846019168
117,765.1099999999999,7.416112824065009
118,775.75,7.318091155951461
119,784.73,7.231638092299239
120,795.65,7.128798081866913
121,804.86,7.041650894524264
122,814.1800000000001,6.953192590199241
123,825.51,6.845941101014421
124,831.763771,6.784951410145836
125,835.0699999999999,6.760575663210738
126,844.7399999999999,6.694079764769899
127,854.52,6.624427206553621
128,864.4100000000001,6.554449568561903
129,874.4200000000001,6.483508608996982
130,884.5500000000001,6.411608847858854
131,894.7900000000001,6.339003686945288
132,905.15,6.265277444458516
133,915.6300000000001,6.193156490398536
134,924.1099999999999,6.155244715891991
135,934.81,6.104949702281135
136,945.63,6.058240357097072
137,954.38,6.019108184050812
138,954.992586,6.0152894290049375
139,965.4300000000001,5.951812554792745
140,974.37,5.807360488297603
141,985.65,5.789621615605745
142,994.77,5.72805579555701
143,1003.97,5.6991556139289
144,1015.6,5.616303524327277
145,1025.0,5.486802068750729
146,1034.48,5.454635391594806
147,1044.05,5.452684062662087
148,1056.14,5.363746443979059
149,1065.91,5.264982911097901
150,1075.78,5.215855176242527
151,1085.73,5.1157826798077775
152,1095.78,5.082079681398809
153,1096.4782,5.076714194788779
154,1105.9199999999998,5.015950797527703
155,1116.15,4.951933726255364
156,1123.89,4.892406055322041
157,1134.29,4.862780199287603
158,1144.78,4.790719286614405
159,1155.3700000000001,4.736197788787028
160,1166.06,4.676943405805478
161,1174.15,4.585468036832533
162,1185.01,4.56303036908888
163,1195.98,4.464060387675629
164,1204.27,4.392615128394333
165,1215.4099999999999,4.3059272122189824
166,1223.8300000000002,4.304378872237252
167,1235.16,4.278684564268965
168,1243.72,4.240151555071389
169,1255.23,4.168155233825582
170,1258.92541,4.140265461270173
171,1263.93,4.110603344978698
172,1275.6200000000001,4.0923244412208994
173,1284.46,4.061689018019965
174,1296.35,3.981723875275721
175,1305.3400000000001,3.94402364783495
176,1314.3799999999999,3.9349199856475696
177,1323.49,3.8907188348149315
178,1335.74,3.824833721895083
179,1345.0,3.8088261668226107
180,1354.32,3.765995550054204
181,1363.7099999999998,3.712632344640542
182,1376.3300000000002,3.6663330345957665
183,1385.87,3.62763072494227
184,1395.48,3.5669523266435155
185,1405.15,3.5302576666488275
186,1414.89,3.499115718008883
187,1424.7,3.4608451807236826
188,1434.57,3.420842981742548
189,1441.19,3.399391241291169
190,1445.43977,3.3830929596913584
191,1447.85,3.3767774558082415
192,1454.53,3.353695460236295
193,1464.6100000000001,3.315193143564854
194,1474.76,3.2861347746943075
195,1484.99,3.2588100747390656
196,1495.28,3.2304836014703042
197,1505.64,3.194513776002435
198,1512.5900000000001,3.1628516505196456
199,1516.08,3.159211319449872
200,1526.59,3.126452510698201
201,1533.64,3.0926532363595447
202,1544.27,3.0674057609808343
203,1554.97,3.0327620134030155
204,1565.75,3.005313714740503
205,1576.6,2.9802853038788837
206,1583.88,2.9636377751717315
207,1594.86,2.9340225587974853
208,1605.91,2.90034079022413
209,1613.3300000000002,2.879267257118764
210,1624.5100000000002,2.8425512330327813
211,1635.77,2.816258237862106
212,1643.3200000000002,2.795775179244112
213,1654.71,2.7566310385608084
214,1659.58691,2.7459830085107413
215,1666.1799999999998,2.7371346289801624
216,1673.8700000000001,2.7111340544875193
217,1677.73,2.714899183220731
218,1685.47,2.7028525886598653
219,1693.25,2.6808323300444226
220,1704.99,2.653872280025746
221,1716.81,2.6251994618979126
222,1724.7299999999998,2.6085756490914465
223,1736.6899999999998,2.59041955677259
224,1744.7099999999998,2.572034523829678
225,1756.8,2.5535583233334425
226,1764.91,2.5297665762677295
227,1773.06,2.514788135147439
228,1785.35,2.491896014378313
229,1793.59,2.4812062191352213
230,1806.0200000000002,2.455633744175072
231,1814.3500000000001,2.431293534809179
232,1826.9299999999998,2.408215909644363
233,1835.3600000000001,2.387936580142024
234,1843.84,2.3639308805714645
235,1856.62,2.338798035133757
236,1865.1899999999998,2.3241901214403957
237,1873.8,2.3131495136924562
238,1886.7800000000002,2.280600817981857
239,1895.49,2.2605333700974737
240,1904.24,2.2473945581585104
241,1905.46072,2.2445293636124775
242,1913.03,2.2307404649794513
243,1926.29,2.2093006409035083
244,1935.18,2.1979154502522915
245,1944.1200000000001,2.1892789716671537
246,1953.0900000000001,2.171031478321663
247,1966.63,2.15875768981576
248,1975.71,2.146844769015642
249,1984.83,2.130042761868388
250,1993.99,2.114612608373996
251,2003.19,2.103207218532466
252,2017.08,2.0807873344891146
253,2026.39,2.069212247192959
254,2035.74,2.0528123435496655
255,2045.14,2.042562781972451
256,2054.58,2.0244140040480993
257,2064.06,2.010929019776611
258,2073.5899999999997,2.0030727975712015
259,2078.37,2.0037509990883193
260,2083.16,2.0060202590186536
261,2092.77,1.9857449141189696
262,2107.28,1.9644050216949924
263,2117.01,1.9543037977538968
264,2126.78,1.9373754174656646
265,2136.6,1.9175745092435112
266,2146.46,1.9120835646742202
267,2156.37,1.899374132171008
268,2166.3199999999997,1.8784695333206587
269,2176.3199999999997,1.8634259865363882
270,2186.36,1.8570651834049796
271,2187.7616199999998,1.8552048667898577
272,2196.4500000000003,1.8477231555759843
273,2206.59,1.8353247049408274
274,2216.7799999999997,1.8133467236122034
275,2227.01,1.8074192217288052
276,2237.29,1.8133657891519404
277,2242.45,1.803573617586121
278,2252.8,1.7798615240384013
279,2263.2,1.767370119797215
280,2273.6400000000003,1.7618582050012541
281,2284.14,1.7678580893731335
282,2294.68,1.7445737931902385
283,2305.27,1.7442099463138765
284,2315.91,1.7228818787440474
285,2326.6,1.6945731304807505
286,2337.34,1.6870931215239866
287,2342.73,1.670667626768218
288,2353.54,1.6819707168406
289,2364.4100000000003,1.651746126080821
290,2375.3199999999997,1.648760974766269
291,2386.28,1.623759312758249
292,2397.3,1.6200780499180683
293,2402.83,1.6131385632205915
294,2413.92,1.6069858294095567
295,2425.06,1.6194260349050553
296,2436.25,1.608120109707086
297,2447.5,1.6104673236769564
298,2453.14,1.6093004454538513
299,2464.46,1.5854066584528677
300,2475.84,1.566229660619723
301,2487.27,1.5341908620931113
302,2493.0,1.5338327326217653
303,2504.5099999999998,1.549295482985606
304,2510.2799999999997,1.5063572529594862
305,2511.88643,1.503667783861323
306,2516.07,1.4977035014721762
307,2527.68,1.489718777363834
308,2533.5099999999998,1.5032126886083106
309,2545.2000000000003,1.4965999170556383
310,2556.9500000000003,1.5358248174197195
311,2562.85,1.5041287559004068
312,2574.67,1.5186618035006996
313,2586.56,1.4985944983372037
314,2592.52,1.485770648734644
315,2604.49,1.4666045861268184
316,2616.51,1.4516279301162867
317,2622.54,1.4687638777499388
318,2634.65,1.526448249614536
319,2646.81,1.5694530980764276
320,2652.91,1.658305242946291
321,2665.15,1.5296513739638529
322,2677.46,1.5469253522176265
323,2683.63,1.579838544323701
324,2696.0099999999998,1.4992740698136866
325,2702.23,1.5409670385170549
326,2714.7,1.4680084818821693
327,2727.23,1.420625737164036
328,2733.52,1.4524470531036164
329,2746.1400000000003,1.377964726260612
330,2752.4700000000003,1.4049723834780277
331,2765.17,1.4345219391906943
332,2777.94,1.4354947421395723
333,2784.34,1.3638939465931992
334,2797.19,1.3011636720977473
335,2803.64,1.3066712131486686
336,2816.5800000000004,1.3867279165283457
337,2823.0699999999997,1.4515006388571023
338,2836.1,1.4262757601119085
339,2842.6400000000003,1.3577935590379584
340,2855.7599999999998,1.2901123981678946
341,2862.3500000000004,1.4043648736912384
342,2875.56,1.4846400306963035
343,2882.19,1.4520537474974824
344,2884.0315,1.4609379430795788
345,2895.49,1.5186640475204647
346,2908.8599999999997,1.6437686224325305
347,2929.02,1.5669887133994151
348,2949.32,1.5207279758313474
349,2969.77,1.5277521791186883
350,2990.35,1.5230959844807166
351,3011.08,1.5090228306981532
352,3031.95,1.5346549483806375
353,3052.97,1.5418308069185303
354,3067.06,1.5885244779365562
355,3088.32,1.562872901843102
356,3109.73,1.6490133666050566
357,3131.28,1.587252202832059
358,3152.99,1.5828602493048303
359,3167.54,1.6373273122794418
360,3189.5,1.5351739935112274
361,3211.6099999999997,1.581334215598421
362,3226.4300000000003,1.4764092521127672
363,3248.7899999999995,1.6853570089589751
364,3271.31,1.8012676760509514
365,3286.42,1.7788019248857543
366,3309.19,1.7063117267367445
367,3311.31121,1.6998711929443906
368,3324.47,1.661886981723618
369,3332.1299999999997,1.6726224616522423
370,3339.81,1.5743492733822466
371,3347.51,1.7641488169136315
372,3355.23,1.7390301922463962
373,3362.9700000000003,1.4232294993805414
374,3370.72,1.5726586724153768
375,3378.4900000000002,1.6914628772515923
376,3386.27,1.6628486479884979
377,3394.08,1.6450426164274738
378,3401.9100000000003,1.81970931666783
379,3409.7499999999995,1.6687179828088765
380,3417.6099999999997,1.549329780751303
381,3425.49,1.7081401104951097
382,3433.3799999999997,1.8282202061396065
383,3441.2999999999997,1.6241172994861737
384,3449.23,1.5732916587334307
385,3457.1800000000003,1.693865249782068
386,3465.15,1.578838272632086
387,3473.1400000000003,1.745530827283484
388,3481.15,1.627493113736262
389,3489.1699999999996,1.6998615660897305
390,3497.22,1.606920916145269
391,3505.28,1.8023584321014976
392,3513.3599999999997,1.6604898798591066
393,3521.46,1.8077081594180957
394,3529.57,1.500985304877775
395,3537.71,1.7500693480395244
396,3545.87,1.7596445230026543
397,3554.04,1.794801663866474
398,3562.23,1.6868081365316745
399,3570.4399999999996,1.504730540998255
400,3578.6800000000003,1.6119232431669053
401,3586.92,1.380074145335556
402,3595.1899999999996,1.6588108452062773
403,3603.48,1.8522738768783782
404,3611.7899999999995,1.50733994035186
405,3620.11,1.7106042697260313
406,3628.46,1.8989828968022733
407,3636.82,1.601179689779205
408,3645.21,1.8386207804582075
409,3653.61,1.7136684370379
410,3662.03,2.065769225418973
411,3670.4700000000003,1.9227680456014253
412,3678.94,1.961426963485949
413,3687.42,1.8318122472711622
414,3695.9199999999996,1.974573262857756
415,3704.44,2.0044540102457296
416,3712.98,1.6288693894350834
417,3721.54,1.6688814004258177
418,3730.1099999999997,1.769712177317242
419,3738.72,1.2876539178114266
420,3747.33,1.4928741583056113
421,3755.9700000000003,1.6941953965018666
422,3764.63,1.6505679664995019
423,3773.3100000000004,1.6617415682985173
424,3782.01,1.8866273018989128
425,3790.7200000000003,1.6681930013999988
426,3799.46,1.528945998603155
427,3800.75,1.9952339997921793
428,3801.8939600000003,1.9720309869166455
429,3802.4799999999996,1.960206069055074
430,3804.21,1.8494487113652567
431,3805.94,1.7724313536754392
432,3807.67,1.885355995985622
433,3809.4,1.8334066382958047
434,3811.1299999999997,1.7246086806059875
435,3812.87,1.853514342813917
436,3814.6000000000004,1.7662988851240993
437,3816.33,1.7869026274342823
438,3818.06,1.740306969744465
439,3819.79,1.4167819120546477
440,3821.52,1.4085091543648303
441,3823.2500000000005,1.576471996675013
442,3824.98,1.6359939389851956
443,3826.71,1.5163028812953785
444,3828.44,1.465113423605561
445,3830.17,1.5764351659157438
446,3831.8999999999996,1.3345451082259263
447,3833.63,1.4096312505361088
448,3835.3599999999997,1.4586904928462918
449,3837.09,1.3182935351564744
450,3838.82,1.3887038774666571
451,3840.56,1.5080258396745867
452,3842.29,1.6898244819847692
453,3844.0200000000004,1.7535664242949518
454,3845.75,1.5386508666051346
455,3847.4799999999996,1.7527255089153173
456,3849.21,1.9080922512254999
457,3850.94,1.5485667935356826
458,3852.67,1.5799158358458654
459,3854.4,1.553352478156048
460,3856.1299999999997,1.5325110204662309
461,3857.86,1.5427557627764132
462,3859.59,1.565182705086596
463,3861.3199999999997,1.4510311473967787
464,3863.05,1.5882032897069616
465,3864.7799999999997,1.7723080320171443
466,3866.51,1.8142026743273267
467,3868.2499999999995,1.6962802365352565
468,3869.98,1.5209776788454388
469,3871.71,1.4864173211556215
470,3873.44,1.4940870634658043
471,3875.17,1.583474705775987
472,3876.8999999999996,1.5252479480861698
473,3878.63,1.5145658903963524
474,3880.36,1.6370714327065352
475,3882.09,1.6657897750167177
476,3883.82,1.6529978173269004
477,3885.5499999999997,1.5666762596370831
478,3887.28,1.618096801947266
479,3889.0099999999998,1.6202399442574484
480,3890.74,1.8013750865676312
481,3892.4700000000003,1.8398237288778136
482,3894.2,1.8732123711879964
483,3895.9300000000003,1.7328424134981792
484,3897.6699999999996,1.7779780757061088
485,3899.4,1.8595197180162915
486,3901.1299999999997,1.739260260326474
487,3902.86,1.7238065026366565
488,3904.59,1.7260193449468395
489,3906.3199999999997,1.961898287257022
490,3908.05,1.9758669295672049
491,3909.7799999999997,1.9084495718773877
492,3911.51,1.80006321418757
493,3913.2400000000002,1.8291468564977529
494,3914.97,1.9078284988079357
495,3916.7000000000003,1.9455421411181182
496,3918.43,1.8156317834283011
497,3920.16,1.7774934257384836
498,3921.89,1.7337496680486661
499,3923.62,1.732641210358849
500,3925.36,1.6071204725667783
501,3927.0899999999997,1.436806414876961
502,3928.82,1.3748843571871436
503,3930.5499999999997,1.2062208994973265
504,3932.28,1.2507894418075092
505,3934.01,1.165654484117692
506,3935.74,1.2071881264278745
507,3937.4700000000003,1.2084620687380572
508,3939.2,1.1854034110482399
509,3940.9300000000003,1.4012877533584227
510,3942.66,1.3933403956686052
511,3944.39,1.470911137978788
512,3946.1200000000003,1.6118382802889706
513,3947.85,1.6198687225991533
514,3949.58,1.8481407649093362
515,3951.31,1.8919424072195188
516,3953.05,1.766472469427448
517,3954.7799999999997,1.8390461117376309
518,3956.5099999999998,1.8742717540478138
519,3958.2400000000002,1.8575203963579963
520,3959.97,1.7045165386681789
521,3961.7000000000003,1.6084394809783615
522,3963.43,1.4048337232885442
523,3965.16,1.401901065598727
524,3966.8900000000003,1.4315663079089096
525,3968.62,1.2986456502190924
526,3970.3500000000004,1.2922323925292747
527,3972.08,1.389278334839458
528,3973.81,1.5305309771496405
529,3975.54,1.7129381194598232
530,3977.27,1.729817461770006
531,3978.9999999999995,1.8625341040801886
532,3980.74,2.001473166288118
533,3982.4700000000003,2.0335138085983004
534,3984.2,2.061718450908483
535,3985.93,2.187095093218666
536,3987.6600000000003,2.2192067355288487
537,3989.39,2.2330903778390314
538,3991.1200000000003,2.103311020149214
539,3992.85,2.100516662459397
540,3994.58,2.1298993047695793
541,3996.31,2.162278947079762
542,3998.04,2.192046589389945
543,3999.7700000000004,2.1298652317001276
544,4001.5,2.26031487401031
545,4003.23,2.399889516320493
546,4004.96,2.2934241586306756
547,4006.69,2.308342800940858
548,4008.43,2.3580348631487875
549,4010.16,2.3116065054589705
550,4011.8900000000003,2.236792147769153
551,4013.62,2.3654247900793357
552,4015.35,2.4782904323895183
553,4017.08,2.341738074699701
554,4018.81,2.3429887170098835
555,4020.5400000000004,2.3454033593200663
556,4022.27,2.4121690016302493
557,4024.0,2.4350326439404317
558,4025.73,2.3585242862506144
559,4027.46,2.296213928560797
560,4029.19,2.29784757087098
561,4030.92,2.2631492131811624
562,4032.6499999999996,2.1885868554913452
563,4034.38,2.270591497801528
564,4036.11,2.3716121401117105
565,4037.85,2.41191820231964
566,4039.58,2.456671844629823
567,4041.3100000000004,2.4291374869400055
568,4043.04,2.338945129250188
569,4044.7699999999995,2.279369771560371
570,4046.5,2.2153584138705535
571,4048.23,2.3197650561807364
572,4049.96,2.325443698490919
573,4051.69,2.3846463408011016
574,4053.4199999999996,2.4004849831112844
575,4055.15,2.342464625421467
576,4056.88,2.2294872677316495
577,4058.61,2.220447910041832
578,4060.34,2.248130552352015
579,4062.0699999999997,2.2108271946621976
580,4063.8,2.1986618369723803
581,4065.5400000000004,2.3606208991803097
582,4067.27,2.3384265414904926
583,4069.0,2.2527941838006753
584,4070.73,2.240758826110858
585,4072.46,2.314948468421041
586,4074.1899999999996,2.3397661107312233
587,4075.92,2.247367753041406
588,4077.65,2.2570763953515884
589,4079.38,2.4086330376617715
590,4081.11,2.501708679971954
591,4082.8399999999997,2.4548893222821366
592,4084.57,2.4446779645923193
593,4086.2999999999997,2.4847426069025023
594,4088.03,2.488459249212685
595,4089.76,2.522663891522867
596,4091.49,2.59163453383305
597,4093.23,2.5541905960409794
598,4094.9600000000005,2.3999242383511623
