,lambda (Angstroms),Total Flux (erg/s/cm^2/Angstrom)
0,102.07000000000001,0.5277834478017935
1,103.97,0.5262792799640625
2,104.712855,0.5256912137277879
3,105.9,0.5207541060410216
4,108.12,0.5115215838213097
5,109.88,0.5042027353062951
6,114.0,0.487068658616965
7,118.01,0.4703919936873234
8,120.22644299999999,0.4611800391948903
9,121.02999999999999,0.4583803778218003
10,125.0,0.4445395951855669
11,127.03,0.4374621734706164
12,127.91,0.43439434500364277
13,130.89,0.4240047557877548
14,132.1,0.4197878653706661
15,133.94,0.41337292856790303
16,137.06,0.4024975411540874
17,138.038426,0.39908647867507313
18,139.93,0.394373097755785
19,142.86,0.38709472034501324
20,146.85999999999999,0.3771676046281578
21,150.98,0.3669048710480966
22,154.85,0.3572662827572139
23,158.489319,0.3482029560523345
24,158.82,0.3475805119301537
25,162.15,0.34131176456050677
26,165.92,0.334216854800276
27,170.17999999999998,0.3261971333823494
28,172.94,0.32100289737777715
29,176.97,0.3134166391685649
30,179.85000000000002,0.30799585550292435
31,181.93,0.3040809090110729
32,181.970086,0.3040054506529903
33,186.17000000000002,0.2979757740692591
34,190.94,0.29112866413626326
35,194.04999999999998,0.28666498728540013
36,198.10999999999999,0.28083641219295497
37,201.79,0.27555486367714266
38,205.07000000000002,0.27084633366304894
39,208.929613,0.2653000537981329
40,209.85,0.26430581662997715
41,216.23,0.25743061212750834
42,220.25,0.25309508749178344
43,222.8,0.25034304707136096
44,226.94,0.24587892180173385
45,230.09,0.24260061461180013
46,233.83,0.23878888545518048
47,239.83,0.23243527496006872
48,239.88329199999998,0.2323773379198403
49,245.98,0.22726066304740442
50,251.70999999999998,0.22251641398246827
51,256.97999999999996,0.2180070521592199
52,259.96,0.21561624504132987
53,264.18,0.21212613114149903
54,269.1,0.20802200852605648
55,274.1,0.2038481743859726
56,275.42287,0.2027439718425269
57,279.19,0.20032911204879053
58,283.72999999999996,0.19742096896514214
59,289.67,0.19358600036362858
60,295.74,0.1897093166447419
61,301.24,0.18617044171741454
62,308.25,0.1816899924036755
63,316.227766,0.17658869448550732
64,318.35,0.175574964469445
65,328.02,0.17094303737933417
66,337.99,0.16616281132375957
67,348.26000000000005,0.16124015100272138
68,357.20000000000005,0.1569581032919053
69,363.078055,0.15414550836642082
70,366.36,0.15296854806763732
71,374.89000000000004,0.14990297336918246
72,385.39,0.14611728642466004
73,395.28000000000003,0.14258149788729563
74,405.42,0.13894726820601397
75,413.90999999999997,0.1358987249145859
76,416.86938299999997,0.13483535501336655
77,421.60999999999996,0.13353249916669713
78,430.43,0.13111197497748642
79,441.46999999999997,0.1280917242107193
80,450.72,0.12555626190423413
81,460.16,0.12296723176453472
82,469.79,0.12033233509162099
83,478.630092,0.11792053111048474
84,479.63,0.1177107666089007
85,489.66999999999996,0.11559036916956995
86,499.93,0.11345019969650884
87,505.71999999999997,0.1122382974587872
88,511.57,0.11114660311186639
89,519.88,0.10940686928777887
90,529.5500000000001,0.10738030135517643
91,539.39,0.10529114514650963
92,549.42,0.10324172755871207
93,549.5408739999999,0.10321753199171999
94,559.64,0.10169886574093076
95,570.04,0.10010598585680333
96,580.64,0.09841519850182727
97,590.0699999999999,0.09699200339131558
98,599.66,0.09544397148412498
99,609.41,0.0939246073802555
100,619.31,0.09254074927324958
101,629.3700000000001,0.09097329696956473
102,630.957344,0.09073482657293268
103,639.6,0.08972334407964994
104,649.99,0.08848705183209457
105,657.5200000000001,0.08754932959974691
106,665.13,0.08672679490543546
107,674.38,0.08565887374086499
108,685.34,0.08421291645181718
109,694.8699999999999,0.08331513567037324
110,704.5400000000001,0.08195138258049255
111,715.99,0.08091318971191613
112,724.43596,0.07994365412275915
113,725.95,0.07981939848381306
114,734.36,0.07913855712909479
115,744.5699999999999,0.0783050723916782
116,754.9300000000001,0.07745836412237005
117,765.43,0.07643858688996319
118,774.29,0.07594078293957032
119,785.0699999999999,0.07497231778096593
120,794.16,0.0743584227483394
121,805.1999999999999,0.07350123380112301
122,814.53,0.07276595811747004
123,825.86,0.07193469667526338
124,831.763771,0.07106221086333153
125,835.4200000000001,0.07060890342128455
126,845.1,0.07068176070305834
127,854.88,0.070096396522867
128,864.78,0.06968452278831747
129,874.79,0.06918776704560627
130,884.92,0.0687034417485369
131,895.17,0.06818690489710934
132,905.54,0.06751493249132363
133,916.02,0.06764506307737624
134,924.5,0.08513495490273179
135,935.2,0.10823901047246107
136,946.0300000000001,0.14517792694163567
137,954.79,0.17470575447348882
138,954.992586,0.17502297988413834
139,965.84,0.19202523935956223
140,974.78,0.08792776064301579
141,986.07,0.1785664299819633
142,995.1899999999999,0.1787866633717951
143,1004.4,0.21943389281481604
144,1016.03,0.2091047050213669
145,1025.43,0.1244652672433427
146,1034.92,0.1689197655185076
147,1044.49,0.2525702791742851
148,1054.1599999999999,0.24825709955582825
149,1063.91,0.21271040531798396
150,1076.23,0.23661835393231817
151,1086.1899999999998,0.20285468381858188
152,1096.24,0.24001070975803468
153,1096.4782,0.23976460562880858
154,1103.84,0.2322504989196844
155,1114.05,0.22667145890859228
156,1124.36,0.20889097501884107
157,1134.77,0.2413769472504308
158,1145.27,0.22449693999122733
159,1155.86,0.2314413532412307
160,1163.8700000000001,0.23487837856063834
161,1174.64,0.18204123282905535
162,1185.51,0.22512464321881331
163,1193.73,0.1769152163930369
164,1204.78,0.1457603678012085
165,1215.92,0.10797582971858692
166,1224.35,0.16600656074762643
167,1235.68,0.21695490929555258
168,1244.25,0.2316499288944694
169,1255.76,0.22495121846080923
170,1258.92541,0.21691158009054212
171,1264.46,0.20294428636480816
172,1276.16,0.23912304538860174
173,1285.01,0.2457918720860866
174,1293.92,0.21063158472728327
175,1305.89,0.20739958049777976
176,1314.94,0.2389504603409705
177,1324.05,0.23041462612787306
178,1336.31,0.21212645395964305
179,1345.5700000000002,0.23541078460582499
180,1354.9,0.22872589885300393
181,1364.29,0.2118082990438947
182,1373.74,0.2167806851784972
183,1386.4599999999998,0.21710110524539072
184,1396.0700000000002,0.1921084538965579
185,1405.74,0.1950187884914369
186,1415.49,0.20338090434459818
187,1425.3,0.20376920614147126
188,1435.18,0.2029788915393414
189,1441.8,0.2090966406622058
190,1445.43977,0.20984084779391107
191,1448.46,0.2104950770390871
192,1455.14,0.20545377594224853
193,1465.2299999999998,0.1943551084172334
194,1475.39,0.19294947501246096
195,1485.61,0.19378245656789658
196,1495.91,0.19462099140360958
197,1506.2800000000002,0.18696776035956528
198,1513.23,0.17270207658366285
199,1516.72,0.1799885634357637
200,1523.72,0.17571797546003465
201,1534.2900000000002,0.1587111276166838
202,1544.9199999999998,0.164478994733541
203,1555.63,0.15781731513067557
204,1566.41,0.16111256964805284
205,1573.64,0.16840832235312128
206,1584.5500000000002,0.1726771259509493
207,1595.53,0.17470976366902008
208,1606.59,0.1697538546673682
209,1614.01,0.1688897714130954
210,1625.2,0.1625353114918943
211,1636.46,0.16858698569093586
212,1644.02,0.1690271706771485
213,1655.4099999999999,0.15983549395664085
214,1659.58691,0.16318426086178095
215,1666.89,0.16910084082075894
216,1670.73,0.1555652095825968
217,1678.4399999999998,0.16986285701847434
218,1686.1899999999998,0.173059817670621
219,1693.97,0.16499858823496955
220,1705.71,0.15973346720996337
221,1713.5900000000001,0.1538358708149848
222,1725.46,0.1521301927428533
223,1733.43,0.15857202608448026
224,1745.44,0.15499579426929083
225,1753.5,0.16097085734752337
226,1765.66,0.1507546750933432
227,1773.8100000000002,0.15294666790818132
228,1786.1,0.15389622860687585
229,1794.3500000000001,0.15954045446238685
230,1806.78,0.1580559614180234
231,1815.1200000000001,0.14949481701013995
232,1823.5000000000002,0.15049618581852567
233,1836.14,0.14620846215957523
234,1844.62,0.1370259640086338
235,1853.13,0.1373863757698942
236,1865.9800000000002,0.13953702149635677
237,1874.59,0.14545256629829006
238,1883.24,0.13679462431649247
239,1896.3,0.13238823942836805
240,1905.0500000000002,0.13716103048724335
241,1905.46072,0.13698176706015436
242,1913.84,0.13336857109036576
243,1927.11,0.13037919452372856
244,1936.0,0.13227725219687064
245,1944.94,0.13658378915951297
246,1953.92,0.12949154955375547
247,1967.46,0.13705948115041955
248,1976.54,0.1390927001236625
249,1985.6699999999998,0.13336429838640573
250,1994.83,0.12990736422284907
251,2004.04,0.13181140934879268
252,2013.2900000000002,0.12888507790633644
253,2027.2399999999998,0.13147829967690247
254,2036.6000000000001,0.1268114826713468
255,2046.0,0.12916988909739124
256,2055.4500000000003,0.12195247481293597
257,2064.9300000000003,0.12324282810218085
258,2074.47,0.130280316538826
259,2079.25,0.12644031661504862
260,2084.04,0.1288741725491713
261,2093.66,0.12354960784901682
262,2103.3199999999997,0.12365126658046255
263,2113.0299999999997,0.1242398046014085
264,2122.79,0.12483152191185469
265,2132.58,0.11850850679600103
266,2147.37,0.11968952063017102
267,2157.28,0.12215177580911792
268,2167.23,0.11847435441966502
269,2177.24,0.1176360281776124
270,2187.29,0.11612035536715995
271,2187.7616199999998,0.11627546696073231
272,2197.38,0.11948370972841107
273,2207.53,0.11660146780716615
274,2212.62,0.11230474056784234
275,2222.83,0.10982949353179204
276,2233.09,0.11431945890007057
277,2243.4,0.11070364667267794
278,2253.75,0.1070062943687484
279,2264.15,0.10794859446914767
280,2274.61,0.10954040945474158
281,2285.1,0.11094443188293279
282,2295.65,0.10577764919631862
283,2306.25,0.10612373891403329
284,2316.89,0.10300975855521101
285,2327.59,0.08901906308158336
286,2332.95,0.09767939282563531
287,2343.72,0.09466192471806804
288,2354.54,0.0996357290148296
289,2365.41,0.09379602571592001
290,2376.33,0.09535644482133927
291,2387.29,0.0897968938502216
292,2392.7999999999997,0.09343440080726008
293,2403.8399999999997,0.09089234968306856
294,2414.94,0.09168991344407165
295,2426.0899999999997,0.09521363960940357
296,2437.28,0.0924258356981986
297,2442.9,0.0954757799447605
298,2454.18,0.09411678836134744
299,2465.5099999999998,0.0931349291822632
300,2476.89,0.09057314240750781
301,2482.6,0.09123888898186167
302,2494.06,0.08572102205403241
303,2505.5699999999997,0.09341074753053202
304,2511.34,0.08593114899008046
305,2511.88643,0.08603698619772812
306,2517.13,0.08706564045738371
307,2522.94,0.08489536498073573
308,2534.5800000000004,0.08533488870738246
309,2546.28,0.08446576647385726
310,2552.15,0.08826527503703735
311,2563.93,0.08635923152328293
312,2575.76,0.0891970447093852
313,2587.65,0.08811374193531558
314,2593.62,0.08689976389820914
315,2605.5899999999997,0.08469287984391027
316,2617.62,0.0833405998294395
317,2623.65,0.08576766583216111
318,2635.7599999999998,0.0875670645374611
319,2647.93,0.09244741728258915
320,2654.03,0.09389220466511021
321,2666.2799999999997,0.08743216613000904
322,2672.4300000000003,0.08966076021238681
323,2684.7599999999998,0.08978446039705643
324,2697.1600000000003,0.08594644196152543
325,2703.37,0.08761560008373129
326,2715.8500000000004,0.08387607036797107
327,2722.1099999999997,0.08319640519003366
328,2734.68,0.08561448153401555
329,2747.2999999999997,0.07763460457785419
330,2753.63,0.07896400077971619
331,2766.3399999999997,0.08092053988329694
332,2772.7200000000003,0.08313169278501566
333,2785.5200000000004,0.07912187794833853
334,2791.94,0.06825126020994264
335,2804.83,0.07109304143300761
336,2817.77,0.08131915935592932
337,2824.27,0.0840535103373042
338,2837.31,0.08171261165993936
339,2843.85,0.07962811200119964
340,2856.97,0.07666846204360556
341,2863.56,0.08207766908472255
342,2876.7799999999997,0.08234001252684195
343,2883.4100000000003,0.08166548892784434
344,2884.0315,0.0816550779624354
345,2896.72,0.08146961151713557
346,2910.09,0.08609425278030015
347,2930.26,0.08301967954754245
348,2950.57,0.08150475789869224
349,2971.02,0.0819439878337495
350,2991.62,0.08156975803727907
351,3012.35,0.0816804611401513
352,3033.24,0.08130914319606067
353,3047.24,0.08111096158680892
354,3068.36,0.08090044338770913
355,3089.6299999999997,0.08068869545708166
356,3111.04,0.08047662911036164
357,3132.61,0.07898662171667878
358,3147.07,0.07879437959740876
359,3168.88,0.07889896063328157
360,3190.85,0.0754489206221915
361,3212.97,0.07691526087957373
362,3227.8,0.07386430008920206
363,3250.17,0.07728809746070481
364,3272.7000000000003,0.07912267378524467
365,3287.8,0.07828913747812315
366,3310.59,0.07760445960134832
367,3311.31121,0.07757323658981372
368,3318.2299999999996,0.07728406053422647
369,3325.88,0.07727558461416638
370,3333.54,0.07884795234649836
371,3341.23,0.07541161103600659
372,3348.93,0.08028940337790688
373,3356.65,0.07740067302459135
374,3364.39,0.07055139997605996
375,3372.1400000000003,0.07110679057992064
376,3379.92,0.07706355214095756
377,3387.71,0.07674366735438656
378,3395.52,0.07504851987259972
379,3403.35,0.07845998969559703
380,3411.19,0.07367945317098643
381,3419.06,0.07486840760355207
382,3426.94,0.07577758568850977
383,3434.84,0.07907452107825164
384,3442.76,0.07364351377277766
385,3450.69,0.07529328011969576
386,3458.6499999999996,0.07422409742379009
387,3466.6200000000003,0.0733164183802765
388,3474.61,0.07541910664154708
389,3482.6200000000003,0.0733015822076018
390,3490.65,0.07555386507844068
391,3498.7000000000003,0.07109170525406372
392,3506.7599999999998,0.07492787908207885
393,3514.84,0.07150620021487811
394,3522.9500000000003,0.07490841230485361
395,3531.07,0.0733933580472212
396,3539.21,0.07534968109437294
397,3547.3700000000003,0.07720743144630884
398,3555.54,0.07579502545063682
399,3563.7400000000002,0.07486285041214104
400,3571.96,0.07057307267842941
401,3580.1899999999996,0.06985391859710986
402,3588.44,0.06483147182057446
403,3596.71,0.07097232234882322
404,3605.01,0.07330599383424821
405,3613.3199999999997,0.0692447589720653
406,3621.65,0.06923417141466652
407,3630.0,0.07824293116205192
408,3638.36,0.07372086456182939
409,3646.7500000000005,0.07326083891878309
410,3655.16,0.07415585058052093
411,3663.5800000000004,0.07837326589465088
412,3672.03,0.07520598216595704
413,3680.4900000000002,0.0733708520896553
414,3680.58,0.091137214961184
415,3683.3199999999997,0.07737554571661347
416,3686.06,0.07302735647204292
417,3688.81,0.08358908087986444
418,3691.55,0.0655915116352939
419,3694.29,0.061712212390723366
420,3697.04,0.0571666667985449
421,3699.7799999999997,0.05656967755397436
422,3702.5200000000004,0.06895618830940381
423,3705.27,0.07572730271722534
424,3708.0099999999998,0.0707132034726548
425,3710.75,0.07751230422808425
426,3713.49,0.07732907498351373
427,3716.2400000000002,0.07699965939133525
428,3718.98,0.09485934014676471
429,3721.7200000000003,0.16681642090219417
430,3724.47,0.2924518253100157
431,3727.21,0.35329716606544515
432,3729.9500000000003,0.3078121068208746
433,3732.7,0.21727931122869615
434,3735.44,0.12767385198412562
435,3738.18,0.08990358273955505
436,3740.9300000000003,0.0890776271473766
437,3743.67,0.06930297790280605
438,3746.41,0.06502176865823552
439,3749.15,0.06009037941366497
440,3751.9,0.0795494838214865
441,3754.6400000000003,0.08198266457691597
442,3757.38,0.08171276533234542
443,3760.1299999999997,0.08662005974016695
444,3762.87,0.09026293049559642
445,3765.6099999999997,0.07629633125102586
446,3768.36,0.0748202756588474
447,3771.1,0.07385686641427686
448,3773.84,0.08566415716970632
449,3776.59,0.08325815157752785
450,3779.3300000000004,0.0896750323329573
451,3782.07,0.08604007308838676
452,3784.81,0.09306774384381622
453,3787.56,0.09581173825163776
454,3790.2999999999997,0.08579340900706721
455,3793.04,0.08722180976249666
456,3795.79,0.07547322417031821
457,3798.5299999999997,0.06951342492574766
458,3801.27,0.06594147568117711
459,3801.8939600000003,0.0689494063256531
460,3804.02,0.07920067133678074
461,3806.76,0.09465568056981313
462,3809.5,0.0936321298028455
463,3812.25,0.09247020323015902
464,3814.99,0.09608051246319141
465,3817.7299999999996,0.09275580169622379
466,3820.4700000000003,0.10116944092925617
467,3823.22,0.0957479643565697
468,3825.96,0.08458980358960207
469,3828.7,0.08174185282263445
470,3831.4500000000003,0.07966580624994796
471,3834.19,0.07558845548298035
472,3836.93,0.06764954471601273
473,3839.68,0.07416744814332625
474,3842.4199999999996,0.08003162737635863
475,3845.1600000000003,0.08640411660939101
476,3847.91,0.10168924003670454
477,3850.65,0.10680083926973691
478,3853.39,0.0998352485027693
479,3856.1299999999997,0.10653088773580167
480,3858.88,0.10646040116311518
481,3861.62,0.09810385039614758
482,3864.36,0.10277019962917995
483,3867.11,0.10973321305649347
484,3869.8500000000004,0.10789404228952586
485,3872.59,0.09549864152255823
486,3875.3399999999997,0.10156331494987175
487,3878.08,0.08974319418290415
488,3880.8199999999997,0.08821922341593652
489,3883.57,0.08721887684325004
490,3886.31,0.08423301607628242
491,3889.05,0.0855933753093148
492,3891.8,0.09106702873662832
493,3894.5400000000004,0.07354521796966071
494,3897.28,0.09392173720269308
495,3900.02,0.09445856643572546
496,3902.77,0.09272134986303898
497,3905.5099999999998,0.10269140909607136
498,3908.25,0.10711345832910375
499,3911.0,0.10750005175641728
500,3913.74,0.10900228098944964
501,3916.48,0.10195000022248203
502,3919.23,0.10053981364979556
503,3921.9700000000003,0.09869668288282793
504,3924.71,0.09208570211586031
505,3927.46,0.08880387554317383
506,3930.2,0.08298097477620621
507,3932.9399999999996,0.07542035400923859
508,3935.68,0.08091019324227097
509,3938.43,0.08392509666958449
510,3941.17,0.09216137590261687
511,3943.91,0.09297797513564925
512,3946.6600000000003,0.08946760856296276
513,3949.4,0.09423243779599516
514,3952.14,0.09802795702902753
515,3954.89,0.10336365045634105
516,3957.6299999999997,0.09082245968937344
517,3960.37,0.08426268892240582
518,3963.12,0.07829751234971935
519,3965.86,0.07930716158275172
520,3968.6,0.07703056081578409
521,3971.3399999999997,0.07247641004881648
522,3974.09,0.08081081347613
523,3976.83,0.09342484270916238
524,3979.57,0.09697210194219477
525,3982.3199999999997,0.09285096536950828
526,3985.0600000000004,0.10417650460254066
527,3987.8,0.10452421383557305
528,3990.5499999999997,0.10074192726288657
529,3993.29,0.10010454649591896
530,3996.0299999999997,0.10284010572895133
531,3998.78,0.09503078915626485
532,4001.52,0.10547761838929724
533,4004.26,0.10601840762232961
534,4007.0,0.100869316855362
535,4009.7500000000005,0.10585826028267552
536,4012.4900000000002,0.11029214951570789
537,4015.23,0.10230990874874028
538,4017.98,0.1087922821760538
539,4020.72,0.11103921140908618
540,4023.46,0.10737564064211856
541,4026.21,0.10773464406943208
542,4028.95,0.10404745330246445
543,4031.69,0.09647897253549684
544,4034.44,0.11591320596281036
545,4037.1800000000003,0.10888853519584274
546,4039.92,0.10968946442887513
547,4042.6600000000003,0.1015614236619075
548,4045.41,0.10276763708922101
549,4048.1499999999996,0.1065670963222534
550,4050.89,0.10226124555528578
551,4053.64,0.1013317689825993
552,4056.38,0.10248330821563169
553,4059.12,0.09842567744866407
554,4061.8700000000003,0.10767812087597758
555,4064.61,0.10630782010900997
556,4067.35,0.10923257934204235
557,4070.1,0.10462669276935586
558,4072.8399999999997,0.10595949200238826
559,4075.58,0.10529059123542063
560,4078.3199999999997,0.09602380046845302
561,4081.07,0.09677689389576653
562,4083.81,0.09533567312879891
563,4086.5499999999997,0.0993281923618313
564,4089.3,0.09279950578914481
565,4092.04,0.09586997502217719
566,4094.78,0.09449180425520957
567,4097.53,0.0919665376825231
568,4100.2699999999995,0.09415435691555549
569,4103.01,0.09754796614858786
570,4105.76,0.09343471957590138
571,4108.5,0.08692617880893376
572,4111.24,0.08818406804196614
573,4113.98,0.09676712727499852
574,4116.7300000000005,0.10129508070231204
575,4119.47,0.09568101993534442
576,4122.21,0.09433435916837679
577,4124.96,0.09903176259569031
578,4127.7,0.1018658118287227
579,4130.4400000000005,0.09845441106175508
580,4133.19,0.10238735448906862
