,lambda (Angstroms),Total Flux (erg/s/cm^2/Angstrom)
0,102.05000000000001,38.40087114745361
1,103.94,38.29199796682092
2,104.712855,38.247477764695056
3,106.12,37.821689910151385
4,108.08999999999999,37.22558782155993
5,110.10000000000001,36.61738213726102
6,113.96999999999998,35.446359252566126
7,117.97999999999999,34.23297378289517
8,120.22644299999999,33.553222836599915
9,121.0,33.35697927090874
10,124.97,32.349830533590165
11,127.0,31.83484012130888
12,127.88000000000001,31.61159304603423
13,130.86,30.855597268399634
14,132.07,30.548632539897
15,133.9,30.08438009926904
16,137.02,29.292867741477114
17,138.038426,29.03450339388206
18,139.89,28.69875125341891
19,143.15,28.107604489687162
20,147.16,27.380457703624497
21,150.94,26.695017591076645
22,155.17,25.92797746513025
23,158.489319,25.326074187632322
24,159.14999999999998,25.235500539028113
25,162.1,24.8310810636952
26,165.88,24.312875769878826
27,170.14000000000001,23.72886662922864
28,172.9,23.350494509934194
29,176.93,22.79801637922532
30,179.79999999999998,22.40456421169822
31,181.88,22.119414208751767
32,181.970086,22.107064197614537
33,186.12,21.673034610690404
34,190.9,21.173105834938408
35,194.0,20.84888424396972
36,198.06,20.424258547411014
37,202.21,19.990219965953674
38,205.01999999999998,19.696328781883068
39,208.929613,19.2874317022294
40,209.79000000000002,19.219779073308775
41,216.17000000000002,18.718116713799276
42,220.19,18.40202224903181
43,223.25,18.161413029582683
44,226.88,17.8759844457297
45,230.04,17.627512179919396
46,233.76999999999998,17.33422054973834
47,239.76999999999998,16.862437766600074
48,239.88329199999998,16.853529564088227
49,245.92,16.487745321447534
50,252.23,16.10540140640927
51,256.92,15.82121868659874
52,259.89000000000004,15.641256495316732
53,264.12,15.384946707664186
54,269.03,15.087433455339221
55,274.03000000000003,14.784466803313485
56,275.42287,14.70006817120368
57,279.12,14.528141723405364
58,284.31,14.286792822004417
59,290.27,14.00963685815737
60,295.65999999999997,13.758987421332105
61,301.16,13.503222689715685
62,308.17,13.177238914059338
63,316.227766,12.802531213413472
64,318.27000000000004,12.731598418182507
65,327.93999999999994,12.395730868858807
66,337.91,12.049443437420956
67,348.17,11.693083453493866
68,357.09999999999997,11.382918283475385
69,363.078055,11.175282848007306
70,366.26,11.092516349505066
71,374.8,10.87037992211103
72,385.3,10.59726136295523
73,395.17999999999995,10.340269809700551
74,405.32,10.076515321559713
75,413.8,9.855939577509947
76,416.86938299999997,9.776100964039312
77,422.46999999999997,9.664851204771706
78,430.32,9.508920064540975
79,441.36,9.289623280862651
80,450.6,9.106081410345986
81,460.04,8.918566770054884
82,469.67,8.727278006775297
83,478.630092,8.54929619312771
84,479.51,8.535853738083905
85,489.55,8.382471506024899
86,499.79999999999995,8.225881094645763
87,505.59,8.137426632721617
88,511.44,8.048055792134905
89,519.75,7.921103033481394
90,529.41,7.773526197835206
91,540.5,7.6041030326911505
92,549.5408739999999,7.465984911642375
93,550.55,7.454224462566807
94,559.49,7.350036901110845
95,569.89,7.22883431787283
96,580.49,7.105300628759314
97,589.9200000000001,6.995402914792024
98,599.51,6.883640184472935
99,610.65,6.753814072921469
100,620.58,6.638089697141929
101,630.66,6.520617052490516
102,630.957344,6.5171517901397875
103,639.43,6.438876058886002
104,649.8199999999999,6.342887606289893
105,657.35,6.273321389156013
106,664.96,6.203016092057283
107,675.76,6.10323918959718
108,685.16,6.016396217339497
109,694.7,5.928264337423571
110,704.36,5.8390189106748664
111,715.8000000000001,5.733334139979942
112,724.43596,5.653551680144181
113,725.76,5.644472055583926
114,734.17,5.586800909227503
115,744.38,5.516789391659203
116,754.74,5.445747805175748
117,765.2299999999999,5.373815235212493
118,775.88,5.300787709286402
119,784.86,5.2392133342323834
120,795.78,5.164333288539012
121,805.0,5.101112358850744
122,814.32,5.037205697335706
123,825.65,4.959521611697574
124,831.763771,4.91758613408439
125,835.21,4.899915913251087
126,844.8799999999999,4.850379279108673
127,854.66,4.8002580570667055
128,864.5600000000001,4.749528775507047
129,874.5699999999999,4.698237741647835
130,884.6999999999999,4.646336651370931
131,894.94,4.5938680692944756
132,905.3,4.540774434900326
133,915.79,4.487157088270344
134,924.26,4.446297912904858
135,934.9599999999999,4.395415963493912
136,945.79,4.3470751003471335
137,954.54,4.309070346973697
138,954.992586,4.306919113046322
139,965.59,4.257720853275163
140,974.53,4.192049928582793
141,985.8100000000001,4.155128253601813
142,994.9399999999999,4.111581187176604
143,1004.14,4.0784012480077205
144,1015.77,4.0197153793083595
145,1025.17,3.9505958551575424
146,1034.65,3.915610245013953
147,1044.23,3.8967329823793992
148,1053.8899999999999,3.8495104037520713
149,1066.09,3.7779375898542034
150,1075.96,3.7399312529958446
151,1085.9099999999999,3.679332570144716
152,1095.96,3.6472003448026187
153,1096.4782,3.6445852881298966
154,1106.1,3.6047760197004632
155,1113.77,3.573127281717595
156,1124.0700000000002,3.526153092053509
157,1134.47,3.502617231907249
158,1144.97,3.4543562412788122
159,1155.5700000000002,3.4182850701681997
160,1166.26,3.3800290816236305
161,1174.34,3.3218021986638435
162,1185.21,3.3047484352513568
163,1196.18,3.2324183913566955
164,1204.47,3.1814037443843395
165,1215.6100000000001,3.118570948669979
166,1224.04,3.121584299022578
167,1235.3600000000001,3.1148127584403014
168,1243.93,3.094605726117854
169,1255.4399999999998,3.045360557619445
170,1258.92541,3.025240867364785
171,1264.1399999999999,3.0012873471486308
172,1275.84,3.0021929458166734
173,1284.68,2.987221869254749
174,1293.58,2.9330218537116366
175,1305.55,2.899428776964326
176,1314.6,2.9083518639682397
177,1323.7199999999998,2.8786921388274322
178,1335.96,2.828525186664769
179,1345.22,2.8323279372345187
180,1354.55,2.8034075756595476
181,1363.9399999999998,2.7616945751033875
182,1376.56,2.736584742726524
183,1386.1000000000001,2.714697944717389
184,1395.71,2.668325134563534
185,1405.3799999999999,2.6502551854284886
186,1415.12,2.6285243241487226
187,1424.93,2.608127350724235
188,1434.81,2.5817771651550268
189,1441.4299999999998,2.575808630897116
190,1445.43977,2.567172075851008
191,1448.09,2.563806646994439
192,1454.77,2.548269493793797
193,1464.8600000000001,2.5157882828964198
194,1475.01,2.498172873916403
195,1485.2299999999998,2.4846268338399726
196,1495.53,2.4711876296533544
197,1505.9,2.4433246943703217
198,1512.8500000000001,2.409497549797798
199,1516.33,2.4173785610046497
200,1523.33,2.399892651363259
201,1533.8899999999999,2.357013688818532
202,1544.52,2.3570487951773904
203,1555.23,2.327192437426062
204,1566.01,2.3113351485783205
205,1573.24,2.3133749796201406
206,1584.14,2.304660794607117
207,1595.1299999999999,2.2917199124701337
208,1606.18,2.267526932250509
209,1613.6000000000001,2.257239636030634
210,1624.7800000000002,2.225276226631956
211,1636.04,2.22087765312309
212,1643.5900000000001,2.2135501277241607
213,1654.99,2.1737676920224667
214,1659.58691,2.1753120987627557
215,1666.4599999999998,2.1818289649637963
216,1670.3000000000002,2.150146554693778
217,1678.01,2.1708724012610077
218,1685.76,2.175208303971258
219,1693.54,2.150527373788774
220,1705.2800000000002,2.126883701765333
221,1713.1499999999999,2.1065685729046453
222,1725.02,2.091966258346022
223,1736.98,2.096024045109195
224,1744.9999999999998,2.081965551784835
225,1753.05,2.09313782556774
226,1765.2,2.0537041040102606
227,1773.35,2.0545267681507173
228,1785.64,2.0458049930938107
229,1793.8899999999999,2.057725447591819
230,1806.32,2.041437019035485
231,1814.6599999999999,2.00986077485529
232,1823.03,2.00791489778236
233,1835.67,1.9819161389768838
234,1844.1399999999999,1.9485543522615054
235,1856.93,1.935585128992357
236,1865.5,1.9356959326345304
237,1874.11,1.9520126924197245
238,1887.1,1.9118850498656794
239,1895.81,1.8902238000084248
240,1904.56,1.899350106294191
241,1905.46072,1.8973043203691464
242,1913.3500000000001,1.8824021517398357
243,1926.61,1.867041570479039
244,1935.51,1.8695482590747332
245,1944.44,1.878780485721874
246,1953.4199999999998,1.8522721757880916
247,1966.96,1.8722967496741254
248,1976.04,1.875532966578497
249,1985.16,1.84905583421813
250,1994.32,1.8337123525930246
251,2003.52,1.8373198217031808
252,2012.7700000000002,1.8201031542324135
253,2026.73,1.824979860838694
254,2036.0800000000002,1.8006458202060807
255,2045.48,1.8088166429925447
256,2054.92,1.7868016165142702
257,2064.4,1.782869740771257
258,2073.93,1.8006926284473213
259,2078.71,1.7784005913110759
260,2083.51,1.7887606795424613
261,2093.12,1.7615233686890488
262,2102.79,1.758522033938528
263,2117.36,1.7505007142575468
264,2127.13,1.7505066063451797
265,2136.95,1.7164417618518901
266,2146.82,1.718717980777677
267,2156.73,1.7260999504387255
268,2166.68,1.707146770835036
269,2176.68,1.6966565546504229
270,2186.73,1.6833139018848868
271,2187.7616199999998,1.6845836735569903
272,2196.8199999999997,1.6988059266545066
273,2206.96,1.6838158151897664
274,2217.15,1.6615751278302295
275,2227.38,1.6452564597548558
276,2232.52,1.6709774377697704
277,2242.82,1.6493900034416813
278,2253.17,1.6319477932187958
279,2263.57,1.6359735071011134
280,2274.02,1.6432230450886347
281,2284.52,1.6489424071813594
282,2295.06,1.621847788558247
283,2305.66,1.6183918988613786
284,2316.3,1.5975598284486727
285,2326.99,1.5116288821411707
286,2332.36,1.5678868710400211
287,2343.12,1.551501658479804
288,2353.94,1.5752683748458307
289,2364.8,1.54091921049602
290,2375.7200000000003,1.5479121750724536
291,2386.68,1.5159894589330505
292,2397.7000000000003,1.5355066717198909
293,2403.23,1.5187572377553928
294,2414.32,1.522101384289518
295,2425.46,1.537426854928847
296,2436.66,1.51603915449442
297,2442.28,1.5367387639192875
298,2453.5499999999997,1.5249441972321458
299,2464.87,1.5181043546502073
300,2476.25,1.4992773409945124
301,2487.68,1.5073700514440216
302,2493.42,1.4815645187213775
303,2504.9300000000003,1.5184714677392117
304,2510.7000000000003,1.47444884947969
305,2511.88643,1.4762820972195878
306,2516.4900000000002,1.484228074145308
307,2522.29,1.4644226981776884
308,2533.93,1.4643360002012937
309,2545.6299999999997,1.454426383163165
310,2557.38,1.4767021335735908
311,2563.2700000000004,1.4684844790133702
312,2575.1000000000004,1.4879140373414845
313,2586.9900000000002,1.4818589766078647
314,2592.95,1.4766367164756216
315,2604.92,1.4587511636596895
316,2616.9500000000003,1.4504701917820237
317,2622.9799999999996,1.4668257260777575
318,2635.09,1.4717852621177794
319,2647.25,1.5030248656063567
320,2653.35,1.5072480943300675
321,2665.6000000000004,1.4664845192260434
322,2677.8999999999996,1.4814074115705749
323,2684.08,1.4794823482119734
324,2696.46,1.4565854484741925
325,2702.6800000000003,1.466425739074435
326,2715.16,1.4435859742337644
327,2727.69,1.4395356768416483
328,2733.9799999999996,1.4614356618698685
329,2746.6000000000004,1.400513085885151
330,2752.9300000000003,1.407264224872215
331,2765.63,1.417945056805186
332,2772.0099999999998,1.4372619632408048
333,2784.81,1.4140213300708862
334,2797.6600000000003,1.323494064349522
335,2804.11,1.3507592652131177
336,2817.0499999999997,1.4242025208991533
337,2823.55,1.4385395892113035
338,2836.5800000000004,1.415526666304738
339,2843.12,1.4048128885757327
340,2856.24,1.3896635870765661
341,2862.8199999999997,1.4225052633064048
342,2876.0400000000004,1.4132105967043476
343,2882.67,1.4150448403827416
344,2884.0315,1.4139555334682017
345,2895.98,1.4062513542938198
346,2909.34,1.4402362365303616
347,2929.51,1.4222611737841826
348,2949.81,1.412459474937012
349,2970.26,1.4175690728963897
350,2990.85,1.4159089012085453
351,3011.58,1.419918959873479
352,3032.46,1.4169211153449606
353,3053.48,1.4124518011692204
354,3067.57,1.4133369345309625
355,3088.84,1.4132239816994692
356,3110.25,1.407228359220754
357,3131.81,1.3982561335485864
358,3153.5099999999998,1.3996036382291974
359,3168.07,1.3975449949181233
360,3190.0299999999997,1.372107127396751
361,3212.14,1.3837417566819261
362,3226.9700000000003,1.3651490076226382
363,3249.34,1.38301716470583
364,3271.8599999999997,1.3923495185955703
365,3286.96,1.3902839637880688
366,3309.75,1.385574111929595
367,3311.31121,1.3856902134947497
368,3325.02,1.3882025891909904
369,3332.6899999999996,1.3880137306941744
370,3340.37,1.3576483276621603
371,3348.07,1.4040271355597502
372,3355.79,1.3712700543869443
373,3363.53,1.3428843841437426
374,3371.2799999999997,1.339528969365343
375,3379.05,1.380247865516547
376,3386.8399999999997,1.380029372597356
377,3394.65,1.3864088906077687
378,3402.4700000000003,1.4063427640829835
379,3410.32,1.3599193039526045
380,3418.1800000000003,1.3709728992870274
381,3426.0600000000004,1.3855914055510545
382,3433.9599999999996,1.4057290227446861
383,3441.8700000000003,1.3834848954031194
384,3449.81,1.371629034455959
385,3457.7599999999998,1.3615446289736006
386,3465.73,1.346689634420846
387,3473.7200000000003,1.382662650797696
388,3481.73,1.3558175781041502
389,3489.75,1.3839153608754062
390,3497.7999999999997,1.3618581100410685
391,3505.86,1.3716308146715328
392,3513.94,1.3580119302316014
393,3522.04,1.3848201567212741
394,3530.16,1.3591381941405507
395,3538.2999999999997,1.3844379424894315
396,3546.46,1.3929881017679167
397,3554.6299999999997,1.3981267165112037
398,3562.8300000000004,1.3890810976488968
399,3571.04,1.3561212342513922
400,3579.27,1.3391237817834916
401,3587.52,1.3111438402451951
402,3594.1299999999997,1.62306970247936
403,3596.7599999999998,1.2242694897223032
404,3599.3999999999996,1.1519654324300483
405,3602.0400000000004,1.5096742751377934
406,3604.6699999999996,2.0865073623807366
407,3607.3100000000004,1.3489473050884817
408,3609.9500000000003,0.9835739477962269
409,3612.59,0.3284118905039719
410,3615.2200000000003,0.764068077746915
411,3617.86,1.69201022045466
412,3620.5,1.1491873631624054
413,3623.13,0.9694044504053485
414,3625.77,0.7944695931130935
415,3628.4100000000003,1.7314532358208385
416,3631.04,1.5192866230637818
417,3633.6800000000003,1.6301605657715268
418,3636.32,1.068869008479272
419,3638.96,1.8415782511870173
420,3641.59,1.7821827384299604
421,3644.23,0.8720312811377053
422,3646.87,1.4884126238454507
423,3649.5,0.6802301610883937
424,3652.14,0.8079716537961389
425,3654.78,1.904086596503884
426,3657.42,1.5660573392116293
427,3660.05,1.108283526454572
428,3662.69,1.7505697691623174
429,3665.33,0.4339387118700624
430,3667.96,1.4226366991130055
431,3670.6,0.8550216418207507
432,3673.24,1.080337184528496
433,3675.88,1.149246627236241
434,3678.5099999999998,1.486229414479184
435,3681.15,1.083812957186929
436,3683.79,1.0050972998946743
437,3686.42,1.3617760871376174
438,3689.06,1.1711412298453627
439,3691.7,1.2087209725531078
440,3694.3399999999997,2.125867815260853
441,3696.97,0.712182902503796
442,3699.6099999999997,1.473967245211541
443,3702.2500000000005,1.082416987919286
444,3704.8799999999997,1.2886293751622293
445,3707.5200000000004,1.3941665178699743
446,3710.1600000000003,0.8912772605777195
447,3712.8,1.8612120032854647
448,3715.4300000000003,1.3396289905284078
449,3718.07,1.596438333236153
450,3720.71,0.9113966759438981
451,3723.34,1.028503263186841
452,3725.98,2.0491635058945863
453,3728.6200000000003,2.1700183486023312
454,3731.25,3.6627848358452746
455,3733.8900000000003,2.7113676785530196
456,3736.53,1.9224365212607646
457,3739.17,1.4880761639685098
458,3741.8,1.573463651211453
459,3744.44,1.9843866939191983
460,3747.08,1.4260518366269435
461,3749.71,1.5617740238698863
462,3752.35,1.3544371665776316
463,3754.9900000000002,0.9475559092853767
464,3757.63,2.4579025519931217
465,3760.26,1.7667720392360646
466,3762.9,2.0252708819438103
467,3765.54,1.6273457246515552
468,3768.17,1.2713931118944983
469,3770.81,0.8718638546022435
470,3773.45,1.4995141973099886
471,3776.0899999999997,1.3600587400177337
472,3778.72,1.546000127260677
473,3781.36,1.373371769968422
474,3784.0,1.6469589126761672
475,3786.63,2.1843613999191103
476,3789.27,1.0710004426268553
477,3791.91,1.3875513853346004
478,3794.5499999999997,1.4260905280423457
479,3797.18,1.3658874152852887
480,3799.8199999999997,0.874857557993034
481,3801.8939600000003,1.2518763380985276
482,3802.4599999999996,1.3548184156283551
483,3805.0899999999997,1.190231022289581
484,3807.7299999999996,1.3927623514095948
485,3810.3700000000003,1.5945253805296087
486,3813.01,1.6700097096496225
487,3815.6400000000003,2.3621499163108486
488,3818.28,1.7347142454308622
489,3820.92,1.5830985745508763
490,3823.55,1.3943619812121022
491,3826.19,1.047013110332116
492,3828.83,1.3831553394521299
493,3831.46,1.8312236461133558
494,3834.1,1.3777523752333698
495,3836.7400000000002,1.1938856043533836
496,3839.38,0.8927871334733974
497,3842.01,1.2726420401346235
498,3844.65,1.0540670692546374
499,3847.29,1.6514034983746513
500,3849.92,2.074746705035877
501,3852.56,1.4270398341558912
502,3855.2,1.8561723632759048
503,3857.84,1.4529982923959188
504,3860.47,1.8371018990571448
505,3863.11,2.0084172281771586
506,3865.75,1.7729865572971726
507,3868.38,1.5880517639583984
508,3871.02,1.8020630930784123
509,3873.66,1.8376944221984262
510,3876.2999999999997,2.0650257513184402
511,3878.93,1.7772349579796662
512,3881.5699999999997,1.83782228709968
513,3884.21,1.153181916219694
514,3886.8399999999997,1.33993852288092
515,3889.48,1.2070973520009338
516,3892.12,0.8961811811209477
517,3894.7599999999998,1.4989348102409616
518,3897.39,1.7831370169021876
519,3900.0299999999997,1.3493623460222013
520,3902.6699999999996,1.8190766751422152
521,3905.2999999999997,1.6731888818034413
522,3907.9399999999996,2.104586210923455
523,3910.5800000000004,1.7179985400434687
524,3913.2200000000003,2.262733869163483
525,3915.8500000000004,1.6283210758247089
526,3918.4900000000002,1.5205509049447228
527,3921.13,1.5801017340647365
528,3923.76,1.9657029407259623
529,3926.4,2.0581962698459764
530,3929.04,1.8380845989659902
531,3931.6800000000003,1.595858928086004
532,3934.31,1.52053843474723
533,3936.9500000000003,1.4690155638672437
534,3939.59,1.6843307929872577
535,3942.2200000000003,1.6445639996484838
536,3944.86,1.5756103287684975
537,3947.5,1.6601946578885116
538,3950.13,1.7231318645497375
539,3952.77,1.6587851936697513
540,3955.41,1.6370555227897654
541,3958.05,2.094137851909779
542,3960.68,1.8170200585710052
543,3963.32,1.8714643876910189
544,3965.96,1.8286187168110328
545,3968.59,1.2962165234722587
546,3971.23,1.3876735525922728
547,3973.87,1.1207604817122865
548,3976.5099999999998,1.0573362108323003
549,3979.14,1.3740566174935265
550,3981.7799999999997,1.5978964466135404
551,3984.42,1.791787775733554
552,3987.0499999999997,1.8786069823947802
553,3989.69,1.798518311514794
554,3992.33,1.767689640634808
555,3994.97,1.6695559697548217
556,3997.6,1.7532641764160477
557,4000.24,1.6823905055360617
558,4002.8799999999997,1.7035858346560755
559,4005.5099999999998,1.8075670413173013
560,4008.1499999999996,1.8226193704373153
561,4010.79,1.5309406995573291
562,4013.43,1.771750028677343
563,4016.0600000000004,1.789574235338569
564,4018.7000000000003,2.1084385644585826
565,4021.3399999999997,2.202543893578597
566,4023.9700000000003,2.2584181002398225
567,4026.61,2.3917234293598364
568,4029.25,2.0669107584798505
569,4031.8900000000003,1.888419087599864
570,4034.52,1.9618002942610904
571,4037.1600000000003,2.253327623381104
572,4039.8,1.990866952501118
573,4042.4300000000003,1.9998231591623439
574,4045.07,2.251613488282358
575,4047.71,2.213872817402372
576,4050.34,2.1782540240635977
577,4052.98,1.7981153531836116
578,4055.62,1.9315356823036256
579,4058.26,2.0658400114236395
580,4060.89,2.2289872180848653
581,4063.53,2.219197547204879
582,4066.17,1.967180876324893
583,4068.8,2.083986082986119
584,4071.44,2.345758412106133
585,4074.08,2.1433837412261467
586,4076.72,2.0346530703461605
587,4079.35,1.8378552770073866
588,4081.99,1.8836996061274005
589,4084.63,1.8276849352474143
590,4087.2599999999998,1.8487731419086404
591,4089.9,1.948253471028654
592,4092.54,1.766881800148668
593,4095.18,2.2056881292686823
594,4097.81,1.5988413359299076
