,lambda (Angstroms),Total Flux (erg/s/cm^2/Angstrom)
0,100.00999999999999,39.21796541292776
1,102.10000000000001,39.095384632681466
2,104.0,38.98394755973033
3,104.712855,38.94213783623637
4,105.93,38.56715298311253
5,107.89999999999999,37.96022434219149
6,109.91000000000001,37.34097227708975
7,114.03,36.07165958643348
8,118.04,34.836236312276355
9,120.22644299999999,34.16262469886564
10,121.07,33.94473608891082
11,125.03999999999999,32.919295269232116
12,127.07,32.39495147478917
13,127.95,32.167649731387364
14,130.93,31.39792337304902
15,132.14,31.08538347587917
16,133.98,30.610116194229004
17,137.1,29.80422819492745
18,138.038426,29.56183516556049
19,139.97,29.205214869686646
20,142.9,28.664258392507588
21,146.9,27.92575125673425
22,151.02,27.165088906653658
23,154.89,26.45058325280578
24,158.489319,25.786052561672083
25,158.86999999999998,25.732916637928923
26,161.82,25.32115199780476
27,165.97,24.741889877239206
28,169.84,24.201710502631283
29,173.0,23.76063380424012
30,177.03,23.19812143315595
31,179.89999999999998,22.79752329353542
32,181.970086,22.508578136694336
33,181.98,22.507522423041358
34,185.79999999999998,22.100741492635933
35,191.0,21.547008289870988
36,194.1,21.21689811247272
37,198.17000000000002,20.783495396864573
38,201.85000000000002,20.39162267373779
39,205.13,20.04234481176887
40,208.929613,19.637734841970257
41,209.91,19.559246464088343
42,215.79000000000002,19.08850210380693
43,219.79999999999998,18.767467261363258
44,222.86,18.522488055220542
45,227.00000000000003,18.19104560543312
46,230.16,17.938060644185967
47,233.9,17.638641819092417
48,239.88329199999998,17.159628275306858
49,239.9,17.158597495318446
50,246.06,16.778563535692744
51,251.79,16.42505803778745
52,257.06,16.099931438485736
53,260.04,15.916084064492996
54,264.26,15.65573626017568
55,269.18,15.35220275529576
56,274.18,15.04373375471503
57,275.42287,14.967056381647389
58,279.28000000000003,14.784431959911025
59,283.81,14.56994907118669
60,289.76,14.28823300679227
61,295.83000000000004,14.00083543939414
62,301.32,13.740899103551119
63,308.34,13.408521757287525
64,316.227766,13.035058228864367
65,317.71,12.982640971932875
66,328.12,12.614504895589572
67,338.09,12.261928902657056
68,348.37,11.898390182887395
69,357.29999999999995,11.582592621129015
70,363.078055,11.378259538690182
71,365.61999999999995,11.31093971107198
72,375.0,11.062523399109935
73,384.62,10.807750801112208
74,395.4,10.522257926105668
75,404.60999999999996,10.278344286839737
76,414.03000000000003,10.02886881568608
77,416.86938299999997,9.953671738073039
78,421.73,9.855368211184748
79,429.57,9.696808204688999
80,440.59000000000003,9.473934671807191
81,450.85,9.26643147894482
82,460.29,9.075512236469734
83,469.93,8.88054843670848
84,478.630092,8.704593978132419
85,479.77,8.686863384186879
86,489.82,8.530540925902848
87,500.08,8.370953035216584
88,505.87,8.280895813313576
89,511.72,8.189925575314213
90,520.04,8.060514834970013
91,529.7099999999999,7.910106312952881
92,539.5500000000001,7.757049771911083
93,549.5408739999999,7.601665126791846
94,549.59,7.6010823021184954
95,559.8000000000001,7.479949842412586
96,570.21,7.356441621675491
97,579.48,7.246446439922145
98,590.25,7.118677325034921
99,599.84,7.00489194660368
100,609.59,6.88922757818349
101,619.49,6.771790712079916
102,629.56,6.6523244649818345
103,630.957344,6.635745655800793
104,639.79,6.552672549975025
105,650.1800000000001,6.454976563151094
106,657.7099999999999,6.3841680400086345
107,665.3299999999999,6.31251777075172
108,674.58,6.225527297244177
109,685.5400000000001,6.1224374988620545
110,695.08,6.03280272093017
111,704.75,5.941831146121855
112,716.2,5.8342379133054925
113,724.43596,5.756798265170136
114,726.16,5.744767055747779
115,734.5699999999999,5.686083861067264
116,744.7900000000001,5.614816755802
117,755.15,5.542544126952281
118,765.66,5.4692238474049315
119,774.52,5.407458486731523
120,785.3000000000001,5.332287777928437
121,794.39,5.268888480751995
122,805.44,5.191807694193172
123,814.77,5.126733232500519
124,824.1999999999999,5.061038257676114
125,831.763771,5.00810322828391
126,835.6700000000001,4.9876530718001675
127,845.35,4.93745953033252
128,855.1400000000001,4.886452636098194
129,865.04,4.834938091097192
130,875.05,4.78285927232951
131,885.19,4.730136807746664
132,895.4399999999999,4.676795103397141
133,905.81,4.6227421387566965
134,914.19,4.580357781440695
135,924.77,4.547038482791138
136,935.48,4.522883410326417
137,944.14,4.5334846203316
138,954.992586,4.524211134249457
139,955.0699999999999,4.524153711829466
140,963.9100000000001,4.511082307908449
141,975.0699999999999,4.297532192415403
142,984.0899999999999,4.4039081638896596
143,995.49,4.351270538923642
144,1004.7,4.376889961648466
145,1013.99,4.314454371215634
146,1025.74,4.107362701184871
147,1035.23,4.143582327857898
148,1044.8,4.256461041373268
149,1054.47,4.208569313441568
150,1064.23,4.099917308207505
151,1074.08,4.1032889256710785
152,1084.01,3.9939451299769964
153,1094.04,4.023310492835843
154,1096.4782,4.008788044455407
155,1104.17,3.9700930053915267
156,1114.3799999999999,3.923069474268557
157,1124.7,3.8520968458465132
158,1135.1,3.8831735466615096
159,1145.61,3.8085952501774334
160,1156.21,3.788832174085025
161,1164.22,3.7731247889434973
162,1174.99,3.6190455624797964
163,1185.86,3.6744421475623934
164,1194.08,3.527918276668092
165,1205.1299999999999,3.408814902534025
166,1216.28,3.269347439946255
167,1224.72,3.3847206744538094
168,1236.05,3.4776880526493774
169,1244.6200000000001,3.4908621721671182
170,1256.13,3.4326559911460226
171,1258.92541,3.4031185515635873
172,1264.8400000000001,3.347722469810409
173,1273.6100000000001,3.429419333981941
174,1285.3899999999999,3.4190349443514574
175,1294.3,3.305275940904291
176,1306.28,3.2659426546756656
177,1315.3300000000002,3.3337680836098005
178,1324.45,3.291671178734587
179,1333.63,3.217928444879931
180,1345.97,3.2564001847746527
181,1355.3000000000002,3.218242278471391
182,1364.69,3.1456374431886873
183,1374.15,3.1406907740966346
184,1383.6799999999998,3.1229385711952333
185,1396.48,3.027227388914231
186,1406.1599999999999,3.0193384135642236
187,1415.9099999999999,3.002701604404867
188,1425.72,2.9849731662660672
189,1435.61,2.9563485894880124
190,1442.2299999999998,2.9638681920895573
191,1445.43977,2.962343013140127
192,1445.56,2.9623940992274838
193,1455.58,2.9309957678002583
194,1465.67,2.8767085075107666
195,1475.83,2.8551780183590094
196,1486.06,2.8430013003449863
197,1496.36,2.8308289534686963
198,1506.73,2.7884499777301404
199,1513.68,2.7281480121194397
200,1517.1699999999998,2.750118673129319
201,1524.18,2.7243900827795335
202,1534.74,2.6515746287005415
203,1545.38,2.668413741636102
204,1556.09,2.622457825709398
205,1563.27,2.615868765265537
206,1574.11,2.623103895737481
207,1585.02,2.620375897347159
208,1596.01,2.6110750659713897
209,1603.38,2.583947227187093
210,1614.49,2.5637519463331535
211,1625.6799999999998,2.5169704324937676
212,1633.1799999999998,2.5301281401081197
213,1644.5000000000002,2.5142905726673814
214,1655.8999999999999,2.455084572241198
215,1659.58691,2.468840142241522
216,1663.55,2.486096406997559
217,1671.23,2.4247668684793227
218,1675.08,2.4722599783367176
219,1686.69,2.4746345826079783
220,1694.4699999999998,2.4346641352548697
221,1706.22,2.400160647157308
222,1714.1000000000001,2.370213090969326
223,1725.98,2.3510502813864305
224,1733.9399999999998,2.3681976581305513
225,1745.96,2.3393143561788325
226,1754.02,2.3585497240880797
227,1766.18,2.29969552976754
228,1774.3300000000002,2.303847959725401
229,1786.6299999999999,2.2933521730360393
230,1794.88,2.310549194159028
231,1803.16,2.295759802631555
232,1815.66,2.2450007982724474
233,1824.0400000000002,2.240880597910101
234,1836.69,2.2050251302986843
235,1845.16,2.1567706919849527
236,1853.68,2.1484312992537853
237,1866.5300000000002,2.1419596139726216
238,1875.1499999999999,2.161271112406582
239,1883.8,2.1151442981900788
240,1896.86,2.0788290243556835
241,1905.46072,2.089675362957115
242,1905.6200000000001,2.08993823962355
243,1914.41,2.0669574627469074
244,1923.25,2.0496246969232987
245,1936.58,2.0441249036621327
246,1945.52,2.0577614599445915
247,1954.5000000000002,2.0210471050694774
248,1968.0500000000002,2.0426125004416607
249,1977.13,2.0443214676726145
250,1986.26,2.009705445956602
251,1995.42,1.9882962908724098
252,2004.63,1.9881419468412518
253,2013.89,1.9666371138631273
254,2023.18,1.9731586475168237
255,2037.21,1.9379083089981322
256,2046.6100000000001,1.9430115869685027
257,2056.06,1.9136018759919073
258,2065.5499999999997,1.907369953857739
259,2075.08,1.9248928205659974
260,2079.86,1.900759837236037
261,2084.6600000000003,1.90952579832729
262,2094.28,1.8752197649310096
263,2103.95,1.8687653425877635
264,2113.66,1.8611837090869443
265,2123.42,1.8580289866391586
266,2133.2200000000003,1.8165349530338002
267,2143.06,1.8161350082708694
268,2152.96,1.8191922967715786
269,2162.89,1.7949048519041084
270,2172.88,1.7793627403002787
271,2182.9100000000003,1.763829117538876
272,2187.7616199999998,1.7676827906602286
273,2192.98,1.7736300795529816
274,2203.11,1.75377072364987
275,2213.27,1.7269969956167395
276,2223.49,1.7069000233235705
277,2233.75,1.7265431548570427
278,2244.06,1.6998280661738165
279,2254.42,1.6777728572738915
280,2264.83,1.6766930281572683
281,2275.28,1.6793324028672865
282,2285.78,1.684021857360606
283,2296.33,1.655878791637227
284,2306.9300000000003,1.6521326056971497
285,2317.58,1.631456699540374
286,2322.93,1.554134136353637
287,2333.65,1.599228461893483
288,2344.42,1.578572767216631
289,2355.2400000000002,1.60154125232308
290,2366.1099999999997,1.5654773172128311
291,2377.03,1.571354061885883
292,2382.5099999999998,1.5414999861357301
293,2393.51,1.5570128384620647
294,2404.56,1.5370364705717015
295,2415.66,1.5371913824646393
296,2426.81,1.5518621741408782
297,2432.4,1.5338950339139885
298,2443.63,1.5480157332435105
299,2454.91,1.5348838123563338
300,2466.2400000000002,1.525671971252458
301,2477.62,1.505810309931885
302,2483.33,1.5137653811849185
303,2494.8,1.4862518034742878
304,2506.31,1.5171978295902981
305,2511.88643,1.4766176303447192
306,2512.09,1.4751737203250208
307,2517.88,1.4801192382426682
308,2523.69,1.461452991109945
309,2535.33,1.459813731794128
310,2547.04,1.451627294802013
311,2552.91,1.4738674525181772
312,2564.69,1.4606552378497641
313,2576.53,1.4762278280302386
314,2582.4700000000003,1.4714939080701053
315,2594.39,1.4620257380490969
316,2606.3599999999997,1.4436076554021613
317,2612.37,1.4359599577657296
318,2624.43,1.448414432392125
319,2636.54,1.4532480943925936
320,2642.62,1.4852370190798645
321,2654.82,1.487773838353664
322,2667.07,1.4468989450015368
323,2673.2200000000003,1.4615544920125099
324,2685.56,1.4582880559337141
325,2697.9599999999996,1.4319487247038056
326,2704.18,1.4411118940384808
327,2716.6600000000003,1.4150269026070887
328,2722.9199999999996,1.4111562418410224
329,2735.49,1.426018707682962
330,2748.12,1.3680904783737893
331,2754.45,1.3741847399314249
332,2767.17,1.3838311678955832
333,2773.54,1.4002116993524771
334,2786.3500000000004,1.3730710845899667
335,2792.77,1.2910842034209338
336,2805.66,1.3101347284569402
337,2812.13,1.38292923466198
338,2825.11,1.393952616971318
339,2838.1499999999996,1.3735048041295435
340,2844.69,1.3595862326582848
341,2857.8199999999997,1.339746077089842
342,2864.41,1.3719240929926568
343,2877.63,1.3671908946975444
344,2884.0315,1.3654602552574195
345,2884.26,1.3654346102197903
346,2897.5800000000004,1.3593205042776264
347,2910.95,1.3912070915564008
348,2931.13,1.3697326555269065
349,2951.45,1.3568250005160385
350,2971.91,1.3594497265237961
351,2992.5099999999998,1.3548714335501797
352,3013.25,1.355211821595189
353,3027.16,1.3525677356600916
354,3048.14,1.3479681911656027
355,3069.27,1.3446032263339271
356,3090.54,1.3425088425208775
357,3111.97,1.3378574370148293
358,3133.5400000000004,1.3254859125274063
359,3148.0000000000005,1.3240401520226248
360,3169.8199999999997,1.3218839936398918
361,3191.8,1.292823413564159
362,3206.53,1.305265116452442
363,3228.7599999999998,1.2812387024813987
364,3251.1400000000003,1.3021360681731686
365,3273.67,1.3135144135277521
366,3288.78,1.306682564895163
367,3311.31121,1.2992134774246842
368,3311.58,1.2991541768070072
369,3319.21,1.2924711490292862
370,3326.8599999999997,1.3022306361197757
371,3334.53,1.3164873380784756
372,3342.2200000000003,1.2846792549053858
373,3349.93,1.3098111866005069
374,3357.6499999999996,1.297340625729733
375,3365.39,1.2530201797271694
376,3373.1499999999996,1.2452636485928164
377,3380.92,1.2757109248925682
378,3388.7200000000003,1.2966386234946357
379,3396.5299999999997,1.273185029530809
380,3404.36,1.2913505504351923
381,3412.2000000000003,1.269292378773681
382,3420.07,1.287457729414485
383,3427.96,1.2876218949234999
384,3435.86,1.2935173678666196
385,3443.78,1.2519765556779499
386,3451.72,1.2953711583574907
387,3459.67,1.2671678684711365
388,3467.65,1.2644996008870981
389,3475.64,1.2702121407371652
390,3483.6499999999996,1.2675388954554423
391,3491.69,1.271905872476035
392,3499.7400000000002,1.2358586569307333
393,3507.7999999999997,1.2670838488195366
394,3515.89,1.2401708630106554
395,3523.9900000000002,1.2633063846358796
396,3532.1200000000003,1.2728762285634194
397,3540.26,1.2812007799250646
398,3548.42,1.29722164615492
399,3556.6,1.2744735272529861
400,3564.8,1.2784695232192622
401,3568.81,1.2218576042954536
402,3571.5099999999998,1.3198265115038617
403,3574.21,1.1961676187122696
404,3576.91,1.0862318259206778
405,3579.6099999999997,1.4230340331290858
406,3582.3100000000004,1.1707489403374938
407,3585.01,1.0688989475459016
408,3587.71,1.12918185475431
409,3590.41,1.226482961962718
410,3593.11,1.235995969171126
411,3595.81,1.074629676379534
412,3598.5099999999998,1.0414301835879423
413,3601.21,1.2326229907963502
414,3603.9100000000003,1.2583149980047583
415,3606.61,1.1258881052131662
416,3609.31,1.2006049124215745
417,3612.0099999999998,1.2465114196299825
418,3614.71,1.1700894268383908
419,3617.41,1.3336641340467987
420,3620.11,1.3598514412552065
421,3622.8100000000004,1.3688907484636146
422,3625.51,1.3399423556720227
423,3628.21,1.3296503628804308
424,3630.91,1.3860986700888391
425,3633.6099999999997,1.3047358772972468
426,3636.31,1.2355809845056551
427,3639.0099999999998,1.258142091714063
428,3641.71,1.1681837989224713
429,3644.4100000000003,1.300873006130879
430,3647.11,1.2860280133392872
431,3649.81,1.1399069205476953
432,3652.5099999999998,1.1326453277561035
433,3655.21,1.1615831349645114
434,3657.91,1.3526180421729195
435,3660.61,1.3067296493813276
436,3663.3100000000004,1.2356429565897353
437,3666.01,1.2587211637981437
438,3668.71,1.3169287710065518
439,3671.41,1.26811767821496
440,3674.1099999999997,1.241323585423368
441,3676.81,1.1998586926317758
442,3679.5099999999998,1.2272094998401841
443,3682.21,1.221376807048592
444,3684.9100000000003,1.206460114257
445,3687.61,1.1679753214654083
446,3690.31,1.2181546286738163
447,3693.0099999999998,1.2246301358822245
448,3695.71,1.2087368430906325
449,3698.41,1.3676367502990403
450,3701.11,1.3072642575074485
451,3703.81,1.3985692647158565
452,3706.51,1.2200688719242643
453,3709.21,1.1295863791326726
454,3711.91,1.2603582863410807
455,3714.6099999999997,1.2709268935494888
456,3717.31,1.2938471007578967
457,3720.01,1.4281736079663048
458,3722.71,1.555412315174713
459,3725.4100000000003,1.549874122383121
460,3728.11,1.7761394295915292
461,3730.81,1.668630436799937
462,3733.5099999999998,1.4779654440083452
463,3736.21,1.3565255512167531
464,3738.91,1.2793422584251615
465,3741.61,1.2916487656335693
466,3744.31,1.3168596728419772
467,3747.01,1.2529324800503852
468,3749.71,1.2269785872587935
469,3752.41,1.1524163944672017
470,3755.1099999999997,1.2481304016756096
471,3757.81,1.4299163088840177
472,3760.51,1.5170133160924255
473,3763.21,1.4222867233008336
474,3765.9100000000003,1.3050836305092417
475,3768.61,1.2589581377176498
476,3771.31,1.263652844926058
477,3774.0099999999998,1.4806329521344659
478,3776.7099999999996,1.388132559342874
479,3779.4100000000003,1.546393366551282
480,3782.11,1.54437377375969
481,3784.81,1.6012385809680982
482,3787.51,1.5268342881765062
483,3790.21,1.4803642953849145
484,3792.91,1.3640946025933225
485,3795.6099999999997,1.4465956098017305
486,3798.31,1.2366998170101384
487,3801.01,1.2637060242185465
488,3801.8939600000003,1.3006751326555703
489,3803.71,1.3767676504069364
490,3806.41,1.484541407181406
491,3809.11,1.5477926639558757
492,3811.81,1.4826474207303453
493,3814.5099999999998,1.515451177504815
494,3817.2099999999996,1.5366936342792847
495,3819.9100000000003,1.6397995910537542
496,3822.61,1.5696994478282238
497,3825.31,1.5945323046026938
498,3828.01,1.3948145613771632
499,3830.71,1.2672373181516332
500,3833.41,1.2702758749261025
501,3836.1099999999997,1.2556058317005725
502,3838.81,1.257962088475042
503,3841.51,1.3823239452495115
504,3844.21,1.4962735020239815
505,3846.91,1.5483942587984512
506,3849.61,1.6482690155729207
507,3852.31,1.6672848723473903
508,3855.0099999999998,1.7196217291218603
509,3857.7099999999996,1.6075835858963297
510,3860.4100000000003,1.6108024426707992
511,3863.11,1.6487762994452693
512,3865.81,1.751954156219739
513,3868.51,1.6987290129942083
514,3871.21,1.642846869768678
515,3873.91,1.6661007265431478
516,3876.6099999999997,1.5539909833176173
517,3879.3100000000004,1.548735440092087
518,3882.01,1.4410782968665568
519,3884.71,1.3016093536410263
520,3887.41,1.3014523104154962
521,3890.11,1.2467696671899657
522,3892.81,1.2825392239644353
523,3895.5099999999998,1.407834680738905
524,3898.2099999999996,1.4960761375133749
525,3900.9100000000003,1.5563112942878443
526,3903.61,1.614321151062314
527,3906.31,1.617180007836784
528,3909.0099999999998,1.6541488646112534
529,3911.71,1.719841721385723
530,3914.41,1.6972795781601926
531,3917.1099999999997,1.6327804349346624
532,3919.8100000000004,1.738471291709132
533,3922.51,1.7094471484836018
534,3925.21,1.6765440052580716
535,3927.91,1.5087821620325412
536,3930.61,1.4154870188070108
537,3933.31,1.3695868755814806
538,3936.0099999999998,1.3622487323559502
539,3938.7100000000005,1.4793577891304197
540,3941.4100000000003,1.5801661459048892
541,3944.11,1.620079002679359
542,3946.81,1.6688968594538287
543,3949.5099999999998,1.6540897162282984
544,3952.21,1.6846675730027683
545,3954.91,1.676755429777238
546,3957.6099999999997,1.5864762865517077
547,3960.3100000000004,1.4781011433261773
548,3963.01,1.3781996001006467
549,3965.71,1.2203256568751164
550,3968.41,1.134283413649586
551,3971.11,1.1731049704240557
552,3973.81,1.2107559271985255
553,3976.5099999999998,1.3209713839729953
554,3979.21,1.5348808407474648
555,3981.9100000000003,1.5566259975219343
556,3984.61,1.5961078542964042
557,3987.31,1.6462177110708738
558,3990.0099999999998,1.6649475678453438
559,3992.71,1.7177864246198133
560,3995.41,1.7589202813942828
561,3998.11,1.6771141381687524
562,4000.8100000000004,1.7286609949432221
563,4003.51,1.765485851717692
564,4006.21,1.8301017084921616
565,4008.91,1.8850235652666314
566,4011.6099999999997,1.772770422041101
567,4014.31,1.7584662788155705
568,4017.0099999999998,1.8463491355900405
569,4019.71,1.8039679923645098
570,4022.4100000000003,1.7793948491389795
571,4025.11,1.7967597059134492
572,4027.81,1.7899955626879192
573,4030.5099999999998,1.710201419462389
574,4033.21,1.7699342762368584
575,4035.91,1.783277133011328
576,4038.61,1.8126339897857977
577,4041.3100000000004,1.7899288465602672
578,4044.01,1.795444703334737
579,4046.71,1.7292935601092065
580,4049.41,1.7391904168836763
581,4052.1099999999997,1.769911273658146
582,4054.81,1.8218891304326155
583,4057.5099999999998,1.7823079872070853
584,4060.21,1.6798208439815552
585,4062.9100000000003,1.7526227007560244
586,4065.61,1.7472955575304945
587,4068.31,1.7306944143049638
588,4071.0099999999998,1.6692832710794336
589,4073.71,1.6564151278539034
590,4076.41,1.729217984628373
591,4079.11,1.7174268414028426
592,4081.81,1.7286156981773124
593,4084.51,1.645661554951782
594,4087.21,1.6106764117262518
595,4089.91,1.6310572685007214
