,lambda (Angstroms),Total Flux (erg/s/cm^2/Angstrom)
0,100.03,0.4450562045271905
1,101.89,0.4438182065734983
2,104.02,0.4424004829371863
3,104.712855,0.44193932440953154
4,105.96,0.43757889827623464
5,107.93,0.4306911447069601
6,109.92999999999999,0.4236985782392292
7,114.05999999999999,0.40925879080308936
8,118.07,0.39523855948477515
9,120.22644299999999,0.3876997739015069
10,121.1,0.38513945782745085
11,125.06,0.3735317928095759
12,127.10000000000001,0.36755206395236767
13,127.98,0.36497261627872873
14,130.96,0.35623752466661074
15,131.87,0.35357039097583653
16,134.01,0.3472975476975102
17,137.13,0.33815249447442686
18,138.038426,0.3354897168199835
19,140.0,0.3313799449437076
20,142.93,0.325245032901779
21,146.94,0.3168505284328597
22,151.05,0.3082403580677005
23,154.93,0.3001124213559931
24,158.489319,0.29265632459718277
25,158.9,0.29200596787478944
26,161.85999999999999,0.287318496316725
27,166.01000000000002,0.2807467440321076
28,169.88,0.27461836021609093
29,173.04,0.26961428927045455
30,177.07,0.26323259200238025
31,179.94,0.2586878964242232
32,181.970086,0.25547326393118835
33,182.03,0.2554008923753279
34,185.84,0.2507987276174309
35,191.04,0.2445174296388312
36,194.15,0.24076098345689942
37,198.20999999999998,0.23585686922830051
38,201.9,0.23140002588514033
39,205.18,0.2274381723823313
40,208.929613,0.22290792862301104
41,209.96,0.22197206727606872
42,215.84,0.21663529443705126
43,219.85000000000002,0.21299473854278939
44,222.91,0.21021612223228037
45,227.06,0.20644872475851808
46,230.22,0.2036081756355087
47,233.96,0.20027207633599758
48,239.88329199999998,0.19492470577033627
49,239.96,0.19487144311669694
50,246.11,0.19055880992300991
51,251.85,0.1865493901422354
52,257.12,0.18283065183236047
53,260.09999999999997,0.18076849561899674
54,263.71,0.1782488321467674
55,269.24,0.17437704601894802
56,274.24,0.17087591332001553
57,275.42287,0.17004761908469365
58,278.7,0.16828639922343225
59,283.88,0.16550262347361355
60,289.82,0.16230186420297202
61,295.89,0.15904369389324244
62,300.7,0.15645491724698224
63,307.7,0.15269532724992996
64,316.227766,0.14811456593348618
65,317.79,0.147487856472662
66,328.20000000000005,0.14330789849691675
67,338.17,0.13930330285107814
68,347.64000000000004,0.1354990347119516
69,357.38,0.13158687217720055
70,363.078055,0.12929872100363768
71,365.71,0.12850705620992162
72,375.09000000000003,0.12568397479350465
73,384.71,0.12278477447581479
74,394.58,0.11981867862346561
75,404.7,0.11677417223645714
76,414.13,0.11393603855310833
77,416.86938299999997,0.11311135160303253
78,421.83,0.11197032872178693
79,429.66999999999996,0.11016749446362559
80,440.69,0.10763453188799575
81,450.96,0.10527317593629719
82,460.4,0.10310274850708251
83,470.03999999999996,0.10088651853148618
84,478.630092,0.09891232095876001
85,479.88000000000005,0.09869130684724453
86,489.93,0.09691293459177155
87,500.19,0.09509956582707972
88,505.97999999999996,0.09407749743004604
89,511.84,0.0930596693299394
90,520.16,0.09158911729326924
91,529.83,0.08987936244019222
92,539.6800000000001,0.08813494396492766
93,549.5408739999999,0.08640045280356566
94,549.71,0.08637778421597275
95,559.9300000000001,0.08500718970150559
96,570.34,0.08360861302356007
97,579.61,0.08235485182648468
98,590.38,0.08091232292826438
99,599.98,0.07961727632093711
100,609.73,0.07830499276349535
101,619.63,0.0769881683559391
102,629.6999999999999,0.07563509609158645
103,630.957344,0.07546591958155423
104,639.93,0.07450906516068638
105,650.3299999999999,0.07340693818512434
106,657.86,0.07260628039329911
107,665.4799999999999,0.07179980192985849
108,674.74,0.07081380886142535
109,685.7,0.06963881914025612
110,695.24,0.0686492855490194
111,704.91,0.06760628945433816
112,716.3700000000001,0.06641314533530536
113,724.43596,0.06555769113872154
114,726.33,0.06540892025643288
115,734.74,0.0647490719879821
116,744.96,0.0639570393452274
117,755.33,0.06314686725487846
118,765.8299999999999,0.06231924392328117
119,774.6999999999999,0.06164147080887471
120,785.48,0.06080065208843481
121,794.57,0.06009511200422345
122,805.63,0.059232572994940974
123,814.96,0.05850444553457881
124,824.39,0.05778418394248715
125,831.763771,0.05716692779682588
126,835.8599999999999,0.0569060000472379
127,845.5400000000001,0.056404564870676174
128,855.3299999999999,0.055836871780744465
129,865.24,0.05527735767622726
130,875.25,0.054709467459555496
131,885.3900000000001,0.05413984132708279
132,895.6400000000001,0.05355610208124007
133,906.01,0.05294790172081189
134,914.4,0.05264246570104405
135,924.98,0.055256382015091275
136,935.7,0.059124529112122105
137,944.35,0.0661624395607524
138,954.992586,0.07150544817407979
139,955.2900000000001,0.07165514254816119
140,964.13,0.07471981833752457
141,975.2900000000001,0.05333858249694711
142,984.32,0.07150258365282397
143,995.71,0.07117260515065757
144,1004.93,0.07916570967304787
145,1014.23,0.07645560813923333
146,1025.97,0.058272756891170674
147,1035.46,0.0670096847238696
148,1045.04,0.08424305699333806
149,1054.71,0.08295357369957607
150,1064.47,0.0751959348425836
151,1074.32,0.07979463042236068
152,1084.26,0.07239791043890728
153,1094.3,0.07976634538519783
154,1096.4782,0.0793052038482793
155,1104.42,0.07770728079351388
156,1114.6399999999999,0.0761380001541925
157,1124.95,0.07228665926462269
158,1135.36,0.07868815365255463
159,1145.87,0.07473851331798831
160,1153.81,0.07604722235162706
161,1164.49,0.0765899259888137
162,1175.26,0.06540738937575193
163,1186.1399999999999,0.07391471356794208
164,1194.36,0.06324814737858574
165,1205.4099999999999,0.05612500554252885
166,1213.76,0.047875161213924766
167,1225.0,0.05985080440512121
168,1236.3300000000002,0.07061188734606921
169,1244.9,0.07358029462796899
170,1256.42,0.07161325259617031
171,1258.92541,0.07015395472947367
172,1265.1299999999999,0.06662456170189433
173,1273.9,0.0742610522674988
174,1285.6799999999998,0.07530941157910889
175,1294.6,0.06759598849418208
176,1303.57,0.0667301241924115
177,1315.63,0.07323071268969653
178,1324.75,0.07123568473739467
179,1333.93,0.0670863573248803
180,1346.28,0.07181257676447154
181,1355.61,0.07028356570142588
182,1365.0100000000002,0.06636758693479897
183,1374.47,0.06732493870795954
184,1383.99,0.06726443102090761
185,1393.5900000000001,0.06212670738690565
186,1406.48,0.06261807168458428
187,1416.23,0.06356389440005103
188,1426.0500000000002,0.06355757941193653
189,1435.93,0.06305989496360952
190,1442.56,0.06433539961012692
191,1445.43977,0.06453313945667097
192,1445.8899999999999,0.06456865346534658
193,1455.91,0.06339984340458668
194,1466.0,0.06073673065877159
195,1476.16,0.06026312522790128
196,1486.3999999999999,0.06033278101411074
197,1496.7,0.06040446021313001
198,1503.61,0.05862139658839439
199,1510.55,0.055375964670063685
200,1517.52,0.056893434458137895
201,1524.52,0.05587602595261701
202,1535.0900000000001,0.05212906050928048
203,1545.7299999999998,0.05360669238088875
204,1556.45,0.051874505469576754
205,1563.63,0.05233829720248533
206,1574.47,0.053662967116793005
207,1585.38,0.05436938434604545
208,1596.3700000000001,0.05467412279237767
209,1603.7399999999998,0.05365691866585069
210,1614.86,0.053325457839937515
211,1626.05,0.05164405432896914
212,1633.56,0.05295289483233173
213,1644.8799999999999,0.05289374204911797
214,1656.28,0.05066856048298395
215,1659.58691,0.051496673484579106
216,1663.93,0.05261498802761154
217,1671.6100000000001,0.04968257211339136
218,1675.46,0.05256444879701796
219,1683.2,0.05322063072721793
220,1694.86,0.051342041826201355
221,1706.6100000000001,0.05007464469181501
222,1714.49,0.048719571592328675
223,1726.3700000000001,0.04827262478751933
224,1734.3400000000001,0.049550493454663225
225,1746.3600000000001,0.048701811620167575
226,1754.4199999999998,0.049950142053941715
227,1766.5800000000002,0.04754566518975975
228,1774.74,0.04797737203090081
229,1787.04,0.04809367013703254
230,1795.29,0.049342248744803835
231,1803.58,0.048868435915521896
232,1816.08,0.046851796836387474
233,1824.46,0.047027755773735774
234,1837.1100000000001,0.04594566630565174
235,1845.59,0.04380082165036696
236,1854.11,0.04377277555802894
237,1866.96,0.04413657890467877
238,1875.57,0.045495324578970986
239,1884.23,0.04344663345694667
240,1892.9299999999998,0.04240203089786912
241,1905.46072,0.043274977629590025
242,1906.05,0.04331863305438103
243,1914.85,0.04241493636192281
244,1923.69,0.041698554957226144
245,1937.0200000000002,0.04197901460376385
246,1945.9599999999998,0.04300923141847107
247,1954.94,0.04137505352093984
248,1968.5,0.042970516072106495
249,1977.58,0.04333584639397915
250,1982.14,0.04205261919879625
251,1995.8799999999999,0.0412655705448899
252,2005.09,0.041603555551987595
253,2014.3500000000001,0.04087527466878724
254,2023.6499999999999,0.04143456907334844
255,2032.99,0.04031949876567119
256,2047.08,0.04075641887967843
257,2056.53,0.039283075613345445
258,2066.02,0.039434097634774026
259,2075.56,0.04086263376590455
260,2080.34,0.04007557065341019
261,2085.14,0.04074656518479662
262,2094.7599999999998,0.03940797189145025
263,2104.43,0.039399582707805816
264,2114.14,0.03950033881192294
265,2123.9,0.039492559025741995
266,2133.7,0.03798180452732262
267,2143.5499999999997,0.03833495413860518
268,2153.4500000000003,0.038805397859589676
269,2163.39,0.037882726868335735
270,2173.37,0.037604781164843344
271,2183.41,0.03732740839299328
272,2187.7616199999998,0.037616660917497595
273,2193.48,0.0380191754000071
274,2203.61,0.03730045677786202
275,2213.7799999999997,0.036147150224336316
276,2224.0,0.035572163756584826
277,2234.26,0.03673811935745269
278,2244.58,0.03584513306124962
279,2254.94,0.03483747883366591
280,2265.35,0.034990734691856415
281,2275.8,0.03534289261866628
282,2286.31,0.0357521486484052
283,2296.86,0.034448696746763485
284,2307.46,0.034617754930895986
285,2312.78,0.03378277005727192
286,2323.46,0.030374982378643153
287,2334.18,0.03230128676863376
288,2344.9500000000003,0.03146683124439857
289,2355.78,0.03281505382309244
290,2366.65,0.03119539847040567
291,2377.58,0.03162330122064796
292,2383.06,0.03019911462150136
293,2394.06,0.03105049349182754
294,2405.11,0.030405092447927926
295,2416.21,0.030612341489802526
296,2427.36,0.031630750617451325
297,2432.96,0.030953420224162836
298,2444.19,0.03173577348905038
299,2455.47,0.03144115683971214
300,2466.8,0.031106030276148104
301,2472.49,0.030393112037253193
302,2483.9,0.030315819610927885
303,2495.37,0.02915267528753164
304,2506.89,0.031095191049909602
305,2511.88643,0.029209472469019074
306,2512.66,0.028919133606667292
307,2518.46,0.02908580478506572
308,2524.2599999999998,0.02855589596346416
309,2535.9100000000003,0.028806772899385144
310,2547.62,0.02859582333025508
311,2553.49,0.029763426919427287
312,2565.2799999999997,0.029138978676895824
313,2577.12,0.02990111501348848
314,2583.06,0.029582671013434463
315,2594.98,0.029239708676625724
316,2606.96,0.028543559834765933
317,2612.97,0.02820428824548569
318,2625.0299999999997,0.0289346207302245
319,2637.1499999999996,0.029703546709912258
320,2643.2299999999996,0.031216437531405787
321,2655.43,0.03190838483769214
322,2667.68,0.029772976723102623
323,2673.83,0.030487469955369925
324,2686.1800000000003,0.030609970999028655
325,2692.37,0.029358589894595256
326,2704.8,0.029946302264852585
327,2717.28,0.02865830921423404
328,2723.55,0.028424519436399242
329,2736.1200000000003,0.029153286628204118
330,2742.42,0.026709073597843795
331,2755.08,0.027172291032072103
332,2767.8,0.02785086196124935
333,2774.18,0.028470460257487624
334,2786.98,0.027017322513263473
335,2793.41,0.023972225388625874
336,2806.2999999999997,0.024712747886825148
337,2812.77,0.027837056425486846
338,2825.75,0.028902529166109546
339,2832.27,0.028277982283895366
340,2845.34,0.02752004526694149
341,2851.9,0.026322494048026612
342,2865.06,0.028418527273496162
343,2878.29,0.02874299290973948
344,2884.0315,0.028454836456957858
345,2884.92,0.028411838432519237
346,2898.2400000000002,0.028544645816943888
347,2911.62,0.03022399436075784
348,2931.8,0.02919873763535915
349,2952.12,0.028650466948535493
350,2972.59,0.028902079160185085
351,2993.19,0.028798750550511495
352,3007.0099999999998,0.02893886092984698
353,3027.8500000000004,0.02887953695773059
354,3048.8399999999997,0.028910475884087454
355,3069.9700000000003,0.028942650849019348
356,3091.25,0.028882258712424495
357,3112.68,0.029005629474302894
358,3127.05,0.028505997148040293
359,3148.72,0.028399002547475894
360,3170.5499999999997,0.02861059770528296
361,3192.53,0.027383895761563273
362,3207.26,0.028049490391636477
363,3229.49,0.02680215994537221
364,3251.8799999999997,0.028379659257479414
365,3266.89,0.02928709596470269
366,3289.5299999999997,0.0289821267742653
367,3311.31121,0.02864696487497443
368,3312.3399999999997,0.028632428751551114
369,3319.97,0.028479273853443607
370,3327.6299999999997,0.028704677284701337
371,3335.2999999999997,0.029923720159080815
372,3342.9900000000002,0.028301781919703783
373,3350.69,0.0293014931234485
374,3358.4199999999996,0.02909254265655846
375,3366.1600000000003,0.027708281632790155
376,3373.92,0.026197439495265352
377,3381.69,0.027913316800862294
378,3389.49,0.028948292435824474
379,3397.2999999999997,0.0280755075139084
380,3405.14,0.028536730921357563
381,3412.98,0.02814401432880673
382,3420.85,0.028465036065621136
383,3428.7400000000002,0.028452756688679033
384,3436.6400000000003,0.028440566754858676
385,3444.57,0.025821775150403556
386,3452.5099999999998,0.02919840298907019
387,3460.46,0.027602120270858562
388,3468.44,0.02768219588201218
389,3476.44,0.027209830379409286
390,3484.4500000000003,0.02784315431992814
391,3492.48,0.027366567146690488
392,3500.54,0.026631418302818073
393,3508.6,0.02794614945894566
394,3516.69,0.026560908944438483
395,3524.8,0.0273595373161748
396,3532.9300000000003,0.028242224574154613
397,3541.07,0.028717921275256172
398,3549.23,0.029255616862601218
399,3557.41,0.028108061336189764
400,3565.61,0.0290297446960218
401,3573.83,0.02602594694209733
402,3582.07,0.026406168074416345
403,3590.33,0.02433790809297886
404,3598.6099999999997,0.02766175699778487
405,3606.9,0.02681384534571262
406,3607.6000000000004,0.026996946364234865
407,3610.35,0.023138823222715123
408,3613.0899999999997,0.03014743063807363
409,3615.84,0.028781807496553888
410,3618.58,0.026383804911912397
411,3621.33,0.025055581770392653
412,3624.0699999999997,0.025952309185751164
413,3626.81,0.033455516601109674
414,3629.56,0.023963103459589928
415,3632.3,0.026120100874948437
416,3635.05,0.017834447733428693
417,3637.79,0.0241003051487872
418,3640.54,0.02509548200726746
419,3643.2799999999997,0.01871267942262597
420,3646.03,0.022479966281106222
421,3648.77,0.027774473696464734
422,3651.52,0.028714400554944987
423,3654.2599999999998,0.0350822479703035
424,3657.0000000000005,0.029480445385662007
425,3659.75,0.027159632244142265
426,3662.49,0.023446109659500773
427,3665.2400000000002,0.025253706517981027
428,3667.98,0.025695783933339537
429,3670.73,0.029477490791819796
430,3673.47,0.0321222982071783
431,3676.2200000000003,0.02582520506565856
432,3678.96,0.027553052481017068
433,3681.71,0.027688209339497324
434,3684.4500000000003,0.023493696754855832
435,3687.19,0.028853654170214342
436,3689.94,0.0215503810286946
437,3692.68,0.02956686844405311
438,3695.4300000000003,0.022715685302533362
439,3698.17,0.033202592717891874
440,3700.9199999999996,0.03127691957637213
441,3703.66,0.024187096991730637
442,3706.41,0.028599373850210896
443,3709.15,0.025824051265569404
444,3711.89,0.029148708680927914
445,3714.6400000000003,0.02438552553940817
446,3717.38,0.03439909295476668
447,3720.1299999999997,0.03423508981324693
448,3722.87,0.04561007722860544
449,3725.62,0.049871874087085696
450,3728.36,0.05440163150244421
451,3731.11,0.040196098360924463
452,3733.8500000000004,0.034261185776282975
453,3736.6,0.02815699263476323
454,3739.3399999999997,0.026522980050121738
455,3742.08,0.027034737465480248
456,3744.83,0.027558264323960503
457,3747.57,0.02499114173931901
458,3750.3199999999997,0.020692818597799267
459,3753.06,0.02421207601315778
460,3755.81,0.030424252871638035
461,3758.5499999999997,0.033494820286996546
462,3761.3,0.0311875971454768
463,3764.04,0.02929609456083531
464,3766.79,0.029905441419315566
465,3769.5299999999997,0.027814218834674075
466,3772.27,0.029010946250032584
467,3775.02,0.02971292310851284
468,3777.76,0.03331038052387135
469,3780.51,0.03471003738235161
470,3783.25,0.03728687479771011
471,3786.0,0.03432018165619037
472,3788.74,0.03212104907154888
473,3791.4900000000002,0.030177545930029137
474,3794.23,0.026357803345387645
475,3796.98,0.0258590002038679
476,3799.72,0.02467368761922641
477,3801.8939600000003,0.028764546699772554
478,3802.4599999999996,0.02983019668215511
479,3805.21,0.031112480701998565
480,3807.95,0.02971629641631532
481,3810.7000000000003,0.03422278043615877
482,3813.44,0.033910116150475525
483,3816.19,0.03230727017031898
484,3818.93,0.03196825588463573
485,3821.6800000000003,0.030882959904479184
486,3824.42,0.028722785618795935
487,3827.16,0.024641171333112687
488,3829.9100000000003,0.02643421535295614
489,3832.65,0.025468021067272896
490,3835.4,0.02156560508711635
491,3838.14,0.0218503308014331
492,3840.8900000000003,0.026978894821276554
493,3843.63,0.02973235053559331
494,3846.3799999999997,0.032354794555436765
495,3849.12,0.03291914026975352
496,3851.87,0.03397875428959697
497,3854.61,0.03172512000391372
498,3857.35,0.03591818571823047
499,3860.1000000000004,0.03617641973807393
500,3862.84,0.03536322545239068
501,3865.5899999999997,0.035831369472234136
502,3868.33,0.03428053518655089
503,3871.08,0.03241253920639434
504,3873.82,0.032285984920711094
505,3876.5699999999997,0.032839968940554555
506,3879.3100000000004,0.030457154654871303
507,3882.06,0.03007380867471476
508,3884.7999999999997,0.02614772438903151
509,3887.54,0.02862329010334826
510,3890.29,0.029829944123191714
511,3893.03,0.030336499837508465
512,3895.7799999999997,0.03410108385735192
513,3898.52,0.03259103957166868
514,3901.27,0.03555594359151213
515,3904.0099999999998,0.032531519305828885
516,3906.76,0.03390048332567234
517,3909.5,0.03415803903998909
518,3912.25,0.03540377305983254
519,3914.99,0.0332147187741493
520,3917.73,0.037229324488466047
521,3920.48,0.03468826850830951
522,3923.2200000000003,0.03293092422262626
523,3925.97,0.03168330824246971
524,3928.71,0.028726853956786463
525,3931.46,0.02546773797662992
526,3934.2,0.03005934369094667
527,3936.9500000000003,0.031022107710790125
528,3939.69,0.03623663342510687
529,3942.4300000000003,0.03525091913942363
530,3945.18,0.033608973159267086
531,3947.9199999999996,0.03547863887358384
532,3950.67,0.03458623289342729
533,3953.41,0.033126318607744044
534,3956.1600000000003,0.030860622627587497
535,3958.9,0.02767981834190425
536,3961.65,0.0275556723617477
537,3964.39,0.026021808076064454
538,3967.1400000000003,0.024922082095907912
539,3969.88,0.02825254781022466
540,3972.62,0.025497493524541413
541,3975.37,0.032933307544384866
542,3978.11,0.03475113325870162
543,3980.86,0.029808507278545074
544,3983.6,0.03440692299286183
545,3986.3500000000004,0.03652711701270528
546,3989.09,0.039416562727022035
547,3991.8399999999997,0.03775167674686549
548,3994.58,0.03863471246118224
549,3997.33,0.0368525464810257
550,4000.07,0.03733106219534245
551,4002.81,0.035607707909659204
552,4005.5600000000004,0.03676251192950265
553,4008.3,0.03402361764381941
554,4011.0499999999997,0.03918530166366286
555,4013.79,0.03976665737797961
556,4016.54,0.03671061139782307
557,4019.28,0.040498317112139824
558,4022.0299999999997,0.038407671131983276
559,4024.7699999999995,0.03918192684630003
560,4027.52,0.03582845086614348
561,4030.2599999999998,0.03713044658046023
562,4033.0,0.036026602294776985
563,4035.75,0.03708962631462044
564,4038.4900000000002,0.036782922028937196
565,4041.24,0.03839576604878065
566,4043.98,0.0374576417630974
567,4046.73,0.035101005782940856
568,4049.47,0.037168681497257605
569,4052.2200000000003,0.03554033551710106
570,4054.96,0.03472628123141781
571,4057.7000000000003,0.03182337694573457
572,4060.45,0.037426970965578024
573,4063.19,0.03435155667989477
