,lambda (Angstroms),Total Flux (erg/s/cm^2/Angstrom)
0,102.06,2.648646004074991
1,103.96000000000001,2.6410967886924106
2,104.712855,2.638105492203001
3,105.89,2.613537273526111
4,108.11,2.567203607183297
5,110.11999999999999,2.525252864171823
6,113.99,2.444482027615338
7,118.0,2.3607892568761253
8,120.22644299999999,2.314321359506129
9,121.02,2.3004356585954735
10,124.99,2.2309681169382296
11,127.02,2.1954469281169158
12,127.89999999999999,2.1800486035786353
13,130.88,2.1279042150275194
14,132.09,2.1067316220246957
15,133.93,2.0745351203610816
16,137.05,2.019941259591824
17,138.038426,2.0026457068655428
18,139.92,1.9791122714158176
19,142.85,1.942469282630377
20,146.85,1.8924494634090174
21,150.96,1.841046239104105
22,154.84,1.7925201654031662
23,158.489319,1.7468792362983845
24,159.17000000000002,1.7404433150073846
25,162.13000000000002,1.7124564297181448
26,165.91000000000003,1.6767173384283725
27,170.17000000000002,1.636439126779264
28,172.93,1.6103442455930808
29,176.96,1.5722414216294875
30,179.84,1.5450120378034704
31,181.92,1.5253464168496804
32,181.970086,1.5248728709696697
33,186.15,1.4947243114142617
34,190.92999999999998,1.4602484316810145
35,194.03,1.4378900767193268
36,198.10000000000002,1.4085352463211431
37,201.78,1.3819947080601078
38,205.06,1.3583381267289674
39,208.929613,1.3304269988282271
40,209.83,1.325544637176179
41,216.21,1.2909574363813348
42,220.23000000000002,1.2691632717887844
43,222.78,1.2553381442685099
44,226.92000000000002,1.2328942610861813
45,230.08,1.2158245940987038
46,233.82,1.1956850415489673
47,239.81,1.1632898721284006
48,239.88329199999998,1.1628923021922435
49,245.97,1.1374476647427076
50,252.28,1.1111172802210283
51,256.97,1.0914571684275773
52,259.94,1.0791106062924922
53,264.15999999999997,1.0615059648806882
54,269.08000000000004,1.0409549584579203
55,274.08,1.0200687377510433
56,275.42287,1.0144592470200469
57,279.17,1.0024484105021083
58,283.71,0.9878988126444505
59,290.32,0.9666834666296669
60,295.72,0.9493855372936859
61,301.21,0.9317815563204392
62,308.23,0.9092832521136643
63,316.227766,0.8836542492130341
64,318.33,0.8786242190643017
65,328.0,0.8554735651168407
66,337.97,0.831598673459117
67,348.24,0.8070008285911312
68,357.16999999999996,0.7856147698023178
69,363.078055,0.7714667107111844
70,366.33,0.7656355370187649
71,374.85999999999996,0.7503347668938777
72,385.37,0.7314619907809157
73,395.25,0.7137572636232502
74,405.39,0.6955694940903832
75,413.88,0.6803343328309116
76,416.86938299999997,0.6749692445742873
77,421.57,0.6685261270676367
78,430.40000000000003,0.6564250760105675
79,441.44000000000005,0.6412991646116954
80,450.69,0.6286181620285825
81,460.11999999999995,0.6156921386628792
82,469.76,0.6024799005841537
83,478.630092,0.5903243190436092
84,479.59000000000003,0.5893125440426215
85,489.64,0.5787093930971582
86,499.89,0.5679086334562627
87,505.68,0.5618003320235032
88,511.53,0.5556577681821141
89,519.85,0.5468877293521385
90,529.51,0.5366984769627677
91,540.6,0.5249954643010575
92,549.38,0.515742299871588
93,549.5408739999999,0.5155729370726367
94,559.6,0.5074967374086881
95,570.0,0.49914254963781507
96,580.6,0.4906076023425023
97,590.03,0.4830359000051628
98,599.62,0.47531158312827126
99,609.36,0.46743416930805
100,620.6899999999999,0.45839591598853174
101,629.32,0.4514559149489515
102,630.957344,0.45014021187105013
103,639.55,0.44466706362254743
104,649.9399999999999,0.4380519621538676
105,657.47,0.4332506481102528
106,665.0799999999999,0.4284174022232795
107,674.33,0.42252592469745776
108,685.2900000000001,0.415521289557349
109,694.82,0.40949945222977274
110,704.49,0.40330686615131917
111,715.94,0.3960696484831399
112,724.43596,0.39066549623729113
113,725.9,0.38997466808974246
114,734.3,0.38601468830867924
115,744.5200000000001,0.3812044070167189
116,754.87,0.3763262715311232
117,765.38,0.3713303593687453
118,774.2400000000001,0.3672153970794333
119,785.01,0.3621305507297845
120,794.0999999999999,0.35786809973634826
121,805.15,0.3526739505773305
122,814.47,0.3482907429797699
123,825.8,0.3429819707113835
124,831.763771,0.34008466061526216
125,835.36,0.33876711066284937
126,845.03,0.33551196797678456
127,854.82,0.3320718990899619
128,864.7199999999999,0.32863331577744465
129,874.7299999999999,0.32514878203923275
130,884.8599999999999,0.3216273552002631
131,895.1099999999999,0.3180548872605356
132,905.47,0.3144066198951135
133,915.9599999999999,0.3110527807538705
134,924.43,0.3139492719753836
135,935.14,0.3183298499827512
136,945.96,0.32770393956442423
137,954.72,0.336152458209106
138,954.992586,0.33617783680579433
139,965.77,0.3372635581127942
140,974.71,0.29704907448684936
141,985.99,0.32272138028767056
142,995.12,0.32199000793142046
143,1004.3299999999999,0.3376816411624102
144,1015.95,0.3320513027090008
145,1025.3600000000001,0.2972627099080901
146,1034.8400000000001,0.30890418199601444
147,1044.4199999999998,0.3419196210679886
148,1054.08,0.3371690557272025
149,1063.8400000000001,0.3177804673704663
150,1076.15,0.32512743710700087
151,1086.11,0.30673018271836433
152,1096.16,0.3220905646153726
153,1096.4782,0.3218524220936192
154,1103.76,0.3168592493152884
155,1113.97,0.311034652449238
156,1124.28,0.30086135249928886
157,1134.68,0.31525609177383096
158,1145.1799999999998,0.3052941979644745
159,1155.78,0.3067605110712193
160,1163.79,0.30682863205093874
161,1174.56,0.278611245915056
162,1185.43,0.2983618066952744
163,1193.6399999999999,0.2730830115071966
164,1204.69,0.25536088073639757
165,1215.83,0.24046079919008986
166,1224.26,0.26416203321743503
167,1235.59,0.28722616781171983
168,1244.15,0.29231364182999675
169,1255.67,0.2853065825648742
170,1258.92541,0.28027894296469746
171,1264.37,0.27231309989571056
172,1276.07,0.29049146645599444
173,1284.9099999999999,0.2931047071904312
174,1293.82,0.2708558341863397
175,1305.79,0.2679068348980147
176,1314.84,0.2852783844168668
177,1323.96,0.2791192601971906
178,1336.2099999999998,0.26649853595475287
179,1345.47,0.2797577542580202
180,1354.8,0.2748101888227594
181,1364.19,0.2631303087544744
182,1373.64,0.26537041405316525
183,1386.3500000000001,0.26361698095754205
184,1395.96,0.24864965056816835
185,1405.6399999999999,0.2491727064402665
186,1415.3799999999999,0.25126714767934044
187,1425.2,0.2511970560743821
188,1435.07,0.24920588894190365
189,1441.6999999999998,0.25244078199273123
190,1445.43977,0.2523801273322217
191,1448.35,0.2525103769492945
192,1455.04,0.24891460545623728
193,1465.1200000000001,0.24092422109898512
194,1475.28,0.23967683186588185
195,1485.51,0.23973880711640871
196,1495.8,0.23962848621004718
197,1506.17,0.23348224042783441
198,1513.1200000000001,0.22407018558826075
199,1516.61,0.22845440912925186
200,1523.61,0.22541008749227123
201,1534.17,0.21415221387991185
202,1544.8100000000002,0.21736279539170125
203,1555.52,0.2124766913871209
204,1566.3,0.2132413718661707
205,1573.53,0.21686807496111785
206,1584.44,0.21872019376690946
207,1595.4199999999998,0.21874961705633128
208,1606.48,0.21561422546990183
209,1613.89,0.21474389009418376
210,1625.0800000000002,0.20960339683449614
211,1636.34,0.21262935805843874
212,1643.9,0.21262807229049963
213,1655.2900000000002,0.20584394184118399
214,1659.58691,0.2075128928697282
215,1666.77,0.2106061746793828
216,1670.61,0.2020135808117418
217,1678.3200000000002,0.2103753317962438
218,1686.0700000000002,0.21240125440712454
219,1693.8500000000001,0.20685672573778935
220,1705.59,0.20289873807994938
221,1713.46,0.19810992556996632
222,1725.34,0.1966118786044519
223,1733.3000000000002,0.200506702253821
224,1745.32,0.1976145959806322
225,1753.37,0.2013389757893535
226,1765.53,0.19428216020849026
227,1773.68,0.19464546908315838
228,1785.97,0.19496458128802602
229,1794.22,0.19875303922864104
230,1806.6499999999999,0.1969812121258343
231,1814.99,0.19023255622580143
232,1823.37,0.19092891195214734
233,1836.0099999999998,0.186993965887829
234,1844.48,0.18046364777352703
235,1853.0,0.18023169419219848
236,1865.84,0.18098538625977384
237,1874.45,0.18520634883779746
238,1883.1000000000001,0.17865405304219983
239,1896.16,0.17490798905485822
240,1904.9099999999999,0.1779227423252075
241,1905.46072,0.1777113137682934
242,1913.7,0.17476544562138496
243,1926.97,0.1721335986122614
244,1935.8600000000001,0.17331626271843256
245,1944.8,0.17614858003105013
246,1953.77,0.17094952726753554
247,1967.32,0.17616083621451184
248,1976.4,0.17735345650517934
249,1985.52,0.173203393361004
250,1994.69,0.17077781342327503
251,2003.89,0.17187473340941387
252,2013.1399999999999,0.1692859066019992
253,2027.1,0.170683747841836
254,2036.4499999999998,0.16697173744731414
255,2045.85,0.16883959025923861
256,2055.2999999999997,0.16390885627760954
257,2064.7799999999997,0.1639903922198483
258,2074.31,0.16892172136853348
259,2079.1,0.16790910254609925
260,2083.89,0.17147456372366504
261,2093.51,0.16653598264395372
262,2103.17,0.16600245812939957
263,2112.88,0.1666336668212918
264,2122.63,0.16592869207834116
265,2137.34,0.1603016114148741
266,2147.21,0.16232291636739482
267,2157.12,0.1641104178850727
268,2167.08,0.16023266260919697
269,2177.08,0.15934691389847835
270,2187.13,0.15910814839420614
271,2187.7616199999998,0.1592291252871373
272,2197.22,0.16126202849250948
273,2207.37,0.15875826036825091
274,2212.45,0.1537329916124644
275,2222.67,0.15246777777700404
276,2232.93,0.1576725363922856
277,2243.23,0.15441499745830894
278,2253.59,0.14930212220044506
279,2263.99,0.14968845939332304
280,2274.44,0.15131645964962825
281,2284.94,0.1543064229693608
282,2295.48,0.14875211873983518
283,2306.08,0.15038744818642236
284,2316.72,0.14590914008375133
285,2327.42,0.13314597565719305
286,2332.78,0.1388092440565994
287,2343.55,0.13504580391883936
288,2354.37,0.14159259684450662
289,2365.2400000000002,0.13397839283360113
290,2376.15,0.13601121127343754
291,2387.12,0.1298506833893867
292,2392.62,0.13313470036638947
293,2403.67,0.13072242738382228
294,2414.7599999999998,0.13204453685199696
295,2425.91,0.13792520999628438
296,2437.11,0.1355609262039991
297,2442.72,0.13940249992054193
298,2454.0,0.1388471310297403
299,2465.33,0.136265865202366
300,2476.71,0.132927072438419
301,2482.41,0.13051524166913092
302,2493.87,0.1267737538066676
303,2505.3900000000003,0.13616706962031702
304,2511.16,0.12422074313982721
305,2511.88643,0.12423008820946865
306,2516.95,0.12435839705720164
307,2522.7500000000005,0.12307296871683598
308,2534.4,0.12555390886075674
309,2546.0899999999997,0.12487617046439908
310,2557.85,0.13242215962255424
311,2563.74,0.12781325956656225
312,2575.58,0.13191253164416064
313,2587.4700000000003,0.12964692054641108
314,2593.43,0.12751984804493188
315,2605.4,0.12433078986662555
316,2617.43,0.12237744387790163
317,2623.46,0.1266847289309353
318,2635.5699999999997,0.13428727586165462
319,2647.73,0.14352067961702591
320,2653.84,0.1514201675895028
321,2666.0899999999997,0.1358185696292478
322,2672.23,0.14053979369651587
323,2684.57,0.14268980402063447
324,2696.96,0.1342050011694051
325,2703.18,0.13922771815611645
326,2715.65,0.1304253982243303
327,2721.92,0.12782230203569364
328,2734.48,0.13234972038828113
329,2747.1,0.11760982093045107
330,2753.43,0.12163393693139685
331,2766.1400000000003,0.12648572575794037
332,2772.52,0.1295497285835382
333,2785.32,0.11900564569445538
334,2798.1699999999996,0.10514055963002461
335,2804.62,0.10810868001013521
336,2817.5699999999997,0.1250315275950085
337,2824.06,0.1354539794348407
338,2837.1000000000004,0.13277354530408758
339,2843.64,0.12708434396857185
340,2856.7599999999998,0.11677175275726198
341,2863.35,0.13521622824639826
342,2876.57,0.1401475506843924
343,2883.2000000000003,0.13624869763325032
344,2884.0315,0.13644627419791205
345,2896.5099999999998,0.1395450119519015
346,2909.88,0.15295132777263948
347,2930.05,0.14547640002426898
348,2950.36,0.14215324699653445
349,2970.81,0.1454254686894359
350,2991.4,0.1450904451029734
351,3012.14,0.1468320387171923
352,3033.0099999999998,0.14734369457200178
353,3047.01,0.14869507663560178
354,3068.13,0.15033370449154698
355,3089.4,0.1504429895481736
356,3110.82,0.15375154180548165
357,3132.38,0.15021029878342568
358,3146.84,0.14937949492911543
359,3168.65,0.15246230390819518
360,3190.6200000000003,0.1432030425680018
361,3212.7299999999996,0.14968747594844445
362,3227.56,0.13909622385581502
363,3249.93,0.1550864817174388
364,3272.46,0.16417068925978942
365,3287.56,0.1619189341283866
366,3310.3500000000004,0.15950394615191835
367,3311.31121,0.15949482532014772
368,3325.63,0.15946651000463102
369,3333.3,0.16352600473608528
370,3340.99,0.15713183465588756
371,3348.69,0.17097098216986384
372,3356.4100000000003,0.1647083648721881
373,3364.14,0.14011065516868634
374,3371.9,0.1439166282477066
375,3379.67,0.16454388892090083
376,3387.46,0.16197329478244307
377,3395.2700000000004,0.15636193583233327
378,3403.1,0.17254231207057147
379,3410.94,0.1558129059029837
380,3418.81,0.15415575251791788
381,3426.69,0.16069291672702607
382,3434.59,0.17194521612448224
383,3442.5,0.1524693331161124
384,3450.44,0.15814740289026458
385,3458.39,0.16196759025859073
386,3466.37,0.15681093040943886
387,3474.36,0.16466858815446098
388,3482.3700000000003,0.1580617810878311
389,3490.39,0.16381209161537522
390,3498.44,0.1499452549254413
391,3506.5099999999998,0.16741395342385543
392,3514.59,0.1553872695164435
393,3522.69,0.16626092079737959
394,3530.81,0.15204500726666365
395,3538.9500000000003,0.1673760289242957
396,3547.11,0.17216298577027575
397,3555.29,0.1670664778046038
398,3563.48,0.16492988743310583
399,3571.7,0.14978754984412984
400,3579.93,0.15338782984932786
401,3588.1800000000003,0.13441556504287386
402,3596.45,0.15749529542476787
403,3604.75,0.16727139858918383
404,3613.0499999999997,0.14778600175359982
405,3621.38,0.14738655770053777
406,3625.1499999999996,0.16487799070413398
407,3627.9,0.16234242910198263
408,3630.64,0.1605419499056573
409,3633.38,0.15693427070933197
410,3636.12,0.16237379151300663
411,3638.8700000000003,0.16493222991085532
412,3641.61,0.16245405071453
413,3644.35,0.17076247151820467
414,3647.1,0.16506440991605334
415,3649.8399999999997,0.159931930719728
416,3652.5800000000004,0.1645356515234027
417,3655.32,0.16782917232707734
418,3658.0699999999997,0.17351631072492602
419,3660.81,0.18303323152860068
420,3663.5499999999997,0.18227195233227536
421,3666.3,0.17761289073012404
422,3669.04,0.1774615115337987
423,3671.78,0.17691473233747337
424,3674.52,0.17723775314114804
425,3677.2700000000004,0.1763624915389967
426,3680.01,0.1719416123426714
427,3682.75,0.1715643331463461
428,3685.5,0.17254147154419472
429,3688.24,0.1771564923478694
430,3690.98,0.17475741315154408
431,3693.72,0.18539253395521876
432,3696.4700000000003,0.1707149723530674
433,3699.21,0.17048449315674208
434,3701.95,0.17237751396041676
435,3704.7000000000003,0.16880285235826545
436,3707.44,0.16569217316194013
437,3710.1800000000003,0.17359389396561478
438,3712.93,0.17483083236346345
439,3715.6699999999996,0.18169355316713812
440,3718.41,0.1747877739708128
441,3721.1499999999996,0.18123259477448747
442,3723.9,0.18933673317233612
443,3726.64,0.2029198539760108
444,3729.38,0.2063602747796855
445,3732.13,0.18516551317753416
446,3734.8700000000003,0.16201783398120884
447,3737.61,0.15106175478488348
448,3740.35,0.15664357558855818
449,3743.1,0.16010571398640686
450,3745.8399999999997,0.15373073479008154
451,3748.5800000000004,0.15737435559375618
452,3751.33,0.16451859399160487
453,3754.0699999999997,0.16978861479527954
454,3756.81,0.17353393559895422
455,3759.5499999999997,0.17404895640262888
456,3762.3,0.17159239480047753
457,3765.04,0.1751909156041522
458,3767.78,0.1764852364078269
459,3770.53,0.17484197480567557
460,3773.2700000000004,0.1716634956093502
461,3776.01,0.1904535164130249
462,3778.75,0.19598343721669959
463,3781.5,0.20268707561454824
464,3784.24,0.19724969641822293
465,3786.9799999999996,0.1936194172218976
466,3789.73,0.18195765561974625
467,3792.47,0.17287197642342095
468,3795.21,0.1715684972270956
469,3797.95,0.1710895180307703
470,3800.7000000000003,0.17487915642861895
471,3801.8939600000003,0.17854383834057397
472,3803.44,0.18329735626676158
473,3806.1800000000003,0.19140567252620855
474,3808.93,0.1884554592829528
475,3811.6699999999996,0.18403777554239975
476,3814.41,0.18060279180184674
477,3817.15,0.1763432080612937
478,3819.9,0.17137129481803795
479,3822.64,0.16502211107748493
480,3825.38,0.1590570273369319
481,3828.13,0.14756921409367613
482,3830.87,0.14379523035312308
483,3833.61,0.13711177661257007
484,3836.35,0.13987526287201704
485,3839.1,0.14709624962876128
486,3841.84,0.15737536588820825
487,3844.5800000000004,0.16521258214765522
488,3847.33,0.17336526890439946
489,3850.0699999999997,0.1779721851638464
490,3852.81,0.1849058014232934
491,3855.5499999999997,0.17593631768274037
492,3858.3,0.1746690044394846
493,3861.04,0.18055222069893156
494,3863.78,0.18345363695837855
495,3866.53,0.18460342371512278
496,3869.2700000000004,0.18370973997456974
497,3872.01,0.18256765623401672
498,3874.7599999999998,0.18027254299076095
499,3877.5,0.17676975925020794
500,3880.24,0.17422697550965488
501,3882.9799999999996,0.1708032917691019
502,3885.73,0.17128677852584612
503,3888.47,0.17527239478529308
504,3891.21,0.17720241104474005
505,3893.96,0.18413519780148427
506,3896.7000000000003,0.19364411406093124
507,3899.44,0.19479473032037822
508,3902.1800000000003,0.1945336465798252
509,3904.93,0.19092833333656944
510,3907.6699999999996,0.19247434959601642
511,3910.4100000000003,0.20132806585546337
512,3913.16,0.20390095261220761
513,3915.9,0.20083876887165458
514,3918.64,0.19853318513110155
515,3921.3799999999997,0.18624310139054853
516,3924.13,0.17898948814729276
517,3926.87,0.16692520440673975
518,3929.61,0.1525906206661867
519,3932.3599999999997,0.13884490742293093
520,3935.1000000000004,0.1377931236823779
521,3937.84,0.15154653994182488
522,3940.5800000000004,0.16136025620127187
523,3943.33,0.17260774295801612
524,3946.0699999999997,0.18555025921746307
525,3948.81,0.19650487547691003
526,3951.56,0.19612986223365428
527,3954.3,0.19316927849310123
528,3957.04,0.18445959475254822
529,3959.7799999999997,0.17953361101199516
530,3962.53,0.1672990977687394
531,3965.27,0.1532581140281864
532,3968.01,0.14020783028763337
533,3970.7599999999998,0.1422365170443776
534,3973.5,0.15529753330382456
535,3976.24,0.17977204956327156
536,3978.9799999999996,0.19143826582271853
537,3981.73,0.20730525257946275
538,3984.47,0.21959266883890974
539,3987.21,0.22622138509835668
540,3989.96,0.22635457185510094
541,3992.7000000000003,0.2302046881145479
542,3995.44,0.23301580437399488
543,3998.1800000000003,0.23353412063344184
544,4000.93,0.23501130739018608
545,4003.6699999999996,0.23069532364963305
546,4006.4100000000003,0.23339343990908
547,4009.16,0.23794282666582425
548,4011.9,0.23726384292527122
549,4014.64,0.2417353591847182
550,4017.3799999999997,0.2455177754441652
551,4020.13,0.2467803622009094
552,4022.87,0.24401177846035638
553,4025.61,0.24268899471980335
554,4028.36,0.2409696814765476
555,4031.1000000000004,0.23458679773599456
556,4033.84,0.23214581399544154
557,4036.5899999999997,0.23688720075218578
558,4039.33,0.23768791701163272
559,4042.0699999999997,0.2346369332710797
560,4044.81,0.22956424953052668
561,4047.56,0.2267381362872709
562,4050.3,0.23454155254671788
563,4053.04,0.23817716880616488
564,4055.7900000000004,0.2290936555629091
565,4058.53,0.22928437182235606
566,4061.27,0.23052548808180304
567,4064.01,0.22520430434125002
568,4066.7599999999998,0.22849999109799424
569,4069.5,0.2310852073574412
570,4072.24,0.2322246236168882
571,4074.99,0.23301281037363242
572,4077.73,0.2332939266330794
573,4080.47,0.23538214289252635
574,4083.21,0.24019235915197334
575,4085.96,0.24195194590871758
576,4088.7000000000003,0.23982726216816455
577,4091.44,0.23842537842761152
578,4094.1899999999996,0.23328376518435573
579,4096.929999999999,0.22404328144380273
580,4099.67,0.21990809770324968
581,4102.41,0.2209119139626967
582,4105.16,0.22138390071944092
583,4107.9,0.22700741697888788
584,4110.639999999999,0.23334253323833487
585,4113.39,0.23840021999507907
586,4116.13,0.24029643625452607
