,lambda (Angstroms),Total Flux (erg/s/cm^2/Angstrom)
0,100.09,2.5552084087213913
1,101.94999999999999,2.5480998384611317
2,104.08000000000001,2.53995937896373
3,104.712855,2.5375407261827596
4,106.02000000000001,2.5112992416412503
5,107.99,2.4717506648739196
6,110.0,2.431399071710044
7,114.13,2.348487589244177
8,117.87,2.2734055213466298
9,120.22644299999999,2.2260989546968446
10,120.89000000000001,2.214930543749882
11,125.14000000000001,2.143398245898423
12,126.88,2.1141120834418152
13,128.05,2.0944196639228445
14,131.03,2.0442629037695936
15,131.94,2.028946588702208
16,134.09,1.9927596670360888
17,136.89,1.9456325362341589
18,138.038426,1.9263032368589572
19,140.07999999999998,1.901741858159226
20,143.02,1.8663721891328737
21,147.02,1.81825072514432
22,151.14000000000001,1.7686849025859395
23,155.02,1.7220065074142128
24,158.489319,1.6802688836401687
25,159.0,1.6756241150862208
26,161.95000000000002,1.6487931848555428
27,166.11,1.6109571329440981
28,169.98,1.5757587476456398
29,173.14,1.5470180052496967
30,177.17,1.5103645416557976
31,180.05,1.4841705978688744
32,181.970086,1.466707198651871
33,182.13,1.4655976125701047
34,185.95000000000002,1.43909213520028
35,191.16,1.4029420535886215
36,193.81,1.3845551110423475
37,197.87,1.3563846511644868
38,202.02,1.3275899497107375
39,204.83,1.3080930220124396
40,208.929613,1.2796474978826842
41,210.07999999999998,1.2736465584260754
42,215.97000000000003,1.2429238952424944
43,219.98,1.2220072240624844
44,223.04000000000002,1.206045577943374
45,227.19,1.1843989925657579
46,229.82,1.1706960866435814
47,234.09,1.1484564247065883
48,239.88329199999998,1.1182601821542473
49,240.1,1.1173899699869991
50,246.26,1.092629037927432
51,251.98999999999998,1.0696095799541658
52,257.27,1.0483707849316801
53,260.25,1.0364124585242922
54,263.87,1.0218725015535726
55,268.77000000000004,1.0021821684561898
56,273.77,0.9820895082364116
57,275.42287,0.9754474773504657
58,278.86,0.9648486233719514
59,284.03999999999996,0.9488752313865472
60,289.99,0.9305189171803392
61,296.06,0.9118049722254347
62,300.88,0.8969405127861203
63,307.88,0.8753572727788168
64,316.227766,0.849620024713054
65,317.96999999999997,0.8456089434122592
66,327.63,0.8233644585262333
67,338.37,0.7986298399343165
68,347.85,0.7767975939492723
69,356.77,0.7562551193228387
70,363.078055,0.7417285042051709
71,365.92,0.7368283460139944
72,375.31,0.720634486390856
73,384.93,0.7040344703113469
74,394.81,0.6870054100594185
75,404.94,0.6695372942070872
76,414.37,0.6532718930958843
77,416.86938299999997,0.6489599944986638
78,422.07,0.6421090621128394
79,429.92,0.6317696857910591
80,440.95000000000005,0.6172448137534494
81,451.22,0.6037146629510693
82,459.61,0.592661273483205
83,470.31000000000006,0.5785663684293133
84,478.630092,0.5676085654524844
85,480.16,0.5660591947633272
86,490.21000000000004,0.5558710117984542
87,500.48,0.5454719985135543
88,506.27,0.5396006266364782
89,512.14,0.5336762712521196
90,520.46,0.5252474442947321
91,530.13,0.5154462763644514
92,539.99,0.5054464845668745
93,549.5408739999999,0.4957756510053829
94,550.0300000000001,0.4953979517353058
95,560.26,0.4875058389233577
96,569.36,0.4804870450535896
97,579.9399999999999,0.47230115931972727
98,589.37,0.4650298842721542
99,600.32,0.45655887767226827
100,610.08,0.4489862233468906
101,619.99,0.4413898218406925
102,630.0699999999999,0.43360458860956475
103,630.957344,0.4329191431164604
104,640.3000000000001,0.4271994120585715
105,650.71,0.4208377474357864
106,658.2399999999999,0.4162327762354434
107,664.33,0.4125173568463212
108,675.13,0.4059002599621638
109,684.52,0.40013254063066034
110,695.64,0.39339356075512044
111,705.3199999999999,0.38743940249080167
112,716.7800000000001,0.38047977141816786
113,724.43596,0.37580092200174314
114,726.75,0.3747522509313369
115,735.17,0.37093805504594934
116,745.39,0.36634266209812727
117,755.76,0.36165988984510244
118,764.5200000000001,0.357676092261255
119,775.15,0.35292172118587856
120,784.13,0.3488766747677336
121,795.0300000000001,0.34395533412299195
122,804.24,0.33980445102353596
123,815.4300000000001,0.3347444242154021
124,824.87,0.3305331046346351
125,831.763771,0.3272639362935406
126,834.4200000000001,0.3263094857268549
127,844.0799999999999,0.3232591372453823
128,855.83,0.3192908797280629
129,865.74,0.31600811587388133
130,875.76,0.3126909381757077
131,885.9,0.3093635497386339
132,894.1,0.30665762791378126
133,904.4499999999999,0.30311567568363196
134,914.9300000000001,0.30053600281967396
135,925.52,0.31322779411172413
136,934.08,0.3331013580701706
137,944.9000000000001,0.3701080297793285
138,954.992586,0.40515131589534
139,955.84,0.40809991603135864
140,964.6899999999999,0.40775183800193204
141,975.86,0.2946010155625314
142,984.89,0.36240984374267576
143,994.0,0.3801474324604073
144,1005.51,0.4548412573057518
145,1014.8100000000001,0.45479364480025264
146,1024.2,0.34634411539953897
147,1036.06,0.3758259500968271
148,1045.65,0.5224364420400812
149,1055.32,0.5167638145209225
150,1065.0900000000001,0.4376209126737475
151,1074.94,0.48685039136415964
152,1084.89,0.41552619572655575
153,1094.9299999999998,0.5023640531937373
154,1096.4782,0.5003863477551902
155,1105.06,0.4899413254169538
156,1115.29,0.46903712496607164
157,1125.61,0.4375639054496392
158,1136.02,0.5226759668676566
159,1143.89,0.4883206108023151
160,1154.48,0.514257634089232
161,1165.1599999999999,0.5209376383105984
162,1175.94,0.40597089912579776
163,1184.09,0.5095806615231889
164,1195.05,0.3860254842072878
165,1206.11,0.3184562634852197
166,1214.47,0.30008224472966005
167,1225.71,0.40508625587649144
168,1234.2,0.5405948906929148
169,1245.6200000000001,0.5764243937086455
170,1254.26,0.5471055634158184
171,1258.92541,0.5206098413026634
172,1265.8600000000001,0.48176945438572194
173,1274.6399999999999,0.6016317580331767
174,1286.43,0.6297941784208181
175,1295.3500000000001,0.49822439214921177
176,1304.33,0.4914849530551507
177,1316.39,0.6089654357417458
178,1325.52,0.5861008645915478
179,1334.71,0.5152362406188951
180,1343.9599999999998,0.6206659638237877
181,1356.39,0.6031627874385783
182,1365.8000000000002,0.5391580364502582
183,1375.26,0.5681015747765591
184,1384.8,0.5727295760062537
185,1394.4,0.5146804244134935
186,1404.06,0.5283681199982786
187,1413.79,0.5298437206235331
188,1423.5900000000001,0.5505629262892571
189,1433.46,0.5433012369954505
190,1443.3999999999999,0.5717014527421135
191,1445.43977,0.5784350020228797
192,1446.73,0.5827698934035543
193,1453.3999999999999,0.5654879851188688
194,1463.48,0.5220943054322674
195,1473.62,0.5241257919380078
196,1483.84,0.5375471333668704
197,1494.12,0.5478764409880745
198,1504.48,0.519086703532401
199,1511.42,0.4644782931132529
200,1518.4,0.49728806015566585
201,1525.41,0.4797994602942497
202,1535.98,0.42283935451177196
203,1546.6299999999999,0.46857370365241646
204,1553.77,0.4472789805410738
205,1564.5400000000002,0.44864376206640155
206,1575.38,0.47149515414946125
207,1586.3,0.4970769011556433
208,1593.6200000000001,0.5036088766213256
209,1604.67,0.4979128003775811
210,1615.79,0.5014478346915686
211,1623.25,0.4743154312727148
212,1634.5000000000002,0.5040305423367758
213,1645.8300000000002,0.5102821083239591
214,1653.4299999999998,0.47338542602056927
215,1659.58691,0.49467186393928214
216,1664.8899999999999,0.513221763975547
217,1672.58,0.4550344251268583
218,1676.4299999999998,0.5139068809698426
219,1684.17,0.5418765947944393
220,1695.8400000000001,0.5102853687392772
221,1703.6699999999998,0.49048053737578795
222,1715.48,0.4632962188058253
223,1723.3999999999999,0.46175954225425
224,1735.35,0.49171993116948665
225,1743.36,0.48167710942982517
226,1755.44,0.5154323552956042
227,1763.5400000000002,0.47152328836785673
228,1775.7700000000002,0.48194779225349227
229,1783.96,0.4914044801376587
230,1796.33,0.5264508915084937
231,1804.6200000000001,0.5237673847392311
232,1812.95,0.48179678010859694
233,1825.52,0.492658502172574
234,1833.94,0.47307795235385375
235,1846.6599999999999,0.4369979324376873
236,1855.1799999999998,0.43469028796553805
237,1863.74,0.4484337456320172
238,1876.66,0.48871693640899283
239,1885.3200000000002,0.451116899422043
240,1894.03,0.4355274151083787
241,1905.46072,0.4557014188412061
242,1907.1599999999999,0.45874357463707266
243,1915.9599999999998,0.44140088451346426
244,1924.8000000000002,0.43692051125293024
245,1933.69,0.44883295907123943
246,1947.09,0.4642244082011993
247,1956.08,0.4386095981771948
248,1965.11,0.48091840501626476
249,1974.18,0.49367492871840923
250,1983.29,0.4675964692836282
251,1997.04,0.45412636596548994
252,2006.25,0.46855624868839524
253,2015.52,0.4495762567059122
254,2024.82,0.47242517737073514
255,2034.16,0.4474715148986325
256,2043.5500000000002,0.46681457350537303
257,2052.9900000000002,0.4477807531909567
258,2067.22,0.4459781522297126
259,2071.98,0.4779236589355789
260,2076.76,0.4552012740729825
261,2086.35,0.4733924169950956
262,2095.98,0.44888477678028316
263,2105.65,0.44903995342854525
264,2115.37,0.45334765115565046
265,2125.13,0.45943076574583014
266,2134.94,0.426166101414853
267,2144.8,0.438957858162719
268,2154.7,0.4556707317736595
269,2164.64,0.4416481222476745
270,2174.63,0.4376967338005326
271,2184.67,0.4289868664322339
272,2187.7616199999998,0.43502305496686017
273,2194.75,0.44882469109046436
274,2204.89,0.4367842690052444
275,2215.06,0.41504083472450615
276,2225.29,0.40182787605273096
277,2235.56,0.428903734453598
278,2245.88,0.41054763919526766
279,2256.24,0.3916851610095794
280,2266.66,0.4020927584328544
281,2277.12,0.4128850729287715
282,2287.63,0.4240695337654913
283,2292.91,0.4023602873542525
284,2303.49,0.40053805306809603
285,2314.12,0.3808206651227422
286,2324.7999999999997,0.29872142351819103
287,2335.53,0.35223872825444247
288,2346.31,0.3437683793314966
289,2357.14,0.37113987674935345
290,2362.58,0.3407552986286832
291,2373.48,0.3502927009236637
292,2384.44,0.3275033788276075
293,2395.44,0.34890217380419336
294,2406.5,0.33498084438974246
295,2417.61,0.34436946131609414
296,2423.18,0.36485976368151085
297,2434.37,0.35136831475314684
298,2445.6,0.371575382897425
299,2456.89,0.36641362665066624
300,2462.56,0.36352012169768827
301,2473.92,0.35064477032805336
302,2485.34,0.3594102945673815
303,2496.81,0.34160926514751244
304,2502.57,0.3773488236079793
305,2511.88643,0.34403641954711445
306,2514.1200000000003,0.3360767304321967
307,2519.92,0.34595160404060804
308,2525.73,0.33093662691386144
309,2537.38,0.33738882045489454
310,2543.23,0.3305286403875164
311,2554.97,0.3562227773121283
312,2566.77,0.3448876098257927
313,2572.68,0.365965625347467
314,2584.5600000000004,0.36025455197986817
315,2596.4900000000002,0.3546365249364798
316,2602.4700000000003,0.34280658531204866
317,2614.48,0.338113052387397
318,2626.55,0.3539708150517979
319,2632.61,0.3688301695461035
320,2644.7599999999998,0.40018072632924107
321,2656.9700000000003,0.4133296787014311
322,2663.09,0.3681797287847893
323,2675.38,0.387419475275716
324,2687.73,0.3864222173556954
325,2693.93,0.36821566155779023
326,2706.3599999999997,0.38160169775650626
327,2712.6,0.3594956390179695
328,2725.12,0.35717651860026434
329,2737.7000000000003,0.37584079377161167
330,2744.01,0.3246359798869695
331,2756.6800000000003,0.3323425984418957
332,2763.03,0.34565038161662187
333,2775.7900000000004,0.3615629435551268
334,2782.19,0.34065727305406346
335,2795.03,0.2800654291113051
336,2807.9300000000003,0.2988074807575993
337,2814.4,0.35658515511043054
338,2827.3900000000003,0.37833865014030355
339,2833.91,0.3645039708173453
340,2846.99,0.3531402092307971
341,2853.55,0.33775522696720706
342,2866.73,0.3775185580290798
343,2873.33,0.38334007282485816
344,2884.0315,0.3789052602949411
345,2886.6000000000004,0.3778673110087218
346,2893.25,0.377798488328999
347,2913.31,0.416026295553775
348,2926.75,0.3981017823484405
349,2947.0400000000004,0.3908711923978276
350,2967.47,0.4000883346013258
351,2988.04,0.4014883089589351
352,3008.75,0.4069481154706555
353,3029.6099999999997,0.40757320643320927
354,3050.61,0.4073773295498741
355,3071.7499999999995,0.41130028482065
356,3093.0400000000004,0.41443982454225925
357,3107.32,0.41767240426159136
358,3128.86,0.41078745140125617
359,3150.5499999999997,0.41225598299175426
360,3172.39,0.41457369903308566
361,3187.03,0.3908394614344177
362,3209.12,0.4084015848938047
363,3231.37,0.3849243451007472
364,3246.28,0.4164643195135792
365,3268.78,0.43547568713857726
366,3291.44,0.4308205915111308
367,3306.6299999999997,0.4280539302321851
368,3311.31121,0.4264089331406918
369,3321.8999999999996,0.4227644921535795
370,3329.55,0.44418937098763983
371,3337.23,0.4315419234641867
372,3344.92,0.42625040048822904
373,3352.6299999999997,0.4158395266072624
374,3360.36,0.43151380182128685
375,3368.11,0.4297476261303022
376,3375.8700000000003,0.38944487498681307
377,3383.65,0.397457272938315
378,3391.46,0.4359720445323033
379,3399.27,0.4450896161262917
380,3407.1099999999997,0.4252703613627667
381,3414.96,0.4288131311467371
382,3422.8399999999997,0.453471274573194
383,3430.73,0.4404787425471465
384,3438.64,0.4459898596160899
385,3446.5600000000004,0.3884656012325289
386,3454.51,0.4341466164914543
387,3462.4700000000003,0.3997327562978753
388,3470.45,0.42522174519928724
389,3478.4500000000003,0.3915767831956902
390,3486.47,0.41478237028708426
391,3494.51,0.4079792064734692
392,3502.56,0.43410006720734967
393,3510.64,0.4287256015837167
394,3518.73,0.4173143605075792
395,3526.84,0.4096072685264327
396,3534.9700000000003,0.4377022256402773
397,3543.1200000000003,0.46019643184911274
398,3551.2899999999995,0.45921878715293935
399,3559.48,0.4487990915517569
400,3567.68,0.4386068204980699
401,3575.91,0.40113942308686945
402,3584.1499999999996,0.37786465022316457
403,3592.41,0.3937192264544506
404,3600.6899999999996,0.4516040517807277
405,3608.9900000000002,0.4163230262019958
406,3617.3100000000004,0.43220114971825485
407,3625.65,0.446918522329505
408,3627.3,0.5015282726662631
409,3630.04,0.4427069986800311
410,3632.7799999999997,0.46821572469379913
411,3635.52,0.5193191507075672
412,3638.25,0.37392525217383965
413,3640.9900000000002,0.5450481781876078
414,3643.73,0.4382220042013757
415,3646.47,0.24418743021514372
416,3649.21,0.5170717562289118
417,3651.95,0.41029488224267974
418,3654.69,0.5269101082564478
419,3657.43,0.3339069342702158
420,3660.1699999999996,0.37274406028398377
421,3662.91,0.3927206862977518
422,3665.6499999999996,0.2525644123115198
423,3668.3900000000003,0.4484440383252879
424,3671.13,0.5414473643390558
425,3673.8700000000003,0.3552051903528239
426,3676.61,0.46373231636659196
427,3679.35,0.49470134238035995
428,3682.09,0.48225396839412793
429,3684.83,0.34018289440789595
430,3687.57,0.423611920421664
431,3690.31,0.548883646435432
432,3693.0499999999997,0.5049261724492
433,3695.79,0.5654714984629681
434,3698.5299999999997,0.516281324476736
435,3701.27,0.36352875049050404
436,3704.0099999999998,0.4619239765042721
437,3706.7499999999995,0.4075049025180401
438,3709.49,0.33295502853180814
439,3712.2300000000005,0.43045915454557615
440,3714.9700000000003,0.47985648055934416
441,3717.71,0.5463169065731122
442,3720.4500000000003,0.7346844325868802
443,3723.19,1.1909823586006483
444,3725.9300000000003,1.3890182846144163
445,3728.67,1.2058632106281841
446,3731.41,0.9798605366419523
447,3734.15,0.6598964626557203
448,3736.89,0.49304618866948835
449,3739.63,0.47949921468325635
450,3742.37,0.3824639406970244
451,3745.1099999999997,0.5327538667107924
452,3747.85,0.5432848927245605
453,3750.5899999999997,0.4980762187383284
454,3753.3300000000004,0.4755804447520965
455,3756.07,0.45573917076586445
456,3758.8100000000004,0.42562189677963247
457,3761.55,0.5657192227934005
458,3764.29,0.47023114880716854
459,3767.03,0.5157985748209366
460,3769.77,0.5541994008347046
461,3772.51,0.5173707268484725
462,3775.2400000000002,0.4832746283147451
463,3777.98,0.3557261543285131
464,3780.7200000000003,0.6148309803422811
465,3783.46,0.6217598063560492
466,3786.2000000000003,0.5795085323698173
467,3788.94,0.6586338583835851
468,3791.68,0.6199847843973532
469,3794.42,0.6132630104111212
470,3797.16,0.48345853642488923
471,3799.9,0.5578818624386573
472,3801.8939600000003,0.674707488363649
473,3802.64,0.7184215847853563
474,3805.3799999999997,0.654419253687215
475,3808.12,0.6041811225890736
476,3810.8599999999997,0.7687501914909324
477,3813.6,0.676233260392791
478,3816.3399999999997,0.7002014292946496
479,3819.0800000000004,0.6177707981965083
480,3821.82,0.4868806670983669
481,3824.5600000000004,0.5160814360002256
482,3827.3,0.46023160490208426
483,3830.04,0.6382237738039429
484,3832.78,0.35839444270580156
485,3835.52,0.4785953116076602
486,3838.26,0.41747478050951886
487,3841.0,0.5822333494113775
488,3843.74,0.5644155183132362
489,3846.48,0.6296006872150949
490,3849.22,0.5116028561169536
491,3851.96,0.6185360250188121
492,3854.7,0.5190422939206708
493,3857.4399999999996,0.6331799628225294
494,3860.18,0.6495263317243881
495,3862.92,0.6401643006262467
496,3865.6600000000003,0.6286788695281054
497,3868.4,0.6352044384299641
498,3871.1400000000003,0.6815063073318227
499,3873.88,0.6518201762336814
500,3876.62,0.63369884513554
501,3879.36,0.6215308140373986
502,3882.1,0.5946884829392574
503,3884.84,0.495232851841116
504,3887.58,0.6019763207429746
505,3890.3199999999997,0.5335377896448333
506,3893.06,0.562548858546692
507,3895.7999999999997,0.49320022744855063
508,3898.54,0.5933457963504093
509,3901.2799999999997,0.6350216652522679
510,3904.0200000000004,0.5782998341541266
511,3906.76,0.6438261030559852
512,3909.49,0.6396999965238955
513,3912.23,0.6476665654257542
514,3914.97,0.5433949343276128
515,3917.7099999999996,0.5973943032294714
516,3920.45,0.6629588721313301
517,3923.1899999999996,0.7043694410331888
518,3925.9300000000003,0.6044583099350475
519,3928.67,0.5084907788369061
520,3931.4100000000003,0.5395496477387647
521,3934.15,0.5032276166406233
522,3936.8900000000003,0.506492385542482
523,3939.63,0.5351243544443407
524,3942.37,0.6079312233461993
525,3945.11,0.576197292248058
526,3947.85,0.6572703611499167
527,3950.59,0.6881775300517754
528,3953.33,0.6443097989536339
529,3956.0699999999997,0.5899007678554926
530,3958.81,0.5332166367573512
531,3961.5499999999997,0.5272293056592099
532,3964.29,0.5029274745610686
533,3967.0299999999997,0.38981344346292723
534,3969.7700000000004,0.42315491236478586
535,3972.51,0.44905688126664456
536,3975.25,0.5057483501685032
537,3977.9900000000002,0.6255358190703618
538,3980.73,0.6943990879722205
539,3983.4700000000003,0.6674809568740792
540,3986.21,0.6220964257759378
541,3988.95,0.6683604946777966
542,3991.69,0.6909255635796551
543,3994.43,0.6869478324815138
544,3997.17,0.7029151013833724
545,3999.91,0.6593887702852311
546,4002.6499999999996,0.7237775391870898
547,4005.39,0.7371664080889484
548,4008.1299999999997,0.754119576990807
549,4010.8700000000003,0.7865054458926657
550,4013.61,0.7961403147945244
551,4016.3500000000004,0.803538183696383
552,4019.09,0.7816251525982416
553,4021.83,0.7880749215001004
554,4024.57,0.797141090401959
555,4027.31,0.7596436593038176
556,4030.05,0.7856593282056763
557,4032.79,0.777813997107535
558,4035.5299999999997,0.7729640660093936
559,4038.27,0.6503025349112523
560,4041.0099999999998,0.6665353038131109
561,4043.75,0.7625856727149696
562,4046.48,0.7872779661828798
563,4049.2200000000003,0.7363574350847385
564,4051.96,0.7545240039865971
565,4054.7,0.7375402728884558
566,4057.44,0.7416392417903144
567,4060.18,0.793363510692173
568,4062.92,0.7981448795940318
569,4065.66,0.7257246484958905
570,4068.3999999999996,0.7170830173977492
571,4071.14,0.7214093862996077
572,4073.8799999999997,0.7380213552014664
573,4076.6200000000003,0.668672524103325
574,4079.36,0.7268807930051837
575,4082.1000000000004,0.6840746619070422
576,4084.84,0.632850730808901
577,4087.58,0.7038374997107597
578,4090.32,0.7250375686126184
579,4093.06,0.6741170375144769
580,4095.8,0.6121623064163356
581,4098.54,0.5791771753181942
582,4101.28,0.622483644220053
583,4104.0199999999995,0.6500918131219117
584,4106.76,0.6324256820237701
585,4109.5,0.5926531509256289
586,4112.24,0.6961735198274875
