,lambda (Angstroms),Total Flux (erg/s/cm^2/Angstrom)
0,100.08,28.848108860824002
1,101.94,28.767854840975055
2,104.08000000000001,28.675519570824495
3,104.712855,28.6482135720633
4,106.00999999999999,28.35422009953459
5,107.98,27.90772634533935
6,109.99,27.45216672833959
7,114.12,26.51611637105328
8,118.13000000000001,25.60726360338145
9,120.22644299999999,25.132111985609356
10,120.88,25.00792350585272
11,125.13,24.200341235228798
12,126.87,23.869707553887476
13,128.04,23.64738490620318
14,131.03,23.07922702932792
15,131.93,22.90820961567818
16,134.07999999999998,22.499668000198884
17,136.89,21.965713626028084
18,138.038426,21.74749046014872
19,140.07,21.471556542857545
20,143.01,21.072237944057605
21,147.01000000000002,20.52894770574015
22,151.13,19.969358299700808
23,155.01,19.44236642027245
24,158.489319,18.96979616369852
25,158.98,18.919410892472143
26,161.94,18.61546518344195
27,166.08999999999997,18.18932517525722
28,169.96,17.791936842658792
29,173.12,17.46745443573338
30,177.16,17.052609924751017
31,180.03000000000003,16.75790611625667
32,181.970086,16.55868983841446
33,182.11999999999998,16.546945841465163
34,185.92999999999998,16.24847735908762
35,191.14,15.840335485461557
36,193.8,15.631956249560785
37,197.86,15.3139035330085
38,202.0,14.989584006100502
39,204.81,14.769454289038892
40,208.929613,14.446731477709529
41,210.07000000000002,14.379567636389122
42,215.95,14.033263338672501
43,219.97,13.796504065534304
44,223.03,13.616284078960451
45,227.17000000000002,13.37245783800171
46,229.8,13.217578286334803
47,234.08,12.965534672865427
48,239.88329199999998,12.623770531890338
49,240.08,12.614843684663628
50,246.24,12.33527101376728
51,251.97,12.075228260109153
52,257.25,11.835579853097995
53,260.23,11.700352878493591
54,263.84999999999997,11.536070749009053
55,268.75,11.313690438564228
56,273.75,11.086770660675635
57,275.42287,11.01084958685093
58,278.84,10.891832610863844
59,284.02,10.7114157502009
60,289.96999999999997,10.50417156340968
61,296.03999999999996,10.292759724655612
62,300.85,10.125227785411447
63,307.86,9.88107671881507
64,316.227766,9.589636610763705
65,317.95,9.544835951994775
66,328.35999999999996,9.27403448257789
67,338.34000000000003,9.014417510960357
68,347.82,8.767807630611838
69,356.73999999999995,8.535767030520615
70,363.078055,8.37089412392874
71,365.89000000000004,8.316116141309575
72,375.28,8.133186756771982
73,384.90999999999997,7.945571311303396
74,394.78,7.753308218603817
75,404.90999999999997,7.555972132820662
76,414.34,7.372261828777904
77,416.86938299999997,7.322983882919393
78,422.03999999999996,7.246057395496467
79,429.89,7.129272458849312
80,440.92,6.965186908607129
81,451.19,6.81239689649206
82,459.57,6.687721401695734
83,470.28000000000003,6.528386486622862
84,478.630092,6.404167075626726
85,480.13,6.387006847033561
86,490.18,6.272003110087945
87,500.44,6.154626401075705
88,506.24,6.088248266549877
89,512.1,6.021258284419298
90,520.42,5.926062251293974
91,530.1,5.815299417294317
92,539.95,5.7025734813978675
93,549.5408739999999,5.592856246330937
94,549.99,5.588937146363129
95,560.22,5.499686879190384
96,570.63,5.408863757928384
97,579.9,5.327938699131674
98,589.33,5.245676741688957
99,600.28,5.150088188059188
100,610.0400000000001,5.064874455852833
101,619.95,4.978505018872101
102,630.02,4.8906324684453635
103,630.957344,4.882452461376187
104,640.26,4.818100519230573
105,650.66,4.746193454660083
106,658.2,4.6940559759339795
107,664.29,4.651964457424435
108,675.08,4.577310825488804
109,684.4699999999999,4.512313584658816
110,695.5899999999999,4.435583220991141
111,705.2700000000001,4.3685516055178395
112,716.73,4.289435324095938
113,724.43596,4.236156209903572
114,726.6999999999999,4.224540150753311
115,735.1199999999999,4.181347721934312
116,745.34,4.1290148765079255
117,755.71,4.07585730519759
118,764.46,4.030964325633902
119,775.0999999999999,3.976521954532461
120,785.88,3.9212814392059974
121,794.98,3.874656454579763
122,804.1800000000001,3.8275240693642294
123,815.37,3.770145625021641
124,824.81,3.7219157839917894
125,831.763771,3.6858186900828107
126,834.36,3.6757093090810047
127,845.97,3.6318225655211256
128,855.77,3.594288145001159
129,865.6800000000001,3.556503175500865
130,875.6999999999999,3.5183093000202477
131,885.8399999999999,3.4797517912883635
132,894.04,3.4485189451185962
133,904.3900000000001,3.4087400686969977
134,914.86,3.3713817320241355
135,925.46,3.3789867268290696
136,934.02,3.4139285449055072
137,944.8299999999999,3.4933874570207277
138,954.992586,3.569961083872093
139,955.78,3.575959441034795
140,964.62,3.551342783898468
141,975.79,3.182708501657204
142,984.82,3.3609861623878556
143,993.93,3.389525025904605
144,1005.4399999999999,3.5813559730042517
145,1014.7399999999999,3.5555326843879795
146,1024.13,3.2055676026560658
147,1035.99,3.262138443194885
148,1045.58,3.674770043428214
149,1055.25,3.6329074164476385
150,1065.02,3.3692733304496842
151,1074.87,3.492219617237827
152,1084.82,3.2493599450085897
153,1094.85,3.485998845565449
154,1096.4782,3.4749398060249335
155,1104.98,3.4229826613377385
156,1115.21,3.3384229085357484
157,1125.53,3.219884541486233
158,1135.94,3.456244660189193
159,1143.81,3.3342947921000765
160,1154.4,3.3891793823079865
161,1165.08,3.387576258268372
162,1175.86,3.0122468628426193
163,1184.01,3.3125611948723135
164,1194.97,2.91368997095151
165,1206.02,2.6819442327831826
166,1214.38,2.607591264901986
167,1225.6200000000001,2.904821741099995
168,1234.12,3.2994149732782048
169,1245.53,3.3836670781197773
170,1254.17,3.274431910357392
171,1258.92541,3.182733060237261
172,1265.77,3.0567928092977823
173,1274.5500000000002,3.4087297599284323
174,1286.34,3.473308708668224
175,1295.26,3.0559661917690675
176,1304.24,3.025324917357136
177,1316.3,3.367687657289442
178,1325.4299999999998,3.2798269890955742
179,1334.61,3.052385689641061
180,1343.8700000000001,3.3596599801695146
181,1356.3,3.2860226487730437
182,1365.7,3.07662697177169
183,1375.17,3.1508248110054327
184,1384.7,3.1498800927264012
185,1394.3,2.9555418906824658
186,1403.96,2.9823751311257554
187,1413.7,2.976616961552012
188,1423.49,3.0225041607176237
189,1433.36,2.984351949866203
190,1443.3000000000002,3.0563102552498775
191,1445.43977,3.0767337697185293
192,1446.6200000000001,3.0887802252094465
193,1456.6499999999999,3.022736527991374
194,1463.3799999999999,2.8848084091202244
195,1473.5200000000002,2.8798533592905864
196,1483.73,2.9102621759808636
197,1494.02,2.9309185544081844
198,1504.37,2.8299821041382884
199,1511.32,2.6549300800440108
200,1518.29,2.746866846383994
201,1525.3,2.687147193592499
202,1535.8700000000001,2.500116338099475
203,1546.5200000000002,2.6263584443434946
204,1553.66,2.554466229374697
205,1564.43,2.5489823782242835
206,1575.27,2.6106701935937844
207,1586.19,2.6760073707003285
208,1593.51,2.6882902696398805
209,1604.56,2.6608684845691224
210,1615.6799999999998,2.6622815660182777
211,1623.14,2.5689791979976566
212,1634.39,2.649693317269509
213,1645.72,2.656818998278406
214,1653.3200000000002,2.5351833632976124
215,1659.58691,2.596352297836259
216,1664.78,2.6494214003386833
217,1672.46,2.465428030714318
218,1676.32,2.6426424074395722
219,1684.05,2.7214994416587985
220,1695.73,2.6162493795217427
221,1703.55,2.5479669406594336
222,1715.36,2.453413528515716
223,1723.2800000000002,2.4449238973405887
224,1735.22,2.5300681351902092
225,1743.23,2.494871030933547
226,1755.32,2.586341480313941
227,1763.42,2.4472129029757435
228,1775.64,2.4706870023494742
229,1783.84,2.49418523269846
230,1796.2,2.595281262834247
231,1804.5,2.580387300870415
232,1817.0,2.4370282617682584
233,1825.39,2.4688948267228903
234,1833.82,2.400381514752396
235,1846.5300000000002,2.2788383717933227
236,1855.05,2.264940586741293
237,1863.61,2.301931924764136
238,1876.53,2.4196526779481466
239,1885.1899999999998,2.2938038236581724
240,1893.89,2.237685092443071
241,1905.46072,2.2980746006397186
242,1907.0200000000002,2.306659319194983
243,1915.82,2.2439707135948233
244,1924.67,2.2247248318264807
245,1933.55,2.260113384357229
246,1946.95,2.301599371284259
247,1955.9399999999998,2.2149225162450046
248,1964.97,2.3446872402712042
249,1974.04,2.380172543362858
250,1983.1499999999999,2.2919194255199655
251,1996.9,2.2438894792697157
252,2006.1100000000001,2.2874938090904577
253,2015.37,2.2215458627430174
254,2024.68,2.289420640227394
255,2034.02,2.2043158520108608
256,2043.4099999999999,2.263677787626145
257,2052.84,2.194716302306883
258,2067.07,2.1835333048420793
259,2071.84,2.2832663583974475
260,2076.61,2.2131334119528154
261,2086.2,2.2663302428953687
262,2095.83,2.181983652903376
263,2105.5,2.1797136419768366
264,2115.22,2.1908903548821153
265,2124.98,2.205117646852847
266,2134.79,2.0919346626553965
267,2144.65,2.1304344022897626
268,2154.55,2.179116720989583
269,2164.4900000000002,2.1280496187548574
270,2174.48,2.109642240351949
271,2184.52,2.080908585780858
272,2187.7616199999998,2.098848098213338
273,2194.6,2.1384299965717886
274,2204.73,2.095454461530597
275,2214.91,2.0208873542532695
276,2225.13,1.976446989187033
277,2235.4,2.06341205188466
278,2245.72,2.0020195423461518
279,2256.09,1.934007460571506
280,2266.5,1.9640931210079526
281,2276.96,1.9953772092082622
282,2287.4700000000003,2.0305567251724357
283,2292.75,1.9573216970364546
284,2303.33,1.9510770118700376
285,2313.96,1.8789567544674841
286,2324.64,1.6086064248287948
287,2335.37,1.7774049229539692
288,2346.15,1.7426513488430073
289,2356.98,1.8268477024959093
290,2362.41,1.7272329576515195
291,2373.3199999999997,1.7532833957266036
292,2384.27,1.6738672760127788
293,2395.2799999999997,1.7384556696155906
294,2406.33,1.6899855054294932
295,2417.44,1.7153809545600327
296,2423.0099999999998,1.7816333074544617
297,2434.2,1.734480341007183
298,2445.4300000000003,1.7951252167709955
299,2456.72,1.7751322058514445
300,2462.38,1.7608206287208281
301,2473.75,1.7156288022234594
302,2485.17,1.7345015034899545
303,2496.64,1.6714249325203132
304,2502.4,1.7866807109174245
305,2511.88643,1.6706009863411966
306,2513.95,1.6456298830403036
307,2519.74,1.675411908594362
308,2525.5499999999997,1.6286682147202831
309,2537.2099999999996,1.6452816881158485
310,2543.06,1.6228552553854934
311,2554.79,1.699662710782576
312,2566.59,1.660695848181176
313,2572.5,1.7244470571664068
314,2584.38,1.701523816852455
315,2596.31,1.6789095779681582
316,2602.29,1.638579768954906
317,2614.3,1.6210434523580572
318,2626.37,1.6675597774767947
319,2632.4199999999996,1.7108452504650598
320,2644.57,1.809130897871245
321,2656.78,1.8413530869930168
322,2662.91,1.69931668226873
323,2675.2,1.75622429367795
324,2687.55,1.7458770468027556
325,2693.7400000000002,1.689909083794055
326,2706.17,1.725618059206309
327,2712.4100000000003,1.6570853976272635
328,2724.93,1.6470819356128967
329,2737.51,1.6997863153141157
330,2743.82,1.5337914357365874
331,2756.49,1.5537061780111858
332,2762.8399999999997,1.5937714595773815
333,2775.59,1.6396397241394278
334,2781.99,1.5727448071352788
335,2794.83,1.3781816342707045
336,2807.73,1.4334817031217162
337,2814.2099999999996,1.611284708405015
338,2827.2000000000003,1.6753826398294058
339,2833.71,1.631219765970498
340,2846.79,1.598799759968268
341,2853.3599999999997,1.547035027824946
342,2866.5299999999997,1.6669140843960952
343,2873.1299999999997,1.6733846731105664
344,2884.0315,1.6567992815799533
345,2886.39,1.6534854340843816
346,2893.0499999999997,1.6442389588468753
347,2913.1,1.7501229575687975
348,2933.2999999999997,1.6927850086502356
349,2946.83,1.6686803314785452
350,2967.2599999999998,1.6935560628445736
351,2987.8300000000004,1.6890046430794832
352,3008.54,1.7070810721832743
353,3029.3900000000003,1.6973903501559464
354,3050.39,1.6901666804881343
355,3071.54,1.6930850631798382
356,3092.83,1.6985702947404229
357,3107.1,1.693678675875676
358,3128.64,1.6709199947021203
359,3150.33,1.6685563658880804
360,3172.17,1.6661227894335555
361,3186.81,1.5942986997222808
362,3208.9,1.6382942105336156
363,3231.1400000000003,1.5649497737044658
364,3253.54,1.6406795927254665
365,3268.56,1.6822872356582979
366,3291.21,1.6638931419451577
367,3306.4,1.6586242442187733
368,3311.31121,1.6527316703182573
369,3321.67,1.6411479342286497
370,3329.32,1.6867156101240135
371,3337.0,1.6553753435719085
372,3344.69,1.6247730962039806
373,3352.3999999999996,1.6049488872044062
374,3360.13,1.6466187165731858
375,3367.87,1.6341185651261423
376,3375.64,1.53529647123163
377,3383.4199999999996,1.5499963965212942
378,3391.22,1.6515173601793123
379,3399.04,1.6762213622056845
380,3406.8700000000003,1.6212313834162333
381,3414.7300000000005,1.6321294621793134
382,3422.6,1.6917455601265703
383,3430.49,1.659732696442181
384,3438.3999999999996,1.6711138711261457
385,3446.32,1.5193770649942873
386,3454.27,1.6321433164149597
387,3462.23,1.5440425870198091
388,3470.21,1.6044878959930124
389,3478.21,1.5134712433345696
390,3486.23,1.5748406290444807
391,3494.27,1.5602450531227456
392,3502.3199999999997,1.6167524963851876
393,3510.39,1.5913209780159832
394,3518.4900000000002,1.57138451719931
395,3526.6,1.5542510755668135
396,3534.73,1.6212766723026708
397,3542.88,1.6787253074068822
398,3551.04,1.6737399616952708
399,3559.23,1.6468786735361898
400,3567.43,1.620537404561286
401,3575.66,1.5169101931389128
402,3583.8999999999996,1.490835000900717
403,3592.16,1.4886818470308745
404,3600.4399999999996,1.6331227315293861
405,3608.74,1.5451456543962516
406,3617.0600000000004,1.560614615631471
407,3625.3999999999996,1.6237306152350446
408,3633.7599999999998,1.6188096532069718
409,3642.13,1.665850710363076
410,3650.53,1.5878328250717109
411,3658.9500000000003,1.7096669781487
412,3664.5899999999997,1.5986037980244976
413,3667.33,1.7033210544889812
414,3670.07,1.7964073109534644
415,3672.8100000000004,1.7129345674179477
416,3675.55,1.6106148238824312
417,3678.29,1.6314140803469144
418,3681.03,1.6964913368113976
419,3683.77,1.526961593275881
420,3686.51,1.5757698497403643
421,3689.25,1.6256211062048478
422,3691.99,1.584615362669331
423,3694.73,1.5923846191338145
424,3697.47,1.6680768755982978
425,3700.21,1.722318132062781
426,3702.94,1.6875743693430874
427,3705.6800000000003,1.6363076258075706
428,3708.42,1.5963708822720541
429,3711.16,1.6009031387365373
430,3713.9,1.6513583952010205
431,3716.64,1.782685651665504
432,3719.38,1.8862789081299873
433,3722.12,1.9823541645944707
434,3724.8599999999997,2.344366421058954
435,3727.6,2.7360606775234375
436,3730.3399999999997,2.895286933987921
437,3733.08,2.691163190452404
438,3735.82,2.2882874469168875
439,3738.5600000000004,1.9527607033813705
440,3741.3,1.767428959845854
441,3744.04,1.7190432163103373
442,3746.78,1.6853054727748207
443,3749.52,1.6562877292393041
444,3752.26,1.6503679857037874
445,3755.0,1.6780252421682706
446,3757.74,1.736161498632754
447,3760.48,1.7741067550972374
448,3763.22,1.8136710115617207
449,3765.96,1.776450268026204
450,3768.7,1.7466365244906874
451,3771.43,1.7427277617709938
452,3774.17,1.6805430182354768
453,3776.91,1.7064732746999602
454,3779.65,1.8726405311644436
455,3782.39,1.890916787628927
456,3785.13,1.9524000440934104
457,3787.87,1.9666153005578937
458,3790.6099999999997,1.933234557022377
459,3793.35,1.8407638134868602
460,3796.0899999999997,1.7248380699513437
461,3798.8300000000004,1.688028326415827
462,3801.57,1.7440515828803103
463,3801.8939600000003,1.7451745957139728
464,3804.3100000000004,1.7536886397786517
465,3807.05,1.7672113080363054
466,3809.79,1.9515319762939594
467,3812.53,2.0000596445516132
468,3815.27,2.0395063128092668
469,3818.01,2.0238129810669205
470,3820.75,1.884588649324574
471,3823.49,1.8919943175822278
472,3826.23,1.8548759858398816
473,3828.97,1.7232236540975352
474,3831.71,1.613929322355189
475,3834.45,1.6050399906128427
476,3837.1899999999996,1.5771666588704965
477,3839.93,1.5698953271281502
478,3842.66,1.6668224017060316
479,3845.4,1.7693380699636851
480,3848.14,1.9105617382213391
481,3850.8799999999997,2.012528406478993
482,3853.62,2.020866074736646
483,3856.3599999999997,2.0806137429943
484,3859.1,2.196901411251954
485,3861.84,2.2425480795096076
486,3864.5800000000004,2.279388747767261
487,3867.32,2.5139394160249147
488,3870.06,2.5532220842825684
489,3872.8,2.5040607525402225
490,3875.54,2.3710084207978763
491,3878.28,2.2521670890555296
492,3881.02,2.0994457573131835
493,3883.7599999999998,1.9785474255708373
494,3886.5,1.924228093828491
495,3889.24,1.8245627620861447
496,3891.98,1.8456304303437983
497,3894.72,1.854901098601452
498,3897.46,1.8990937668591057
499,3900.2,1.9642454351167595
500,3902.9399999999996,1.9883571033744134
501,3905.6800000000003,2.0456907716320667
502,3908.42,2.1437614398897207
503,3911.15,2.125801514467602
504,3913.89,2.1643161827252557
505,3916.6299999999997,2.18678185098291
506,3919.37,2.131365519240563
507,3922.1099999999997,2.0741111874982168
508,3924.85,2.0703518557558707
509,3927.59,1.9241315240135244
510,3930.3300000000004,1.885751192271178
511,3933.07,1.7470208605288315
512,3935.81,1.6139695287864853
513,3938.55,1.637094197044139
514,3941.29,1.7497318653017928
515,3944.03,1.8729875335594466
516,3946.77,1.9384962018171001
517,3949.5099999999998,1.995334870074754
518,3952.25,2.0779615383324077
519,3954.99,2.1400962065900613
520,3957.73,2.118449874847715
521,3960.47,2.093484543105369
522,3963.2099999999996,2.0332672113630226
523,3965.95,1.9080618796206763
524,3968.69,1.8064205478783302
525,3971.4300000000003,1.6929562161359837
526,3974.17,1.7158888843936375
527,3976.9100000000003,1.860651552651291
528,3979.65,1.949916220908945
529,3982.3799999999997,2.0489302954868265
530,3985.12,2.16154096374448
531,3987.8599999999997,2.2218096320021337
532,3990.6000000000004,2.277278300259787
533,3993.34,2.365472968517441
534,3996.0800000000004,2.4026436367750947
535,3998.82,2.397484305032749
536,4001.56,2.443981973290402
537,4004.3,2.452840641548056
538,4007.04,2.4291913098057094
539,4009.78,2.444140978063363
540,4012.52,2.505315646321017
541,4015.2599999999998,2.528604314578671
542,4018.0,2.5162849828363245
543,4020.74,2.6107896510939783
544,4023.48,2.574659319351632
545,4026.22,2.588593987609286
546,4028.9599999999996,2.5435736558669397
547,4031.7,2.506922324124593
548,4034.44,2.453562992382247
549,4037.1800000000003,2.4781136606399006
550,4039.92,2.5354203288975543
551,4042.6600000000003,2.524307997155208
552,4045.4,2.502030665412862
553,4048.14,2.4683963336705155
554,4050.88,2.471412001928169
555,4053.61,2.5021470765060507
556,4056.3500000000004,2.460391744763704
557,4059.09,2.433780413021358
558,4061.8300000000004,2.404864081279012
559,4064.57,2.3629997495366655
560,4067.31,2.411390417794319
561,4070.05,2.4100440860519727
562,4072.79,2.4561847543096262
563,4075.53,2.3846654225672803
564,4078.27,2.3719900908249336
565,4081.0099999999998,2.3607687590825877
566,4083.75,2.3451574273402414
567,4086.49,2.317366095597895
568,4089.23,2.306198763855549
569,4091.97,2.3078434321132026
570,4094.7099999999996,2.2522351003708563
571,4097.45,2.15177376862851
572,4100.1900000000005,2.0547694368861635
573,4102.93,2.0755341051438174
574,4105.67,2.057564773401471
575,4108.41,2.085297441659125
576,4111.15,2.0871891099167788
577,4113.89,2.174615778174432
578,4116.63,2.209673446432086
579,4119.37,2.2105501146897395
580,4122.11,2.2849467829473933
581,4124.84,2.273104857525275
582,4127.58,2.2413075257829282
583,4130.32,2.240593194040582
584,4133.06,2.251070862298236
585,4135.8,2.2486555305558893
586,4138.54,2.3197601988135435
587,4141.28,2.3855148670711968
588,4144.0199999999995,2.351743535328851
589,4146.76,2.3595052035865045
590,4149.5,2.325541871844158
591,4152.24,2.297283540101812
592,4154.98,2.2359422083594658
593,4157.719999999999,2.2993108766171195
594,4160.46,2.324163544874773
595,4163.2,2.369508213132427
596,4165.9400000000005,2.3674488813900805
597,4168.68,2.3331565496477342
598,4171.42,2.370189217905388
599,4174.16,2.3515328861630413
600,4176.9,2.3435485544206953
601,4179.64,2.330736222678349
602,4182.38,2.377040890936003
603,4185.12,2.3943215591936564
604,4187.86,2.3696032274513104
605,4190.599999999999,2.433904895708964
606,4193.33,2.426314970286845
607,4196.07,2.4098816385444985
