,lambda (Angstroms),Total Flux (erg/s/cm^2/Angstrom)
0,102.06,42.922798345602644
1,103.96000000000001,42.80045899439827
2,104.712855,42.75198331429315
3,105.89,42.35384145011101
4,108.11,41.602978184845846
5,110.11999999999999,40.92314252611901
6,113.98,39.61758748018014
7,117.99000000000001,38.26129843061745
8,120.22644299999999,37.50487371698765
9,121.02,37.279846686269266
10,124.98,36.15691909524197
11,127.01,35.5812769217289
12,127.89,35.33173745922254
13,130.87,34.486706094475295
14,132.07999999999998,34.14358934186649
15,133.92,33.62182501369831
16,137.04,32.7370942156047
17,138.038426,32.45397298551558
18,139.91,32.07462466867758
19,142.84,31.480744898250745
20,146.84,30.669988139686875
21,150.96,29.834907935133817
22,154.83,29.050500214164195
23,158.489319,28.308795329642667
24,159.17000000000002,28.204489946065614
25,162.12,27.75244147471763
26,165.9,27.173206693386845
27,170.16,26.520418235354683
28,172.92,26.097485105161976
29,176.95,25.47994141931562
30,179.82000000000002,25.04015240462169
31,181.91,24.71988797112964
32,181.970086,24.71068059929284
33,186.14,24.223197760549198
34,190.92000000000002,23.664393464045574
35,194.01999999999998,23.30198921998838
36,198.07999999999998,22.827356569910368
37,202.23000000000002,22.3422028994154
38,205.04000000000002,22.013701621679488
39,208.929613,21.55898807196894
40,209.82,21.48073161433386
41,216.20000000000002,20.919993866199977
42,220.22,20.56667648956901
43,222.77,20.342557382944214
44,226.91,19.97869396622784
45,230.05999999999997,19.701865235056037
46,233.8,19.373211594241003
47,239.8,18.845912332470895
48,239.88329199999998,18.83859181900791
49,245.95,18.427703750523797
50,252.26,18.000360124367916
51,256.95,17.682689518112124
52,259.92,17.48157080131197
53,264.15000000000003,17.195099738111754
54,269.06,16.862564855033728
55,274.06,16.523934097555696
56,275.42287,16.431632347091266
57,279.16,16.237391773288568
58,283.69,16.001943494423305
59,290.3,15.65836643475875
60,295.7,15.377705882966382
61,301.19,15.092355236209139
62,308.21000000000004,14.727490806149053
63,316.227766,14.310770287166731
64,318.31,14.229940559303435
65,327.98,13.854556890006203
66,337.95,13.467523361672342
67,348.21999999999997,13.06884151680186
68,357.15,12.722181426328303
69,363.078055,12.492057711458996
70,366.30999999999995,12.398103105504239
71,374.84000000000003,12.150126249597697
72,385.34,11.84485437292822
73,395.23,11.557361556916298
74,405.36999999999995,11.262582690421775
75,413.84999999999997,11.016054865911757
76,416.86938299999997,10.928273810681068
77,421.54999999999995,10.82435914231224
78,430.38,10.62832559192005
79,441.42,10.383237444835475
80,450.66,10.1780999732723
81,460.1,9.968517996162303
82,469.73,9.754722097982825
83,478.630092,9.557136944617497
84,479.57,9.541089485891568
85,489.60999999999996,9.369649684137032
86,499.86,9.194649219682352
87,505.65,9.095777179021221
88,511.5,8.995937942731477
89,519.81,8.854050852668609
90,529.48,8.688930107023854
91,540.56,8.499716734606697
92,549.5408739999999,8.346378809034768
93,550.61,8.332454340343189
94,559.56,8.215912539268235
95,569.96,8.08047581490181
96,580.5600000000001,7.942390283874493
97,589.99,7.8195935866134
98,599.5799999999999,7.694659251623592
99,609.32,7.567702641638111
100,620.65,7.420281385098536
101,629.29,7.307746197747969
102,630.957344,7.286030831822873
103,639.51,7.1977329201497415
104,649.9000000000001,7.090476008543683
105,657.43,7.012728389776252
106,665.04,6.9341880615517955
107,674.2900000000001,6.838685740958334
108,685.25,6.7254804363459755
109,694.78,6.627218436152932
110,704.4499999999999,6.527307264660094
111,715.89,6.409323726305589
112,724.43596,6.32110929757451
113,725.85,6.310276243969289
114,734.2600000000001,6.245854593486793
115,744.47,6.167688259241101
116,754.8299999999999,6.08834527918181
117,765.33,6.007830501229822
118,774.19,5.9401272033065275
119,784.9599999999999,5.857635542490065
120,795.8800000000001,5.774038836859998
121,805.1,5.703461927784065
122,814.42,5.632105249499065
123,825.75,5.545435772111826
124,831.763771,5.499114325823929
125,835.31,5.4786638237565
126,844.98,5.423765142162361
127,854.77,5.3677575563261035
128,864.66,5.311293665454746
129,874.6800000000001,5.254091111737758
130,884.8100000000001,5.196297091382161
131,895.0500000000001,5.137829185387955
132,905.42,5.078437863548118
133,915.9000000000001,5.0200491710696715
134,924.37,4.997944424896731
135,935.0799999999999,4.974174761537555
136,945.91,4.976601286936261
137,954.66,4.98885108386504
138,954.992586,4.987412080500997
139,965.71,4.942367399542544
140,974.65,4.713558783470293
141,985.93,4.7808494241308095
142,995.06,4.7543537094172015
143,1004.26,4.815744975204146
144,1015.89,4.750549578367426
145,1025.29,4.531714345584523
146,1034.78,4.5451580734451875
147,1044.35,4.710461521877912
148,1054.02,4.652366871025712
149,1066.22,4.481872258264922
150,1076.09,4.502626808842874
151,1086.04,4.351787079992884
152,1096.09,4.4233083518579726
153,1096.4782,4.420617818838821
154,1106.24,4.3628795723404945
155,1113.9,4.308373522776331
156,1124.21,4.218529698232398
157,1134.6100000000001,4.294535781330662
158,1145.1100000000001,4.200853672920255
159,1155.71,4.192302873001179
160,1163.72,4.171951953156668
161,1174.49,3.957819967672851
162,1185.35,4.06491628983123
163,1196.32,3.845399921330073
164,1204.61,3.7119949252612847
165,1215.76,3.6124977720445197
166,1224.19,3.744711287863593
167,1235.51,3.890269149082088
168,1244.0800000000002,3.910276676789022
169,1255.5900000000001,3.825699554141043
170,1258.92541,3.7776648727396274
171,1264.2900000000002,3.7074767696759756
172,1275.99,3.8402660031648512
173,1284.84,3.852647647726949
174,1293.7399999999998,3.653212988586009
175,1305.71,3.6093387620784725
176,1314.76,3.7453363918284146
177,1323.88,3.6865378763941017
178,1336.13,3.557771969149547
179,1345.3899999999999,3.670485363346726
180,1354.71,3.619286433100257
181,1364.1000000000001,3.5062139576695337
182,1373.56,3.516564037054556
183,1386.27,3.4853676757420433
184,1395.8799999999999,3.3635441440179488
185,1405.5500000000002,3.355597987850206
186,1415.3,3.3442100657576033
187,1425.11,3.3391100192213523
188,1434.9899999999998,3.3053502275008473
189,1441.6100000000001,3.327148397218483
190,1445.43977,3.323662965292204
191,1448.26,3.3238830521906313
192,1454.95,3.2867203512575367
193,1465.03,3.2078600722731423
194,1475.19,3.1888686775825232
195,1485.41,3.1856758461122343
196,1495.71,3.179956498935721
197,1506.08,3.11831687551626
198,1513.03,3.0267562485379327
199,1516.52,3.066788675853852
200,1523.52,3.0295260515591336
201,1534.08,2.922233178337388
202,1544.71,2.956884728872694
203,1555.42,2.9044813637017755
204,1566.2,2.894249022287909
205,1573.43,2.918175890337793
206,1584.34,2.9325285359013114
207,1595.3200000000002,2.9216118052218816
208,1606.38,2.889236158836227
209,1613.79,2.8780013165471043
210,1624.98,2.817718557138833
211,1636.24,2.8382867214876155
212,1643.79,2.8357680267125978
213,1655.19,2.7582467385754854
214,1659.58691,2.7725577167629893
215,1666.66,2.800419231641976
216,1670.51,2.710473616119159
217,1678.22,2.7910738886695694
218,1685.96,2.816694772008114
219,1693.74,2.7586099697308373
220,1705.48,2.714452091487234
221,1713.36,2.664935725170403
222,1725.23,2.6459551936753805
223,1733.2,2.6819225597229512
224,1745.21,2.649462478572553
225,1753.2700000000002,2.6881911769845255
226,1765.42,2.6069678461787524
227,1773.57,2.611436176955127
228,1785.86,2.6097415964939787
229,1794.1,2.650259059634754
230,1806.5400000000002,2.6270778331142752
231,1814.88,2.5542421322154976
232,1823.26,2.5606066457008985
233,1835.89,2.5132226875052677
234,1844.37,2.4458031369511146
235,1852.88,2.4362623971850956
236,1865.7299999999998,2.4393837181024467
237,1874.34,2.4851109142968744
238,1882.99,2.4146004248754798
239,1896.04,2.3727159177137236
240,1904.7900000000002,2.3985619642527753
241,1905.46072,2.3956203894175903
242,1913.59,2.3634422579234897
243,1926.85,2.3381084093034996
244,1935.74,2.3474582647158893
245,1944.68,2.3709010079539956
246,1953.65,2.3179183838875312
247,1967.2,2.3707846846566967
248,1976.28,2.3809266138068095
249,1985.3999999999999,2.3338608532174945
250,1994.56,2.3049039028887535
251,2003.77,2.3169635403857285
252,2013.02,2.2832620881432764
253,2026.9699999999998,2.3007244915181744
254,2036.3300000000002,2.254466892492298
255,2045.73,2.2755652037269956
256,2055.17,2.224964625222267
257,2064.6600000000003,2.219748734543254
258,2074.19,2.267773854124815
259,2078.97,2.2366035302633103
260,2083.76,2.264728983966948
261,2093.38,2.215038801634799
262,2103.04,2.2068417295632226
263,2112.75,2.2080745453173622
264,2127.3900000000003,2.1989344006871465
265,2137.21,2.137680069657863
266,2147.08,2.1505478264542957
267,2156.9900000000002,2.167472893511301
268,2166.94,2.13194067082888
269,2176.95,2.1170793135373196
270,2186.9900000000002,2.1006446889411876
271,2187.7616199999998,2.1022830705118825
272,2197.0899999999997,2.125627013841073
273,2207.23,2.098377985933283
274,2217.42,2.0519227040417274
275,2222.53,2.03168216690082
276,2232.79,2.0765224694319917
277,2243.1,2.0390518179793973
278,2253.45,1.9956370433397903
279,2263.85,2.0032803147164167
280,2274.2999999999997,2.0173605321092767
281,2284.7999999999997,2.035348595518371
282,2295.3399999999997,1.9828630357404518
283,2305.94,1.9849239911820131
284,2316.58,1.9415403234365618
285,2327.27,1.7987108017073439
286,2332.64,1.8773289638508521
287,2343.41,1.8484142957476086
288,2354.22,1.897870804457352
289,2365.09,1.8300532283865756
290,2376.01,1.8431218983320332
291,2386.97,1.7871737450904783
292,2392.48,1.822375976079441
293,2403.52,1.79230847646386
294,2414.61,1.8023793228645122
295,2425.76,1.8414724844846453
296,2436.96,1.8121759921210123
297,2442.57,1.8465166151424426
298,2453.85,1.8347837764047834
299,2465.17,1.8145890144801116
300,2476.5499999999997,1.7823289677749203
301,2482.26,1.7791553828288176
302,2493.7200000000003,1.7298489897496
303,2505.23,1.8086441426866164
304,2511.01,1.7137238421632415
305,2511.88643,1.714942019131286
306,2516.79,1.7227489867330354
307,2522.6,1.7005244900811678
308,2534.24,1.7137936785445511
309,2545.94,1.699308312309292
310,2557.69,1.755100000491831
311,2563.58,1.7228157309084398
312,2575.42,1.7574999370430153
313,2587.3,1.7377572067118288
314,2593.2699999999995,1.721725464196915
315,2605.24,1.6917197518177653
316,2617.27,1.672861884739973
317,2623.3,1.7082692875264165
318,2635.4100000000003,1.753269547517101
319,2647.57,1.822710961925584
320,2653.68,1.8732882917805047
321,2665.92,1.747594133257464
322,2672.0699999999997,1.7884270266466231
323,2684.4,1.794473386075619
324,2696.79,1.731046890805973
325,2703.01,1.7670559203800489
326,2715.49,1.7003750430624391
327,2728.02,1.6796791201626275
328,2734.31,1.7184000859216209
329,2746.9300000000003,1.5942110809738455
330,2753.26,1.618335310267077
331,2765.97,1.6501742232713386
332,2772.35,1.6791261069823682
333,2785.14,1.6064655470551064
334,2798.0,1.4718153233127618
335,2804.45,1.5039642432087086
336,2817.4,1.6391745374184006
337,2823.89,1.706172820848586
338,2836.92,1.6757312421267545
339,2843.46,1.635941779974738
340,2856.59,1.5701152100885027
341,2863.17,1.6932039114707247
342,2876.39,1.7198474595365258
343,2883.02,1.695141515336546
344,2884.0315,1.6960003758081492
345,2896.33,1.708577829636456
346,2909.7000000000003,1.8120102867117442
347,2929.87,1.7530981298836643
348,2950.1699999999996,1.7242229207309607
349,2970.62,1.7458496127421534
350,2991.22,1.7412366059172426
351,3011.95,1.7502104467677084
352,3032.8300000000004,1.7514766887820703
353,3046.83,1.7537301307457231
354,3067.95,1.7673958146223194
355,3089.21,1.766924572918552
356,3110.6299999999997,1.7855460591229408
357,3132.19,1.753461319746966
358,3146.64,1.7516938652023075
359,3168.46,1.7661159211770863
360,3190.42,1.6868032515715017
361,3212.53,1.7331206831298132
362,3227.36,1.6500379448670253
363,3249.73,1.7633848717760907
364,3272.26,1.8279310265933115
365,3287.3599999999997,1.8075114104255374
366,3310.15,1.7887775605935121
367,3311.31121,1.7883011654689343
368,3325.43,1.7842274591296001
369,3333.1,1.8274482155444534
370,3340.7799999999997,1.7363495159702773
371,3348.4799999999996,1.875619904418044
372,3356.2,1.8232568808877527
373,3363.94,1.6279467453794036
374,3371.69,1.6667376538820255
375,3379.46,1.8215072504065901
376,3387.25,1.8045935349530966
377,3395.06,1.7502819075215457
378,3402.89,1.8938433681119364
379,3410.73,1.7457608727132987
380,3418.6,1.7343201093475744
381,3426.48,1.786062189992821
382,3434.38,1.86645395866001
383,3442.29,1.7206534713381703
384,3450.23,1.7648467160492438
385,3458.1800000000003,1.7817797047712882
386,3466.15,1.7484697815152752
387,3474.14,1.8091839462812043
388,3482.15,1.7604601990690756
389,3490.18,1.8070725398788894
390,3498.2200000000003,1.697758024699674
391,3506.2900000000004,1.832887441553372
392,3514.37,1.7345930024180416
393,3522.47,1.8256996513046528
394,3530.59,1.7159023882132065
395,3538.73,1.8287622131437025
396,3546.89,1.855228126096141
397,3555.07,1.8581971270705213
398,3563.2599999999998,1.813980172055873
399,3571.48,1.6925926490741379
400,3579.71,1.7134325701033741
401,3587.96,1.5814977791545526
402,3596.2300000000005,1.7469602762276728
403,3604.52,1.822909761322736
404,3612.8300000000004,1.667002034439741
405,3617.7799999999997,1.7666111198704484
406,3620.5,1.674675990854594
407,3623.21,1.648721917827769
408,3625.92,1.743603944800944
409,3628.63,1.776354871774119
410,3631.34,1.774838798747294
411,3634.0499999999997,1.767109725720469
412,3636.76,1.876602652693644
413,3639.48,1.81659862367779
414,3642.19,1.7455715506509648
415,3644.8999999999996,1.7262444776241401
416,3647.61,1.8587064045973147
417,3650.32,1.8621243315704898
418,3653.0299999999997,1.7798372585436648
419,3655.7400000000002,1.8040031855168395
420,3658.45,1.8540001124900147
421,3661.17,1.7975350834741608
422,3663.88,1.8829280104473356
423,3666.59,1.8712079374205106
424,3669.2999999999997,1.8919088643936857
425,3672.01,1.7755437913668604
426,3674.7200000000003,1.6571082183400354
427,3677.43,1.6933986453132106
428,3680.1499999999996,1.7593526162973565
429,3682.86,1.7636355432705315
430,3685.57,1.5600987702437066
431,3688.2799999999997,1.5966901972168814
432,3690.9900000000002,1.8872303241900563
433,3693.7,1.8507322511632314
434,3696.41,1.6524292781364065
435,3699.1200000000003,1.750512105109581
436,3701.84,1.7614510760937274
437,3704.5499999999997,1.8169840030669022
438,3707.26,1.8451779300400772
439,3709.9700000000003,1.8728078570132523
440,3712.68,1.8593177839864272
441,3715.39,2.003265710959602
442,3718.1,1.8454416379327772
443,3720.82,2.023306608916923
444,3723.5299999999997,2.166312535890098
445,3726.2400000000002,2.4552704628632727
446,3728.95,2.736472389836448
447,3731.66,2.403777316809623
448,3734.3700000000003,2.220687243782798
449,3737.08,1.992862170755973
450,3739.79,1.9578330977291478
451,3742.51,1.7341790687132939
452,3745.2200000000003,1.830039995686469
453,3747.93,1.6257125226596438
454,3750.64,1.6989798496328188
455,3753.35,1.6668877766059937
456,3756.06,1.9267397035791687
457,3758.77,1.8491966305523437
458,3761.48,1.9083065575255187
459,3764.2,1.8235255285096648
460,3766.91,1.9374234554828398
461,3769.6200000000003,1.9171553824560146
462,3772.33,1.8984313094291894
463,3775.04,1.9956862364023646
464,3777.7500000000005,2.108078163375539
465,3780.46,2.0520000903487143
466,3783.18,2.2101330613328605
467,3785.89,2.0675979883060354
468,3788.6,2.1116079152792104
469,3791.31,1.9740058422523854
470,3794.02,1.8913797692255603
471,3796.73,1.8128216961987353
472,3799.44,1.7987666231719102
473,3801.8939600000003,1.9528797726461296
474,3802.15,1.9689815010911793
475,3804.8700000000003,2.0093356644412665
476,3807.58,2.0907439264555086
477,3810.29,2.24140018846975
478,3812.9999999999995,2.159158450483992
479,3815.71,2.0778947124982334
480,3818.42,2.0946859745124753
481,3821.1299999999997,2.0868512365267167
482,3823.85,1.8944573998768044
483,3826.56,1.907143661891046
484,3829.27,1.7950409239052876
485,3831.98,1.7438641859195294
486,3834.69,1.661471447933771
487,3837.4,1.6666267099480128
488,3840.11,1.7494279719622545
489,3842.82,1.8880722339764962
490,3845.54,2.014959397326584
491,3848.2499999999995,2.1265286593408255
492,3850.96,2.144939921355067
493,3853.67,2.1495311833693087
494,3856.3799999999997,2.16703744538355
495,3859.09,2.178030707397792
496,3861.8,2.1994909694120337
497,3864.5099999999998,2.2485162314262754
498,3867.23,2.317826394776363
499,3869.94,2.1969876567906046
500,3872.65,2.171905918804846
501,3875.36,2.0596891808190883
502,3878.07,2.00004044283333
503,3880.7799999999997,1.9695367048475714
504,3883.49,1.8993809668618131
505,3886.21,1.9344271302119007
506,3888.92,1.947113392226142
507,3891.6299999999997,1.900944654240384
508,3894.34,2.0363129162546256
509,3897.05,2.0145831782688672
510,3899.7599999999998,2.016801440283109
511,3902.4700000000003,2.1779647022973507
512,3905.18,2.1383859643115923
513,3907.9,2.23394212766168
514,3910.61,2.2412823896759217
515,3913.32,2.315648651690163
516,3916.0299999999997,2.349271913704405
517,3918.74,2.379582175718647
518,3921.4500000000003,2.235509437732888
519,3924.16,2.0878976997471304
520,3926.8799999999997,1.9761988630972176
521,3929.59,1.9391051251114593
522,3932.3,1.7996263871257008
523,3935.0099999999998,1.7690846491399426
524,3937.7200000000003,1.8425479111541843
525,3940.43,1.907914173168426
526,3943.14,2.059286435182668
527,3945.8500000000004,2.138058697196909
528,3948.57,2.158455860546997
529,3951.2799999999997,2.1695231225612384
530,3953.99,2.2028073845754803
531,3956.7000000000003,2.173471646589722
532,3959.41,2.1668039086039634
533,3962.12,2.071607170618205
534,3964.83,1.856139432632447
535,3967.54,1.7078866946466886
536,3970.2599999999998,1.669316857996776
537,3972.9700000000003,1.7215791200110178
538,3975.68,1.8325093820252596
539,3978.39,2.0977136440395014
540,3981.1000000000004,2.280753906053743
541,3983.81,2.329552168067985
542,3986.52,2.418153430082226
543,3989.24,2.440318593432314
544,3991.9500000000003,2.5008658554465555
545,3994.66,2.4301081174607972
546,3997.37,2.4990523794750388
547,4000.08,2.5572276414892805
548,4002.79,2.502435903503522
549,4005.5,2.5499171655177637
550,4008.21,2.5540194275320056
551,4010.93,2.612671590882093
552,4013.64,2.613723852896335
553,4016.3500000000004,2.6885041149105766
554,4019.06,2.6909493769248183
555,4021.77,2.6876706389390597
556,4024.4799999999996,2.621846900953302
557,4027.19,2.527705162967543
558,4029.91,2.613056326317631
559,4032.62,2.6250275883318723
560,4035.33,2.7092598503461143
561,4038.04,2.6038981123603557
562,4040.75,2.5957613743745975
563,4043.46,2.607130636388839
564,4046.17,2.521085898403081
565,4048.88,2.5611861604173227
566,4051.6000000000004,2.58112832376741
567,4054.31,2.600254585781652
568,4057.02,2.5970898477958935
569,4059.7299999999996,2.528516109810135
570,4062.44,2.496958371824377
571,4065.15,2.4909306338386186
572,4067.8599999999997,2.5479758958528604
573,4070.58,2.5156160592029475
574,4073.29,2.4645153212171893
575,4076.0,2.452274583231431
576,4078.71,2.430732845245673
577,4081.42,2.5131951072599144
578,4084.13,2.563576369274156
579,4086.8399999999997,2.5670376312883976
580,4089.55,2.5642858933026393
581,4092.27,2.481731056652727
582,4094.9799999999996,2.379192318666969
583,4097.69,2.2595965806812104
584,4100.400000000001,2.2074788426954517
585,4103.11,2.245432104709694
586,4105.82,2.3186313667239355
587,4108.530000000001,2.3241266287381768
588,4111.24,2.331654890752419
589,4113.96,2.3703890541025063
590,4116.67,2.367788316116748
591,4119.38,2.3818305781309896
592,4122.09,2.4119148401452315
593,4124.8,2.4789391021594733
594,4127.51,2.599396364173715
595,4130.22,2.5388426261879564
596,4132.94,2.586424789538044
597,4135.650000000001,2.5810000515522855
598,4138.36,2.6056993135665274
599,4141.07,2.553355575580769
600,4143.780000000001,2.531362837595011
601,4146.49,2.517841099609252
602,4149.2,2.525972361623494
603,4151.91,2.5080456236377358
604,4154.63,2.5706147869878233
605,4157.34,2.554985049002065
606,4160.05,2.5865003110163065
607,4162.76,2.571209573030548
