,lambda (Angstroms),Total Flux (erg/s/cm^2/Angstrom)
0,100.03,107.80801263044965
1,101.89,107.50811846907989
2,104.02,107.1646912842855
3,104.712855,107.05297990300815
4,105.96,105.99672843116319
5,107.93,104.32826534183947
6,109.92999999999999,102.63439418516568
7,114.05999999999999,99.13655024663427
8,118.07,95.74033857750334
9,120.22644299999999,93.91397027814813
10,121.1,93.29368665657593
11,125.06,90.48182304444066
12,127.10000000000001,89.03328724424988
13,127.98,88.40842866377551
14,130.96,86.29243028898729
15,131.87,85.6462697114518
16,134.01,84.12672725438945
17,137.13,81.91131955998216
18,138.038426,81.26627662722598
19,140.0,80.27069156313357
20,142.93,78.78358771808273
21,146.94,76.74833638069929
22,151.05,74.6623306458479
23,154.93,72.69306002513608
24,158.489319,70.8865491137056
25,158.9,70.7289656594087
26,161.85999999999999,69.59317650746259
27,166.01000000000002,68.00076941946948
28,169.88,66.51580184590011
29,173.03,65.30710730930905
30,177.07,63.7569086021319
31,179.94,62.65565358002999
32,181.970086,61.87668410171736
33,182.03,61.85914511442084
34,185.84,60.74382078969857
35,191.04,59.22159336501656
36,194.15,58.31118427080747
37,198.20999999999998,57.12267593575959
38,201.9,56.04247993704554
39,205.18,55.082305715963884
40,208.929613,53.98465884368521
41,209.96,53.757888025206476
42,215.84,52.4637990946278
43,219.85000000000002,51.58126565762748
44,222.91,50.90781121445346
45,227.06,49.99446613726487
46,230.21,49.301204224390474
47,233.96,48.475892438939034
48,239.88329199999998,47.172275702959524
49,239.96,47.15926617836306
50,246.11,46.116238358388365
51,251.84,45.14444172737313
52,257.12,44.24896416605225
53,260.09999999999997,43.74356210282388
54,263.71,43.131313278763
55,269.24,42.19343625163729
56,274.24,41.34544617877635
57,275.42287,41.14483377735804
58,278.7,40.71828611422716
59,283.88,40.04406296898584
60,289.82,39.270919039072616
61,295.89,38.48085448248106
62,300.7,37.85479013877311
63,307.7,36.9436778169603
64,316.227766,35.833713165820136
65,317.78000000000003,35.682811285362824
66,328.20000000000005,34.66982123718666
67,338.17,33.700578380784656
68,347.64000000000004,32.77994351835683
69,357.38,31.83306036096895
70,363.078055,31.279118692741413
71,365.71,31.08750148329698
72,375.09000000000003,30.40459604713895
73,384.71,29.70421751509165
74,394.58,28.98563807090678
75,404.7,28.248857484940345
76,414.13,27.5623119039808
77,416.86938299999997,27.36287274389333
78,421.83,27.08707251394369
79,429.66999999999996,26.65118446210349
80,440.69,26.038494976219333
81,450.95000000000005,25.468059876260806
82,460.4,24.942659111043643
83,470.03999999999996,24.40669485737332
84,478.630092,23.929103394944
85,479.88000000000005,23.875657440063886
86,489.93,23.44592020418492
87,500.19,23.007203646623037
88,505.97999999999996,22.759625333549668
89,511.84,22.509066476889664
90,520.16,22.15330621567114
91,529.83,21.739820708011052
92,539.6800000000001,21.318635925820754
93,549.5408739999999,20.897001660909226
94,549.71,20.891485153013523
95,559.9300000000001,20.558128314615214
96,570.34,20.218573542585993
97,579.61,19.916192532642274
98,590.38,19.564906883171837
99,599.97,19.252097529408154
100,609.72,18.934088778479484
101,619.63,18.610861127785835
102,629.6999999999999,18.282410177727204
103,630.957344,18.241397874538258
104,639.93,18.009387010533473
105,650.3299999999999,17.740502277583946
106,657.86,17.54581665568116
107,665.4799999999999,17.34880080550026
108,674.73,17.109626905460058
109,685.7,16.82596824778243
110,695.24,16.579406760601618
111,704.91,16.329349358930184
112,716.36,16.033397976802576
113,724.43596,15.824606196002433
114,726.33,15.788260512360083
115,734.74,15.626886241512949
116,744.96,15.430850098480166
117,755.32,15.232089149992138
118,765.8299999999999,15.030452829016351
119,774.6999999999999,14.860333498673418
120,785.48,14.653564297619656
121,794.57,14.479189213561341
122,805.6199999999999,14.267204155129615
123,814.9499999999999,14.08822823729088
124,824.39,13.90726331759445
125,831.763771,13.765534365538771
126,835.8599999999999,13.706657117297368
127,845.5400000000001,13.568301561037185
128,855.3299999999999,13.42798051289905
129,865.23,13.286193286882952
130,875.25,13.142706190090907
131,885.3900000000001,12.997570749522906
132,895.6400000000001,12.850780256076948
133,906.01,12.702091672855042
134,914.3900000000001,12.584086948334345
135,924.98,12.469593614356524
136,935.6899999999999,12.37146380760275
137,944.35,12.344113559938165
138,954.992586,12.278180396439776
139,955.28,12.27648887867592
140,964.12,12.198365074589033
141,975.2900000000001,11.76339549906295
142,984.3100000000001,11.877624614349859
143,995.71,11.742951474690297
144,1004.92,11.772957132649546
145,1014.22,11.633687100295692
146,1025.97,11.202402976085178
147,1035.46,11.206961286403665
148,1045.04,11.40383900640905
149,1054.71,11.268089636101333
150,1064.47,10.999038575480515
151,1074.32,10.979022624546596
152,1084.26,10.710171983299572
153,1094.29,10.758897051739451
154,1096.4782,10.72360136444615
155,1104.42,10.61570642713209
156,1114.6399999999999,10.47925115145366
157,1124.95,10.298212173053987
158,1135.36,10.367096558297387
159,1145.86,10.182477240819544
160,1153.81,10.153223600443464
161,1164.48,10.070351011158838
162,1175.26,9.68954855188159
163,1186.1299999999999,9.827340689883101
164,1194.35,9.482430641343305
165,1205.3999999999999,9.18775727390234
166,1213.76,8.949728554462837
167,1224.99,9.145598281579394
168,1236.3300000000002,9.347277738703323
169,1244.9,9.34954741291427
170,1256.41,9.179477798231416
171,1258.92541,9.114750928288835
172,1265.1200000000001,8.97579265209694
173,1273.89,9.158777992325414
174,1285.6799999999998,9.12410348129847
175,1294.59,8.79972814166742
176,1303.57,8.743823462106608
177,1315.63,8.895407325636295
178,1324.75,8.773925266215961
179,1333.93,8.578634601141546
180,1346.27,8.68712570495219
181,1355.6000000000001,8.584848025742572
182,1365.0,8.388919806603193
183,1374.46,8.37475598180973
184,1383.99,8.32414561708651
185,1393.5800000000002,8.085066646709205
186,1406.48,8.03881743108176
187,1416.23,8.005686512293574
188,1426.0400000000002,7.965778987851305
189,1435.93,7.898565989203597
190,1442.56,7.915708564427632
191,1445.43977,7.907538362432728
192,1445.8799999999999,7.907378654084749
193,1455.8999999999999,7.823534180077983
194,1466.0,7.681026177336633
195,1476.16,7.636671028044344
196,1486.3899999999999,7.606058541109294
197,1496.69,7.572809716531481
198,1503.6,7.468723672081707
199,1510.54,7.304871054356463
200,1517.51,7.343639863355749
201,1524.52,7.290463907987743
202,1535.0900000000001,7.091212223930705
203,1545.7299999999998,7.118370602230909
204,1556.44,7.0157759428883475
205,1563.63,7.013519547867525
206,1574.46,7.028489595423087
207,1585.38,7.025907923152242
208,1596.3700000000001,6.994133913238635
209,1603.7399999999998,6.943407078564999
210,1614.85,6.8999407755495135
211,1626.05,6.78218675270762
212,1633.55,6.828115433840281
213,1644.87,6.78738211789651
214,1656.28,6.645774082126332
215,1659.58691,6.6758189202370595
216,1663.92,6.722611986254148
217,1671.6000000000001,6.5844721710528775
218,1675.45,6.688957707703282
219,1683.19,6.715622558008251
220,1694.86,6.598675498971946
221,1706.6000000000001,6.505844049692918
222,1714.4799999999998,6.407002119512448
223,1726.3700000000001,6.362221833999021
224,1734.33,6.419023457826871
225,1746.3600000000001,6.346577391828004
226,1754.4199999999998,6.401178458166255
227,1766.5800000000002,6.2595796674309065
228,1774.73,6.251096232028517
229,1787.03,6.238875660807731
230,1795.28,6.293040667915742
231,1803.57,6.26984945202791
232,1816.07,6.100792765827925
233,1824.45,6.117439048199454
234,1837.1000000000001,6.022737525765068
235,1845.58,5.887578250646999
236,1854.1,5.85345675253309
237,1866.95,5.8456451151195035
238,1875.57,5.935220059515993
239,1884.23,5.782375780916643
240,1892.9199999999998,5.686520335070415
241,1905.46072,5.738026044555786
242,1906.04,5.741025150631229
243,1914.84,5.654989045088105
244,1923.68,5.608596525428876
245,1937.0100000000002,5.637888271236848
246,1945.9499999999998,5.658203216287356
247,1954.94,5.540236393692734
248,1968.49,5.633758361862128
249,1977.57,5.660144357506269
250,1982.13,5.564700148270286
251,1995.87,5.492860399388182
252,2005.09,5.526320445625955
253,2014.34,5.460642431276649
254,2023.6399999999999,5.514824649282211
255,2032.98,5.396446453171668
256,2047.07,5.406344330773644
257,2056.52,5.327355245843811
258,2066.01,5.321674746797874
259,2075.5499999999997,5.386133480106807
260,2080.33,5.276454493232246
261,2085.13,5.327625799299633
262,2094.75,5.227750704376354
263,2104.42,5.231478841807944
264,2114.14,5.222587211594403
265,2123.89,5.220559520793783
266,2133.7,5.119781708819006
267,2143.5499999999997,5.100484482728123
268,2153.44,5.137193842521134
269,2163.38,5.081339434669015
270,2173.37,5.045451259171765
271,2183.4,4.9835166695584086
272,2187.7616199999998,4.999157768916962
273,2193.48,5.025093594111191
274,2203.6,4.978315196424611
275,2213.77,4.912634503294916
276,2223.9900000000002,4.851413514722104
277,2234.25,4.901038089794801
278,2244.5699999999997,4.841902510335759
279,2254.93,4.783776494522224
280,2265.34,4.797512183265573
281,2275.79,4.805799435654431
282,2286.3,4.814505533511549
283,2296.85,4.726036195014176
284,2307.4500000000003,4.708316561073686
285,2312.77,4.651326525926196
286,2323.45,4.380061019276723
287,2334.17,4.549607076272755
288,2344.9500000000003,4.51389597873705
289,2355.77,4.551495444846854
290,2366.6400000000003,4.46829461551354
291,2377.57,4.469933631648488
292,2383.0499999999997,4.404709851083029
293,2394.05,4.449206853597614
294,2405.1,4.381034560669087
295,2416.2,4.382156972297443
296,2427.35,4.404467088482682
297,2432.9500000000003,4.346259998853744
298,2444.18,4.38336724233
299,2455.46,4.346113190363139
300,2466.79,4.320798842953164
301,2472.48,4.277098021526618
302,2483.89,4.296120801407659
303,2495.36,4.197474426756958
304,2506.88,4.281310756663144
305,2511.88643,4.191392242122253
306,2512.65,4.178064610885553
307,2518.45,4.216368521466217
308,2524.25,4.158222432046882
309,2535.8999999999996,4.149804269678735
310,2547.61,4.109776327075215
311,2553.48,4.159144660714611
312,2565.27,4.127156344463929
313,2577.11,4.163747044683768
314,2583.05,4.1520098013818965
315,2594.97,4.128464127954574
316,2606.9500000000003,4.077914674291877
317,2612.9599999999996,4.063211854048739
318,2625.02,4.072373026738879
319,2637.14,4.0697684191936485
320,2643.22,4.123220022009241
321,2655.42,4.108597040816846
322,2667.6699999999996,4.019018076094975
323,2673.82,4.0531981019693
324,2686.17,4.028868170188474
325,2692.3599999999997,3.9829030092392186
326,2704.7799999999997,3.980000500517124
327,2717.27,3.9313714148537624
328,2723.53,3.9222026769632383
329,2736.11,3.949575420946818
330,2742.4100000000003,3.835936496232712
331,2755.07,3.8260168665691285
332,2767.79,3.8336384566701733
333,2774.17,3.8662081583089045
334,2786.97,3.8263613747627856
335,2793.3999999999996,3.66483309287204
336,2806.29,3.7084541389728614
337,2812.76,3.8128166702585338
338,2825.74,3.806085546006298
339,2832.2599999999998,3.7451850937624935
340,2845.33,3.717173799157198
341,2851.8900000000003,3.7016961600898113
342,2865.05,3.7332466951314576
343,2878.2799999999997,3.6987036532318367
344,2884.0315,3.6955249596611317
345,2884.91,3.695421292793673
346,2898.23,3.672684854244954
347,2911.61,3.7047907155225923
348,2931.7900000000004,3.659375557120705
349,2952.11,3.6232740983136504
350,2972.5800000000004,3.6113018890724886
351,2993.18,3.5901128294551015
352,3006.99,3.578964339488299
353,3027.84,3.5605970291473996
354,3048.83,3.529842418401333
355,3069.96,3.5050455072500997
356,3091.2400000000002,3.4831828456647593
357,3112.67,3.452066433645312
358,3127.04,3.4282277420578433
359,3148.71,3.405969529343824
360,3170.54,3.3775241161667573
361,3192.51,3.3195934025845233
362,3207.25,3.324912059926257
363,3229.48,3.278655645591571
364,3251.87,3.2730780307938376
365,3266.8799999999997,3.2664815373541782
366,3289.5200000000004,3.2372966718329317
367,3311.31121,3.214844016429529
368,3312.32,3.2141120944405897
369,3319.96,3.232361015519929
370,3327.6099999999997,3.2358475346635087
371,3335.2799999999997,3.2363582499355674
372,3342.9700000000003,3.1714431613361063
373,3350.68,3.216139268865126
374,3358.4,3.142957974458384
375,3366.1400000000003,3.1546688761801236
376,3373.91,3.117499572094583
377,3381.6800000000003,3.128961268009041
378,3389.4800000000005,3.1730267581162197
379,3397.29,3.161435846287639
380,3405.12,3.117703130587538
381,3412.9700000000003,3.120711611015916
382,3420.84,3.132559287572775
383,3428.73,3.1268091602581136
384,3436.63,3.124058631007692
385,3444.55,3.0691072978857505
386,3452.49,3.1393791608922896
387,3460.45,3.0632902200273078
388,3468.4300000000003,3.0574794752908057
389,3476.43,3.0403469266827843
390,3484.4399999999996,3.043046976139003
391,3492.47,3.054406221723701
392,3500.5199999999995,3.0257076634368794
393,3508.5899999999997,3.0113893012785375
394,3516.68,2.988756135248675
395,3524.79,3.016600165347293
396,3532.9100000000003,3.0164587935101506
397,3541.06,3.027861215865729
398,3549.2200000000003,3.0424592362855467
399,3557.4,3.0102404528338447
400,3565.6,3.0276618655106224
401,3573.8199999999997,2.9782044743158798
402,3582.0600000000004,2.927513279249617
403,3590.32,2.8810272803118346
404,3598.5899999999997,2.9348818794382927
405,3606.89,2.92605827275747
406,3615.2000000000003,2.936885264140887
407,3623.54,2.9450110497170248
408,3631.89,3.0155454333574023
409,3640.26,2.9472670131262593
410,3648.6600000000003,2.9382803870878367
411,3657.07,2.9643583591136538
412,3665.5,2.946447527267951
413,3671.93,2.8371250825742536
414,3674.6299999999997,2.8299725599190464
415,3677.34,2.7692136353280787
416,3680.05,2.870266710737111
417,3682.75,2.9146921880819043
418,3685.46,2.8661712634909366
419,3688.17,2.872602338899969
420,3690.87,2.9187628162447625
421,3693.5800000000004,2.8458128916537944
422,3696.29,2.7715969670628273
423,3699.0,2.86838304247186
424,3701.7,2.849837519816653
425,3704.4100000000003,2.770228595225685
426,3707.12,2.811780670634718
427,3709.8199999999997,2.852079147979511
428,3712.53,2.899117223388543
429,3715.2400000000002,2.908784298797576
430,3717.94,3.0332017761423686
431,3720.6499999999996,3.2655888515514016
432,3723.36,3.8710659269604335
433,3726.06,4.448758404305226
434,3728.77,4.716779479714258
435,3731.48,4.378953555123291
436,3734.1800000000003,3.659851032468084
437,3736.89,3.298488107877117
438,3739.6000000000004,3.179915183286149
439,3742.31,3.0776592586951823
440,3745.0099999999998,2.9952517360399753
441,3747.72,2.955076811449008
442,3750.4300000000003,2.82857988685804
443,3753.13,2.8239133642028333
444,3755.8399999999997,2.903256439611866
445,3758.5499999999997,3.0215645150208985
446,3761.25,3.055346992365691
447,3763.96,3.0260020677747237
448,3766.6699999999996,2.935281143183756
449,3769.3700000000003,2.909280620528549
450,3772.08,2.9263096959375816
451,3774.79,3.0044337713466143
452,3777.4900000000002,3.1014682486914067
453,3780.2000000000003,3.220198324100439
454,3782.91,3.3044643995094725
455,3785.6099999999997,3.305941876854265
456,3788.32,3.2614519522632976
457,3791.03,3.14944302767233
458,3793.74,3.0266031030813627
459,3796.4399999999996,2.9300355804261558
460,3799.15,2.928402655835188
461,3801.86,2.9598727312442206
462,3801.8939600000003,2.9603112111592713
463,3804.56,2.9953065492220987
464,3807.27,3.1349204025173076
465,3809.98,3.2102962558125165
466,3812.68,3.224122364261618
467,3815.3900000000003,3.2285092175568266
468,3818.1,3.252121070852036
469,3820.7999999999997,3.2997531793011374
470,3823.5099999999998,3.1277930325963466
471,3826.2200000000003,3.090637885891555
472,3828.92,3.046179994340656
473,3831.6299999999997,2.934190847635865
474,3834.34,2.883437700931074
475,3837.05,2.763946554226283
476,3839.75,2.840648662675384
477,3842.4599999999996,3.006191515970593
478,3845.17,3.070830369265802
479,3847.87,3.1935784777149037
480,3850.58,3.373750331010112
481,3853.29,3.3817941843053214
482,3855.9900000000002,3.440306292754422
483,3858.7,3.4527581460496313
484,3861.4100000000003,3.34386199934484
485,3864.11,3.4198151077939416
486,3866.82,3.4551019610891505
487,3869.5299999999997,3.3581638143843593
488,3872.23,3.342777922833461
489,3874.94,3.3311297761286696
490,3877.65,3.2016966294238784
491,3880.3500000000004,3.1715877378729793
492,3883.06,3.1761155911681884
493,3885.77,3.0435894444633975
494,3888.4800000000005,2.974081297758606
495,3891.1800000000003,2.904022406207708
496,3893.89,2.885763259502917
497,3896.6,3.0329731127981256
498,3899.3,3.142356221247227
499,3902.01,3.1656870745424355
500,3904.72,3.253769927837645
501,3907.4199999999996,3.318048036286746
502,3910.13,3.345410889581955
503,3912.84,3.4156287428771637
504,3915.54,3.400853851326265
505,3918.25,3.387891704621474
506,3920.96,3.301268557916683
507,3923.66,3.3074046663657843
508,3926.3700000000003,3.251212519660993
509,3929.08,3.100867372956202
510,3931.79,3.0507702262514114
511,3934.49,3.0381973347005125
512,3937.2000000000003,2.991383187995721
513,3939.91,3.1741340412909302
514,3942.6099999999997,3.250368149740032
515,3945.32,3.2272320030352404
516,3948.03,3.2631748563304495
517,3950.73,3.2448359647795506
518,3953.4399999999996,3.23876681807476
519,3956.15,3.2875576713699686
520,3958.85,3.1698137798190693
521,3961.56,3.061997633114278
522,3964.2699999999995,2.962480486409488
523,3966.9700000000003,2.7831245948585885
524,3969.68,2.756566448153798
525,3972.39,2.8040913014490068
526,3975.09,2.833482409898108
527,3977.8,2.958468263193317
528,3980.5099999999998,3.0953151164885258
529,3983.2200000000003,3.1763189697837344
530,3985.92,3.286828078232836
531,3988.63,3.3701289315280447
532,3991.3399999999997,3.4184497848232542
533,3994.04,3.446905893272355
534,3996.75,3.431974746567564
535,3999.46,3.452913599862773
536,4002.1600000000003,3.444374708311874
537,4004.87,3.447588561607083
538,4007.58,3.372687414902292
539,4010.2799999999997,3.326449523351393
540,4012.9900000000002,3.449511376646602
541,4015.7,3.4212642299418112
542,4018.3999999999996,3.4887783383909126
543,4021.11,3.470283191686121
544,4023.82,3.45057004498133
545,4026.5299999999997,3.4309028982765395
546,4029.2299999999996,3.3652530067256405
547,4031.94,3.3675778600208495
548,4034.65,3.4155707133160584
549,4037.35,3.3791798217651596
550,4040.06,3.4009626750603683
551,4042.77,3.4213385283555775
552,4045.47,3.4402286368046786
553,4048.1800000000003,3.399415490099887
554,4050.89,3.3916113433950965
555,4053.59,3.411533451844198
556,4056.2999999999997,3.398852305139407
557,4059.01,3.3235761584346157
558,4061.71,3.3398412668837167
559,4064.42,3.3531371201789257
560,4067.13,3.354475973474135
561,4069.84,3.375789826769344
562,4072.54,3.384786935218445
563,4075.2500000000005,3.3636667885136537
564,4077.96,3.337575641808863
565,4080.66,3.281210750257964
566,4083.37,3.2630906035531733
567,4086.0800000000004,3.220355456848382
568,4088.78,3.215566565297483
569,4091.49,3.1744254185926923
570,4094.2000000000003,3.1092772718879007
571,4096.9,3.0948283803370025
572,4099.610000000001,3.050217233632211
573,4102.32,2.9907900869274204
574,4105.0199999999995,2.944316195376522
575,4107.73,3.0275710486717307
576,4110.4400000000005,3.093334901966939
577,4113.14,3.0973610104160403
578,4115.849999999999,3.1392118637112496
579,4118.56,3.145521717006458
580,4121.27,3.160459570301667
581,4123.97,3.1875546787507685
582,4126.679999999999,3.207086532045978
583,4129.39,3.2036903853411864
584,4132.09,3.2329424937902873
585,4134.8,3.2441753470854966
586,4137.51,3.296342200380706
587,4140.21,3.287615308829807
588,4142.92,3.2912521621250157
589,4145.63,3.2849480154202246
590,4148.33,3.2724701238693257
591,4151.04,3.2064309771645347
592,4153.75,3.2563938304597437
593,4156.45,3.304400938908845
594,4159.16,3.295143792204054
595,4161.87,3.300187645499263
596,4164.58,3.250793498794472
597,4167.28,3.2611496072435733
598,4169.99,3.247578460538782
599,4172.7,3.244886313833991
600,4175.400000000001,3.184299422283092
601,4178.11,3.2199622755783013
602,4180.82,3.24362012887351
