,lambda (Angstroms),Total Flux (erg/s/cm^2/Angstrom)
0,100.05999999999999,38.7502252661482
1,101.92,38.642427270195846
2,104.05,38.518981178040185
3,104.712855,38.48056481215088
4,105.99000000000001,38.09175854052091
5,107.96,37.4920236983782
6,109.96000000000001,36.883155838758555
7,114.09,35.62584370847631
8,118.1,34.40506365043816
9,120.22644299999999,33.75770226240711
10,121.13000000000001,33.527082092247646
11,125.10000000000001,32.5137956189388
12,127.13000000000001,31.995666767851084
13,128.01,31.771059188395395
14,130.99,31.010456246530715
15,131.9,30.778191597969936
16,134.04,30.231986802719188
17,136.85,29.514773980833354
18,138.038426,29.211445021243915
19,140.04000000000002,28.846280994433236
20,142.97,28.31173658675609
21,146.98,27.580159006752115
22,151.09,26.830337216781217
23,154.97,26.122476322945673
24,158.489319,25.480417525154085
25,158.94,25.4182565691022
26,161.9,25.00999347974122
27,166.05,24.437597657918634
28,169.92,23.90382136257508
29,173.08,23.46797304852493
30,177.11,22.912128578912643
31,179.99,22.514899855415525
32,181.970086,22.241793246082327
33,182.07000000000002,22.231279813517983
34,185.89000000000001,21.829321110824964
35,191.09,21.282152236300576
36,194.2,20.95490327713175
37,197.81,20.575042079295784
38,201.95000000000002,20.139411799521675
39,205.23,19.794274765411803
40,208.929613,19.40498394141787
41,210.01,19.319515164902267
42,215.9,18.85356206051961
43,219.91,18.536334075762728
44,222.97,18.294259670160145
45,227.10999999999999,17.966747777484887
46,229.74,17.758700608013086
47,234.01999999999998,17.42013533620804
48,239.88329199999998,16.956310658924885
49,240.01999999999998,16.94797701118075
50,246.18,16.572449930638587
51,251.91000000000003,16.223145195529874
52,257.18,15.901863392919731
53,260.16,15.72021009175073
54,263.78,15.49953464398242
55,269.31,15.162417452827864
56,274.31,14.857610288473836
57,275.42287,14.789768303539859
58,278.77,14.633173623579552
59,283.95,14.390827904391541
60,289.9,14.11245213559045
61,295.96999999999997,13.828470302373033
62,300.78000000000003,13.60343336877702
63,307.78,13.27594115915809
64,316.227766,12.880716371247939
65,317.87,12.823331673803862
66,328.28000000000003,12.459570418218679
67,338.26,12.110834033312036
68,347.72999999999996,11.77991867717297
69,356.65000000000003,11.46822293174599
70,363.078055,11.243604566378712
71,365.8,11.172374967189468
72,375.18,10.92691073160793
73,384.81,10.674897340346817
74,394.68,10.416617028001316
75,404.8,10.15178872447624
76,414.23,9.905014350418789
77,416.86938299999997,9.83594359149771
78,421.93,9.734810359900601
79,429.78000000000003,9.577933056823143
80,440.8,9.357708756244216
81,451.07,9.152468135027467
82,460.52000000000004,8.96361454252403
83,470.16,8.770964551367513
84,478.630092,8.601696261425799
85,480.0,8.580641382426991
86,490.06,8.426017340483646
87,500.32,8.268325543400474
88,506.11,8.179333208637455
89,511.96999999999997,8.089284055130499
90,520.29,7.9614065649936565
91,529.96,7.812777730937975
92,539.82,7.661223212134458
93,549.5408739999999,7.51181905847082
94,549.85,7.508194755747871
95,560.07,7.388376690447271
96,570.49,7.266210760806542
97,579.76,7.157515703921556
98,590.53,7.0312470363856
99,600.13,6.9186825842593995
100,609.88,6.804342283678103
101,619.79,6.688192186464703
102,629.86,6.5701230235192
103,630.957344,6.55725703297006
104,640.1,6.472280408848821
105,650.5,6.375622021056921
106,658.03,6.3056340145169205
107,665.65,6.234817204767279
108,674.91,6.148747877730837
109,684.3000000000001,6.061459439958245
110,695.4200000000001,5.958137641889214
111,705.09,5.868239864831072
112,716.55,5.761757709136728
113,724.43596,5.688463345754175
114,726.52,5.674085782184592
115,734.9300000000001,5.616067435251336
116,745.15,5.545577306313302
117,755.52,5.474042186983711
118,764.27,5.413663880042927
119,774.9,5.340365799654639
120,785.68,5.266004578074795
121,794.78,5.203235288720379
122,805.83,5.127012133875733
123,815.1600000000001,5.062651081880932
124,824.6,4.997555638218991
125,831.763771,4.948067810790937
126,834.15,4.935741172870176
127,845.76,4.875967714110517
128,855.5500000000001,4.825491612490528
129,865.4599999999999,4.77441886886243
130,875.48,4.72278064623523
131,885.62,4.670533046099921
132,895.87,4.61770495006551
133,904.16,4.574956199096899
134,914.63,4.521345087364286
135,925.2199999999999,4.472704282723564
136,935.93,4.426038780174731
137,944.59,4.3959300809727795
138,954.992586,4.3546087059249
139,955.53,4.352533847346837
140,964.37,4.3142963967596835
141,975.54,4.216695183320939
142,984.57,4.206561744784514
143,995.97,4.151684757828231
144,1005.18,4.126177038234602
145,1014.48,4.0761462086123705
146,1023.87,3.991565068961537
147,1035.73,3.9501121729701754
148,1045.31,3.9447634343700706
149,1054.98,3.8954669757413627
150,1064.74,3.828676547084054
151,1074.6,3.7927021495060753
152,1084.54,3.7254421407915617
153,1094.57,3.6967311020484455
154,1096.4782,3.6874736632689746
155,1104.7,3.655105762318648
156,1114.9199999999998,3.6127778659940106
157,1125.24,3.5639712167307747
158,1135.65,3.5415722478228018
159,1146.1599999999999,3.488543355976232
160,1154.1,3.463447020651611
161,1164.78,3.4238210228094252
162,1175.56,3.3492505620286424
163,1183.71,3.338190257532967
164,1194.66,3.256641570756569
165,1205.72,3.193613267747714
166,1214.07,3.1421159773748446
167,1225.31,3.128622365076514
168,1233.8,3.132068968589609
169,1245.22,3.1046755870018035
170,1253.85,3.069182014400861
171,1258.92541,3.038519751443821
172,1265.4499999999998,3.0068417988724665
173,1274.22,3.0290597712047744
174,1286.01,3.010553982572838
175,1294.93,2.9566509915128827
176,1303.9,2.9181587426555065
177,1315.97,2.9232608103580118
178,1325.09,2.8966066881083714
179,1334.27,2.8501732565018254
180,1343.52,2.8570079639788903
181,1355.96,2.814429623980477
182,1365.35,2.7681172096247626
183,1374.82,2.7545767827931735
184,1384.3500000000001,2.7294586466046784
185,1393.9399999999998,2.6906662010592792
186,1403.6100000000001,2.6657660430380044
187,1416.5900000000001,2.625398618827442
188,1426.4099999999999,2.6051478874139042
189,1436.3000000000002,2.5703812950839753
190,1442.93,2.5642307111459153
191,1445.43977,2.5634769742246593
192,1446.26,2.5639601563050167
193,1456.28,2.538451304977808
194,1466.3799999999999,2.502910993360562
195,1476.54,2.479514236525788
196,1483.36,2.473175096800083
197,1493.6399999999999,2.4595892495302523
198,1503.99,2.4335644995066383
199,1510.93,2.4007238693458772
200,1517.91,2.3998720090400973
201,1524.9099999999999,2.3724502336618083
202,1535.4799999999998,2.3314043178405917
203,1546.13,2.3351237417293365
204,1553.26,2.307941518379736
205,1564.03,2.283522651833425
206,1574.87,2.2732292825333316
207,1585.79,2.2621262529432
208,1596.78,2.2470513205992857
209,1604.15,2.224807116379572
210,1615.27,2.2025243360643465
211,1626.47,2.167672595459084
212,1633.9699999999998,2.16329914326806
213,1645.3000000000002,2.145042154691485
214,1656.7,2.103100963361128
215,1659.58691,2.104776761695164
216,1664.35,2.110475405969091
217,1672.03,2.0683160053809733
218,1675.8899999999999,2.093200008731217
219,1683.6200000000001,2.095160017253854
220,1695.2900000000002,2.0656807437039415
221,1703.12,2.046942670448088
222,1714.93,2.024244222408288
223,1726.81,2.0061384871235446
224,1734.78,2.0067500393778035
225,1746.81,1.9867380314253231
226,1754.8700000000001,1.9900750000789391
227,1762.97,1.9579842760211597
228,1775.19,1.951420802689546
229,1783.3899999999999,1.9415319968532756
230,1795.7500000000002,1.938746749031774
231,1804.0400000000002,1.9230225595948613
232,1816.5400000000002,1.8964518372834729
233,1824.9299999999998,1.8841914660680692
234,1833.35,1.8660198003191177
235,1846.06,1.8343850162728979
236,1854.5800000000002,1.8273577687454552
237,1863.14,1.8196435285066166
238,1876.05,1.8120181809034144
239,1884.71,1.7905755588860843
240,1893.41,1.775429044157358
241,1905.46072,1.76117394412173
242,1906.54,1.760312430267877
243,1915.3400000000001,1.7504390498161155
244,1924.18,1.7401097644532098
245,1933.06,1.7317703741791597
246,1946.46,1.7269868289457961
247,1955.44,1.7101453263938848
248,1969.0,1.7096937615159438
249,1978.0900000000001,1.7025721954583852
250,1982.6499999999999,1.6905711355879276
251,1996.39,1.6706278486098363
252,2005.6,1.6636826678188452
253,2014.86,1.6482318308889234
254,2024.16,1.6441134890478575
255,2033.5,1.631076442295647
256,2042.8899999999999,1.6282465394045065
257,2057.05,1.6011511008593993
258,2066.55,1.5925661344626114
259,2076.0899999999997,1.5968637631546798
260,2085.67,1.5892264869356028
261,2095.29,1.570886905805382
262,2104.97,1.5595886173084448
263,2114.68,1.5512920751281487
264,2124.44,1.5438343768089222
265,2134.25,1.5176243223507657
266,2144.1,1.5174246629814647
267,2154.0,1.5119433474732331
268,2163.94,1.4939111270538572
269,2173.93,1.4827250504955511
270,2183.96,1.4719233690261
271,2187.7616199999998,1.4713945977748328
272,2194.04,1.4726640229230383
273,2204.17,1.4595597052225542
274,2214.35,1.4420721954307552
275,2224.5699999999997,1.431758431965904
276,2234.83,1.438250914828
277,2245.15,1.4210332671805177
278,2255.51,1.4071205658599832
279,2265.92,1.4034903724481338
280,2276.38,1.4023759869449688
281,2286.89,1.4014574093504886
282,2297.4500000000003,1.3849333396646928
283,2302.7400000000002,1.381692816403532
284,2313.37,1.3678896777898952
285,2324.05,1.3318394470849424
286,2334.7799999999997,1.3434409242886751
287,2345.55,1.3286345478193549
288,2356.3799999999997,1.337352040840457
289,2367.2599999999998,1.314657841770243
290,2372.71,1.3175323038168731
291,2383.66,1.295845735818818
292,2394.67,1.3000725373111843
293,2405.7200000000003,1.2872589851304985
294,2416.83,1.2839646024402342
295,2422.4,1.2917056034677077
296,2433.58,1.2788412518496022
297,2444.81,1.281087008140181
298,2456.1,1.270817633921182
299,2467.43,1.2621823060291306
300,2473.12,1.2526457460374472
301,2484.54,1.2475251723810277
302,2496.0,1.2298516450515564
303,2507.5199999999995,1.243675387212507
304,2511.88643,1.2244633174954835
305,2513.3,1.218500907520576
306,2519.1000000000004,1.2189955457220862
307,2524.9100000000003,1.2106785651963579
308,2536.56,1.2081452479631847
309,2542.41,1.204388992528501
310,2554.14,1.2123916254774176
311,2565.9300000000003,1.2014558460629015
312,2577.78,1.2058670542849526
313,2583.72,1.2011448303051202
314,2595.65,1.1916842887092614
315,2607.63,1.1806206534772083
316,2613.64,1.1751186984067046
317,2625.7000000000003,1.1789400133567414
318,2637.82,1.1815204159433454
319,2643.9,1.1972058297821704
320,2656.1099999999997,1.1990520638236257
321,2662.23,1.1736685027534952
322,2674.5200000000004,1.17637728697704
323,2686.8599999999997,1.1730397775643917
324,2693.05,1.1580450854035893
325,2705.49,1.1602207887185532
326,2717.9700000000003,1.1412919171245612
327,2724.24,1.1358576751458496
328,2736.81,1.1400795350067088
329,2743.12,1.1111505181190415
330,2755.7799999999997,1.1106047094347522
331,2762.1400000000003,1.1161524989108909
332,2774.89,1.1179593216814525
333,2787.69,1.09828395081582
334,2794.12,1.0571356092012876
335,2807.02,1.0618666510632673
336,2813.4900000000002,1.0979230345397795
337,2826.48,1.1044578078566105
338,2832.9900000000002,1.0947411164241676
339,2846.07,1.0795240211958494
340,2852.63,1.0657182361272128
341,2865.8,1.0825843723537458
342,2872.4,1.0848237123761542
343,2884.0315,1.0771565430839987
344,2885.66,1.0763375214740625
345,2892.31,1.0770920825485701
346,2912.36,1.0940494027807328
347,2932.5499999999997,1.0764086348249908
348,2952.88,1.0660819786813431
349,2973.3399999999997,1.0633641906489268
350,2987.07,1.059728591935091
351,3007.77,1.0559335527234086
352,3028.6200000000003,1.050419869024685
353,3049.62,1.0454665408389205
354,3070.76,1.0416689244652506
355,3092.04,1.0354995199036756
356,3113.47,1.0341191708550597
357,3127.84,1.024344268996515
358,3149.5299999999997,1.018061856170361
359,3171.3599999999997,1.0154182551563018
360,3193.34,0.9940322096552012
361,3208.08,0.9991012247286217
362,3230.3199999999997,0.9783161154499833
363,3252.7099999999996,0.994971461684304
364,3267.7200000000003,1.00358875668105
365,3290.3700000000003,0.9945043391378323
366,3311.31121,0.983664836197556
367,3313.18,0.9829022743479351
368,3320.8199999999997,0.9771791366220282
369,3328.4700000000003,0.9826893382446473
370,3336.15,0.9849535579128452
371,3343.84,0.9692020169295698
372,3351.5499999999997,0.9726517546433469
373,3359.27,0.9755242317056503
374,3367.02,0.9677255268135325
375,3374.78,0.936454061269941
376,3382.56,0.9480203744234021
377,3390.36,0.9710228662739158
378,3398.1699999999996,0.966490097472956
379,3406.0,0.9593042073690485
380,3413.86,0.95747263531072
381,3421.73,0.9678896026009178
382,3429.61,0.961240509239642
383,3437.52,0.962152933923945
384,3445.44,0.9203567979567744
385,3453.39,0.9640620800351827
386,3461.3500000000004,0.934602301462117
387,3469.33,0.9430841015861042
388,3477.3199999999997,0.9266372410586177
389,3485.34,0.93678039857671
390,3493.3799999999997,0.9280697347918551
391,3501.43,0.9350921103555262
392,3509.5,0.93695236461625
393,3517.5899999999997,0.9183228975740265
394,3525.7,0.9232575092288555
395,3533.83,0.941425599580737
396,3541.97,0.9484939292811451
397,3550.14,0.9470054770271318
398,3558.3199999999997,0.934115264121645
399,3566.5200000000004,0.9396977299132105
400,3574.75,0.8984763137503553
401,3582.99,0.8937602369360262
402,3591.2500000000005,0.8817538388187496
403,3599.53,0.9257968193985258
404,3607.8199999999997,0.9037415393268282
405,3616.14,0.9075081773007094
406,3624.48,0.9107083939716434
407,3632.8300000000004,0.9379829499911037
408,3641.2099999999996,0.9297444240561429
409,3649.6,0.9059867374697081
410,3651.3,0.9011723267191791
411,3653.98,0.8472285721242274
412,3656.66,0.8340444175292758
413,3659.33,0.9562308235857977
414,3662.0099999999998,0.9190242689908461
415,3664.69,0.8294384143958943
416,3667.36,0.9592526204524163
417,3670.04,0.8112506658574647
418,3672.72,0.808273511262513
419,3675.39,0.931639717319035
420,3678.07,0.8703561627240832
421,3680.75,0.8979314081291315
422,3683.42,0.8805259141856536
423,3686.1,0.842331659590702
424,3688.77,0.8431449656472239
425,3691.45,0.8087922110522723
426,3694.13,0.8225661564573206
427,3696.8,0.8854310625138425
428,3699.48,0.9164223079188909
429,3702.16,0.8646873533239392
430,3704.83,0.9074813593804612
431,3707.5099999999998,0.8402437047855096
432,3710.19,0.8107749501905578
433,3712.86,0.8147709562470797
434,3715.54,0.906112801652128
435,3718.22,0.9256622470571765
436,3720.89,0.8962663531136984
437,3723.5699999999997,1.3271010985187468
438,3726.25,1.516958643923795
439,3728.92,1.645115749980317
440,3731.6,1.4391760953853654
441,3734.2799999999997,1.0725460407904137
442,3736.95,0.9199802468469357
443,3739.63,0.8505886922519841
444,3742.31,0.9373480376570325
445,3744.98,0.8815017437135543
446,3747.66,0.7990496891186026
447,3750.3399999999997,0.847519134523651
448,3753.0099999999998,0.917943340580173
449,3755.69,0.9244184859852214
450,3758.37,0.9396601313902697
451,3761.04,0.8671038374467916
452,3763.72,0.9041041828518399
453,3766.3999999999996,0.7623035282568884
454,3769.0699999999997,0.8423994343134102
455,3771.75,0.8832958797184586
456,3774.42,0.9170765857749805
457,3777.1,0.9408240311800289
458,3779.7799999999997,0.9593993765850772
459,3782.45,0.9662906826415991
460,3785.13,0.9666882280466474
461,3787.81,0.9879797734516957
462,3790.48,0.9899186795082178
463,3793.16,0.9772829249132662
464,3795.8399999999997,0.9171654703183145
465,3798.5099999999998,0.8688782763748364
466,3801.19,0.9130948217798847
467,3801.8939600000003,0.9125758208094881
468,3803.87,0.9112714519051452
469,3806.54,0.8865402933673101
470,3809.22,0.9546839458461874
471,3811.8999999999996,0.9713258983250646
472,3814.5699999999997,0.9392002397872294
473,3817.25,0.9782043922661066
474,3819.9300000000003,0.9184995447449837
475,3822.6,0.9161305862071487
476,3825.2799999999997,0.916364538686026
477,3827.96,0.867333291164903
478,3830.6299999999997,0.8075633326270679
479,3833.31,0.8217771851059451
480,3835.9900000000002,0.7857518375848223
481,3838.66,0.7804327790469873
482,3841.3399999999997,0.8026587315258644
483,3844.0200000000004,0.9102857840047416
484,3846.69,0.9030054254669064
485,3849.37,0.9243804779457838
486,3852.05,0.9438348304246609
487,3854.72,0.9589030718868258
488,3857.4,0.9811423243657029
489,3860.0699999999997,1.0061021658278682
490,3862.75,0.9590598183067451
491,3865.4300000000003,0.9885702707856221
492,3868.1,0.9971906122477872
493,3870.7799999999997,1.0176052647266645
494,3873.46,1.0210493172055415
495,3876.1299999999997,0.9462161586677065
496,3878.81,0.9219203111465836
497,3881.4900000000002,0.9333490636254608
498,3884.16,0.8783123050876258
499,3886.8399999999997,0.8626458575665029
500,3889.52,0.92052751004538
501,3892.1899999999996,0.9571896515075451
502,3894.8700000000003,0.9446510039864221
503,3897.55,0.9541451564652993
504,3900.22,0.9346274979274642
505,3902.9,0.9841953504063414
506,3905.5800000000004,0.9516542028852184
507,3908.25,0.9916775443473835
508,3910.9300000000003,0.9932009968262606
509,3913.61,1.0315600493051378
510,3916.2799999999997,0.9612406907673028
511,3918.96,1.01998664324618
512,3921.6400000000003,1.044599195725057
513,3924.31,1.0122680371872221
514,3926.9900000000002,0.9756522896660991
515,3929.67,0.9325750421449763
516,3932.3399999999997,0.8996535836071413
517,3935.02,0.8881029360860185
518,3937.7000000000003,0.9280810885648956
519,3940.3700000000003,0.9290733300270604
520,3943.05,0.9764735825059377
521,3945.73,1.0147778349848149
522,3948.4,0.9974005764469799
523,3951.08,0.9877154289258571
524,3953.7499999999995,1.031360770388022
525,3956.4300000000003,0.963657422866899
526,3959.11,0.9860612753457763
527,3961.7799999999997,0.9071398168079413
528,3964.46,0.8816778692868183
529,3967.1400000000003,0.8514143217656955
530,3969.81,0.8223751632278605
531,3972.4900000000002,0.8451223157067376
532,3975.17,0.8666895681856148
533,3977.84,0.9067263096477798
534,3980.52,0.949914862126657
535,3983.2000000000003,0.955265914605534
536,3985.8700000000003,0.987400756067699
537,3988.55,1.0221656085465762
538,3991.23,1.0098875610254534
539,3993.9,1.0286190024876183
540,3996.58,0.9969831549664956
541,3999.26,1.0272892074453726
542,4001.9300000000003,1.0425360489075375
543,4004.61,1.0354163013864146
544,4007.29,1.0309306538652918
545,4009.96,1.024597395327457
546,4012.64,1.0246115478063342
547,4015.32,1.043640400285211
548,4017.9900000000002,1.1039683417473762
549,4020.67,1.0731007942262534
550,4023.35,1.0682994467051306
551,4026.02,1.0882109881672952
552,4028.7000000000003,1.0241569406461726
553,4031.38,1.0040314931250496
554,4034.05,1.0815493345872147
555,4036.73,0.9984668870660918
556,4039.4,1.0453638285282567
557,4042.08,1.0760812810071338
558,4044.76,1.0676582334860112
559,4047.4300000000003,1.0712576749481761
560,4050.11,1.0736589274270532
561,4052.79,0.9989862799059304
562,4055.46,1.0239599213680952
563,4058.14,1.0540327738469726
564,4060.82,1.0461035263258496
565,4063.4900000000002,1.0470414677880147
566,4066.17,1.0397296202668918
567,4068.85,1.033460372745769
568,4071.52,1.0442211142079338
569,4074.2,1.0046694666868112
570,4076.88,1.0250566191656882
571,4079.55,1.034747160627853
572,4082.23,1.0380539131067303
573,4084.91,0.9954703655856074
574,4087.58,1.0066425070477725
575,4090.26,0.9652525595266495
576,4092.94,0.9947354120055267
577,4095.61,0.9905558534676917
578,4098.29,0.9289165059465689
579,4100.97,0.899283858425446
580,4103.64,0.9644404998876109
581,4106.32,0.943643052366488
582,4109.0,0.9727007048453653
583,4111.67,0.9902384463075302
584,4114.35,1.0096651987864074
585,4117.03,0.9983475512652846
586,4119.7,1.0043063927274494
587,4122.38,1.0422402452063266
588,4125.05,1.0236969866684915
589,4127.73,1.017180939147369
590,4130.41,1.044070791626246
591,4133.08,1.023812633088411
592,4135.76,1.0536109855672882
593,4138.44,1.0217420380461653
594,4141.11,0.9924565795083302
595,4143.79,1.0284834319872074
596,4146.47,1.0204582844660846
597,4149.14,1.0604132259282493
598,4151.82,1.0423593784071266
599,4154.5,1.0188453308860037
600,4157.17,1.0363284723481687
601,4159.85,1.0183156248270457
