,lambda (Angstroms),Total Flux (erg/s/cm^2/Angstrom)
0,100.09,6.280713378156764
1,101.94999999999999,6.263240481124564
2,104.09,6.243137255506822
3,104.712855,6.237286136539138
4,106.02000000000001,6.172784452976352
5,107.99,6.075573878314966
6,110.0,5.97638948488667
7,114.13,5.772592696399952
8,117.87,5.588040640986605
9,120.22644299999999,5.471760855395322
10,120.89000000000001,5.444308841723847
11,125.14000000000001,5.268482110526812
12,126.88,5.196496578274103
13,128.05,5.148092513483333
14,131.04,5.0243932368370885
15,131.95,4.986745631125475
16,134.09,4.898211700749469
17,136.9,4.781959203908617
18,138.038426,4.734861387099517
19,140.09,4.674193654167965
20,143.02,4.587549718875571
21,147.03,4.468968778887197
22,151.15,4.347134984622442
23,155.02,4.23269402070119
24,158.489319,4.13010172072719
25,159.0,4.118684706447736
26,161.95999999999998,4.052509615853305
27,166.11,3.959730353733643
28,169.98,3.873210900874559
29,173.14,3.8025645279900537
30,177.17,3.7124680505003265
31,180.05,3.6480814899226455
32,181.970086,3.60515519441751
33,182.14000000000001,3.602257170066921
34,185.95000000000002,3.537274463380394
35,191.16,3.448413601085515
36,193.82,3.4030451129655948
37,197.88,3.333798467417823
38,202.02,3.263187365820816
39,204.83,3.2152605188782695
40,208.929613,3.1453382430428887
41,210.09,3.1304588227466668
42,215.97000000000003,3.055060801057257
43,219.99,3.0035131720372683
44,223.04999999999998,2.9642754191099545
45,227.19,2.911189078413306
46,229.82,2.8774658005963047
47,234.1,2.822585494121987
48,239.88329199999998,2.748428683602184
49,240.1,2.746287358858995
50,246.26,2.6854183368452658
51,252.0,2.628700162220132
52,257.27,2.5766247789998062
53,260.25,2.547179489279869
54,263.87,2.511409721098596
55,268.78,2.4628927863912096
56,273.78,2.4134865016208384
57,275.42287,2.3972528859750333
58,278.87,2.3711119483205123
59,284.05,2.331830085387095
60,290.0,2.2867085253922235
61,296.07,2.24067761077806
62,300.88,2.2042013452964575
63,307.89,2.1510421951278444
64,316.227766,2.087814227466952
65,317.98,2.077889664444537
66,327.64,2.0231757405265682
67,338.37,1.962401112345595
68,347.85,1.908706587653178
69,356.78000000000003,1.8581275282677265
70,363.078055,1.8224558603882546
71,365.93,1.8103590018180775
72,375.31,1.7705720528342568
73,384.94,1.7297239322191296
74,394.82000000000005,1.6878174833026953
75,404.94,1.6448924278446075
76,414.38000000000005,1.604851076372873
77,416.86938299999997,1.594291856702315
78,422.08000000000004,1.577413660851636
79,429.93,1.5519862585965256
80,440.96000000000004,1.516259054784466
81,451.23,1.482992992779602
82,459.62,1.455816294907274
83,470.32,1.421157788990181
84,478.630092,1.3942411981597018
85,480.16999999999996,1.390405233377322
86,490.22999999999996,1.3653441799447075
87,500.49,1.3397872386819212
88,506.29,1.3253624855769544
89,512.15,1.3109616608879364
90,520.47,1.2902576152128113
91,530.15,1.266172733072522
92,540.0,1.241630684674087
93,549.5408739999999,1.2180389922329617
94,550.04,1.217099701042101
95,560.27,1.1977928944307663
96,569.37,1.1806212741845155
97,579.96,1.1604788016197025
98,589.38,1.1428179081036933
99,600.3399999999999,1.1220648079644728
100,610.09,1.103811001557775
101,620.01,1.0852021733952688
102,630.0799999999999,1.066267386918813
103,630.957344,1.0646054043437254
104,640.32,1.0505573560976007
105,650.72,1.0352455244558747
106,658.26,1.0241057332406234
107,664.3499999999999,1.0151233441821512
108,675.1400000000001,0.9989533648913601
109,684.53,0.9848439976484941
110,695.6600000000001,0.9690387208174931
111,705.34,0.9543364391432713
112,716.8,0.9379626229938305
113,724.43596,0.9266791080430876
114,726.7700000000001,0.9241363734707893
115,735.18,0.9150147011833392
116,745.41,0.9044061039347523
117,755.7800000000001,0.8933485380737702
118,764.53,0.8841037232990747
119,775.1700000000001,0.8729844487570451
120,784.14,0.8637412590200144
121,795.0500000000001,0.852046575796937
122,804.26,0.842305451010086
123,815.45,0.8302674235622183
124,824.8900000000001,0.8209158482692896
125,831.763771,0.8118137286322586
126,834.44,0.8090257176604807
127,844.1,0.8038363312803073
128,855.8499999999999,0.794560209275438
129,865.76,0.7874748595334586
130,875.7800000000001,0.7803416262322849
131,885.9200000000001,0.7734861199574444
132,894.12,0.7677939000902165
133,904.47,0.7593498361114592
134,914.95,0.7611005197445629
135,925.54,0.9378469198184722
136,934.1099999999999,1.1873959016157718
137,944.9200000000001,1.5704023745712918
138,954.992586,1.822146866862131
139,955.86,1.8438418380486936
140,964.71,1.9645855608481244
141,975.88,0.8902988917712475
142,984.91,1.6768542953733785
143,994.0200000000001,1.743573368221154
144,1005.5300000000001,2.228082518438267
145,1014.84,2.2204620144001534
146,1024.23,1.4421935796076852
147,1036.0900000000001,1.8294319702744928
148,1045.6699999999998,2.7142876374404303
149,1055.3500000000001,2.6169645161634234
150,1065.11,2.208538964132061
151,1074.97,2.4976776236577543
152,1084.91,2.152307852429092
153,1094.95,2.617026292757486
154,1096.4782,2.595978073429216
155,1105.09,2.4786425606417635
156,1115.31,2.4157827978563735
157,1125.6299999999999,2.1560110706601674
158,1136.05,2.6223303790531456
159,1143.9199999999998,2.4571442799219305
160,1154.5,2.544488445257603
161,1165.19,2.5697209497413778
162,1175.97,1.8183291862554183
163,1184.1200000000001,2.5338715867739183
164,1195.08,2.1466722873484905
165,1206.1299999999999,1.676719719953328
166,1214.49,1.4016937952091144
167,1225.73,2.118576695433402
168,1234.23,2.629166720514046
169,1245.6499999999999,2.7221783847988648
170,1254.2800000000002,2.630550356145448
171,1258.92541,2.579233753013874
172,1265.89,2.5036368417049637
173,1274.6599999999999,2.827612235437392
174,1286.46,2.8769231734126084
175,1295.3799999999999,2.3846709604243825
176,1304.36,2.4528451047478947
177,1316.42,2.862614924407311
178,1325.55,2.728408462010169
179,1334.74,2.5422463569247657
180,1343.99,2.8053426091511007
181,1356.42,2.75617979889957
182,1365.8300000000002,2.5419146706238744
183,1375.2900000000002,2.5769166734412936
184,1384.83,2.5772204860076977
185,1394.43,2.12388565588584
186,1404.0900000000001,2.2291781830757205
187,1413.8300000000002,2.4190235200145858
188,1423.6299999999999,2.4283312142651896
189,1433.49,2.475724265827531
190,1443.43,2.5542751271388573
191,1445.43977,2.5533151033445307
192,1446.76,2.5528747856784824
193,1453.44,2.4963559056273565
194,1463.51,2.3338954247718426
195,1473.6499999999999,2.3714996188259727
196,1483.87,2.3819131556339808
197,1494.1599999999999,2.3877123673516336
198,1504.51,2.245215586134695
199,1511.46,2.03073673787791
200,1518.43,2.1273112253095947
201,1525.44,2.141254384118219
202,1536.02,1.886478963318682
203,1546.66,1.929487549584554
204,1553.8,1.8840983903682311
205,1564.5700000000002,1.9788576586091562
206,1575.4199999999998,2.09610426960396
207,1586.34,2.1499935555084075
208,1593.66,2.1684494174883113
209,1604.71,2.173293385367812
210,1615.8300000000002,2.169608028156956
211,1623.29,2.1045792399561485
212,1634.54,2.228066564720346
213,1645.8700000000001,2.246275232238422
214,1653.47,2.1654557938569017
215,1659.58691,2.2267862764605675
216,1664.93,2.280891579195048
217,1672.61,2.1434462285201836
218,1676.4699999999998,2.324045385602869
219,1684.2099999999998,2.345572032188357
220,1695.8799999999999,2.233247499326942
221,1703.71,2.178916141802959
222,1715.5200000000002,2.075365935882366
223,1723.44,2.069439574248912
224,1735.3799999999999,2.1758700290590838
225,1743.3899999999999,2.1311396633161586
226,1755.48,2.210511111277212
227,1763.58,2.118002741424816
228,1775.81,2.0859795163266917
229,1784.0,2.1343941423648243
230,1796.37,2.223221244207523
231,1804.6599999999999,2.2391835323462437
232,1812.9899999999998,2.048549485325199
233,1825.56,2.1204789113690734
234,1833.99,2.0558415264486163
235,1846.7,1.9035282794333135
236,1855.22,1.9091348904033858
237,1863.78,1.953139166213693
238,1876.7,2.083204909609624
239,1885.3700000000001,1.9058865137305778
240,1894.07,1.8118881164817078
241,1902.81,1.951750384073073
242,1905.46072,1.9320765213964455
243,1916.0,1.854510291181065
244,1924.84,1.8059254384322623
245,1933.7299999999998,1.8963800344801292
246,1947.1299999999999,1.9518733119876002
247,1956.1200000000001,1.807618805628806
248,1965.1499999999999,1.9645314583073483
249,1974.2199999999998,2.0314772700232258
250,1983.3300000000002,1.9184152407764392
251,1997.08,1.881737659860598
252,2006.3,1.9496178179664847
253,2015.5600000000002,1.909099135109707
254,2024.86,1.9862036112902652
255,2034.2099999999998,1.856538536267493
256,2043.6000000000001,1.9120376202820566
257,2053.03,1.8459948633339558
258,2067.2599999999998,1.8621381908661434
259,2072.03,1.9781234060684294
260,2076.81,1.8307829110300498
261,2086.39,1.912454500471958
262,2096.02,1.820051538710536
263,2105.7000000000003,1.8631590257457837
264,2115.42,1.8766856718183669
265,2125.1800000000003,1.901885476928286
266,2134.99,1.835641730834875
267,2144.84,1.8080501437787992
268,2154.74,1.8775660055193937
269,2164.69,1.8568733160566575
270,2174.68,1.840105785631257
271,2184.72,1.797552704002526
272,2187.7616199999998,1.8150468703286724
273,2194.8,1.855918130345543
274,2204.93,1.8282860276455284
275,2215.11,1.7830261396409728
276,2225.34,1.7388294663318762
277,2235.61,1.7841741647791467
278,2245.93,1.7610040779218763
279,2256.29,1.709611362820973
280,2266.71,1.7394687053546203
281,2277.17,1.751833419644635
282,2282.42,1.7688579626678258
283,2292.96,1.6791834204705747
284,2303.54,1.7049592500296908
285,2314.17,1.651775294284266
286,2324.85,1.4019895532343
287,2335.5899999999997,1.5761658698188847
288,2346.3700000000003,1.5680095581598366
289,2357.2000000000003,1.6112484611962474
290,2362.63,1.5589381771230906
291,2373.54,1.563366823672236
292,2384.49,1.5178668419777486
293,2395.5,1.5564919179178116
294,2406.55,1.514163365614242
295,2417.6600000000003,1.524611870945223
296,2423.2400000000002,1.5581642309584431
297,2434.42,1.5094936368630667
298,2445.66,1.547976100402241
299,2456.95,1.5397447786368745
300,2462.61,1.5232528821628288
301,2473.98,1.4937123039101965
302,2485.4,1.507069940353023
303,2496.87,1.3878837914913087
304,2502.63,1.510329324408181
305,2511.88643,1.4418290132848501
306,2514.18,1.4249235684487858
307,2519.9700000000003,1.4712024076022823
308,2525.78,1.4320415225386924
309,2537.44,1.4304613039773402
310,2543.2900000000004,1.4037899704795775
311,2555.0299999999997,1.4456208550498797
312,2566.82,1.4293844290774658
313,2572.7400000000002,1.463954060819901
314,2584.61,1.4534027379791419
315,2596.54,1.4429022424871236
316,2602.53,1.4158488394697564
317,2614.5400000000004,1.4027354471093925
318,2626.6099999999997,1.4183568820977697
319,2632.6699999999996,1.4262414443206004
320,2644.82,1.4660399824406318
321,2657.03,1.4673743479094044
322,2663.15,1.3990227374809758
323,2675.44,1.4291892060814029
324,2687.79,1.421658502030571
325,2693.99,1.3806639947337969
326,2706.42,1.3846423938146193
327,2712.66,1.3585744380836728
328,2725.18,1.3596800781876064
329,2737.76,1.3832565456402812
330,2744.07,1.3002055551495322
331,2756.74,1.3064902636253184
332,2763.09,1.3190538247003964
333,2775.8500000000004,1.347346774199294
334,2782.25,1.3191990247316563
335,2795.09,1.2022300773622083
336,2807.9900000000002,1.2427109573415012
337,2814.4599999999996,1.325762173114061
338,2827.46,1.3322014320079218
339,2833.9700000000003,1.2857311993463092
340,2847.0499999999997,1.2813845613718249
341,2853.62,1.267477156058953
342,2866.79,1.30261875910758
343,2873.3999999999996,1.2911029053605354
344,2884.0315,1.287576585997691
345,2886.66,1.2867713169332142
346,2893.3199999999997,1.2755398190144884
347,2906.67,1.3005959966098348
348,2926.82,1.2772191523061822
349,2947.11,1.2542447840222561
350,2967.5299999999997,1.2546755006137902
351,2988.1000000000004,1.2447970843693168
352,3008.8199999999997,1.2349615352888361
353,3029.67,1.2327730710838158
354,3050.6699999999996,1.2204664740427882
355,3071.82,1.2107387441657531
356,3093.11,1.1985994903084447
357,3107.39,1.1897290443205457
358,3128.93,1.1729095690698919
359,3150.62,1.1682669609832304
360,3172.4599999999996,1.1564362200605613
361,3187.1,1.124426855266245
362,3209.19,1.1338008929502308
363,3231.44,1.1084539889424752
364,3246.35,1.1184163850433455
365,3268.86,1.1184428507865107
366,3291.51,1.1069614925494022
367,3306.71,1.0985952318339915
368,3311.31121,1.1085665261311144
369,3321.9700000000003,1.1318545103295248
370,3329.63,1.135915162857017
371,3337.3,1.11428038412149
372,3345.0,1.0930657115969065
373,3352.71,1.1129878078093038
374,3360.44,1.0850346414956633
375,3368.18,1.086640943919004
376,3375.95,1.0485253525532878
377,3383.73,1.0631388299245526
378,3391.5299999999997,1.0937314447697795
379,3399.35,1.1183263970889685
380,3407.1800000000003,1.0612349181451386
381,3415.04,1.0716111454122519
382,3422.9100000000003,1.1048044414163463
383,3430.8,1.0950123748944027
384,3438.71,1.0989015458464213
385,3446.6400000000003,1.053627354272402
386,3454.58,1.0661478314353638
387,3462.5499999999997,1.0329179148092686
388,3470.53,1.0516762669201547
389,3478.53,1.027375956505003
390,3486.5499999999997,1.0267279835638132
391,3494.59,1.0432038480965855
392,3502.6400000000003,1.046886781366339
393,3510.72,1.0205471208470356
394,3518.81,1.0241326290647133
395,3526.92,1.025587374756353
396,3535.05,1.0442422579219548
397,3543.2000000000003,1.054471578561519
398,3551.37,1.0603858366750452
399,3559.55,1.0444099635255524
400,3567.7599999999998,1.0415669965870027
401,3575.99,0.9903802671224153
402,3584.23,0.9755264063948089
403,3592.49,0.9708593831411646
404,3600.77,1.0111972973614825
405,3609.0699999999997,0.9980359490557623
406,3617.39,1.0077675382240043
407,3625.7299999999996,1.0390042648662086
408,3634.0899999999997,1.0361580289823749
409,3642.47,1.0398001305725033
410,3650.86,1.0092694008996128
411,3650.9599999999996,0.7650135882694233
412,3653.6400000000003,1.1232068097803474
413,3656.32,1.1447412312912715
414,3658.99,0.9945391840652147
415,3661.67,0.9462913055761388
416,3664.35,1.0432911270870628
417,3667.03,0.881607248597987
418,3669.7000000000003,0.9089795013719302
419,3672.38,1.0466902228828543
420,3675.06,0.7679208443937784
421,3677.74,1.1798744659047025
422,3680.41,1.2398333186786454
423,3683.09,0.8682328401895697
424,3685.77,1.2235641617004938
425,3688.45,1.074984483211418
426,3691.12,0.953039535985361
427,3693.7999999999997,0.9814514574962852
428,3696.4799999999996,1.0223573790072094
429,3699.1600000000003,0.9794409005181334
430,3701.83,0.9284306532920764
431,3704.5099999999998,1.0071171748030006
432,3707.19,1.0043550963139247
433,3709.87,0.8357527178248487
434,3712.5399999999995,0.9812006705987919
435,3715.2200000000003,1.012027292109716
436,3717.9,1.25639151362064
437,3720.58,1.7509319351315642
438,3723.25,2.9334827879055076
439,3725.9300000000003,4.5647732094164315
440,3728.61,5.112975630927356
441,3731.29,4.43158705243828
442,3733.96,2.431088905212223
443,3736.64,1.5090463267231469
444,3739.3199999999997,1.358294748234071
445,3741.9999999999995,1.0832018697449952
446,3744.67,1.1145090225189382
447,3747.35,1.0201374440298623
448,3750.0299999999997,1.1211118655407866
449,3752.71,1.1874122870517105
450,3755.3799999999997,0.9711730398256536
451,3758.06,1.2168795613365777
452,3760.7400000000002,1.0885673828475018
453,3763.42,1.159616404358426
454,3766.09,1.138654257132369
455,3768.77,1.2193756786432932
456,3771.4500000000003,1.0585595001542172
457,3774.13,0.9808879216651414
458,3776.8,1.2097793744390846
459,3779.48,1.2054697959500087
460,3782.16,1.3442112174609329
461,3784.8399999999997,1.203065638971857
462,3787.51,1.1928614917458
463,3790.19,1.2722259132567242
464,3792.87,1.2404063347676484
465,3795.5499999999997,1.2300337562785721
466,3798.22,1.1924266090525155
467,3800.8999999999996,1.1641340305634396
468,3801.8939600000003,1.2054424969086126
469,3803.58,1.2755345409147256
470,3806.26,1.2195064836304672
471,3808.93,1.362506732530105
472,3811.61,1.2663776752458467
473,3814.29,1.2393796179615881
474,3816.9700000000003,1.3163895606773295
475,3819.6400000000003,1.2218278095769677
476,3822.32,1.1965657522927091
477,3825.0,1.2093696950084507
478,3827.68,1.088375837724192
479,3830.3500000000004,1.10038488662383
480,3833.03,1.1391948293395715
481,3835.71,1.188313772055313
482,3838.39,0.8670497147710545
483,3841.06,1.1491239636706925
484,3843.74,1.076152206386434
485,3846.4199999999996,1.2472138491021756
486,3849.1,1.299085791817917
487,3851.77,1.2662480407175551
488,3854.45,1.3380629834332964
489,3857.1299999999997,1.4180439261490378
490,3859.8100000000004,1.3871248688647793
491,3862.48,1.4130941177644174
492,3865.1600000000003,1.447454060480159
493,3867.84,1.4417270031959004
494,3870.52,1.4084889459116419
495,3873.19,1.40057119481128
496,3875.8700000000003,1.2745701375270213
497,3878.55,1.189756080242763
498,3881.23,1.1825370229585044
499,3883.9,1.1399442718581423
500,3886.58,1.295825214573884
501,3889.2599999999998,1.3303481572896254
502,3891.94,1.2582041000053668
503,3894.61,1.220793348905005
504,3897.29,1.3137162916207463
505,3899.97,1.304815234336488
506,3902.6499999999996,1.2747921770522295
507,3905.3199999999997,1.4599274259518673
508,3908.0,1.427475368667609
509,3910.6800000000003,1.2259143113833504
510,3913.36,1.5037642540990916
511,3916.0299999999997,1.3989745029987297
512,3918.71,1.4291824457144713
513,3921.3900000000003,1.4559043884302127
514,3924.07,1.3027593311459542
515,3926.7400000000002,1.2685915800455922
516,3929.42,1.3952395227613337
517,3932.1,1.2996254654770751
518,3934.7799999999997,1.2338034081928169
519,3937.4500000000003,1.1681766570924548
520,3940.13,1.258915599808196
521,3942.81,1.3800545425239377
522,3945.49,1.3590524852396793
523,3948.16,1.2625237341393172
524,3950.8399999999997,1.2883096768550586
525,3953.52,1.3982976195708001
526,3956.2000000000003,1.4555155622865417
527,3958.87,1.2804408111861796
528,3961.5499999999997,1.2430927539019212
529,3964.2300000000005,1.1669326966176627
530,3966.9100000000003,1.2128916393334042
531,3969.58,1.1878798882330421
532,3972.26,1.1895738309487836
533,3974.94,1.3059517736645252
534,3977.62,1.1715277163802666
535,3980.2900000000004,1.2361439652799044
536,3982.9700000000003,1.245081907995646
537,3985.65,1.3115388507113876
538,3988.33,1.345246793427129
539,3991.0,1.373590042326767
540,3993.68,1.3904089850425085
541,3996.36,1.42723792775825
542,3999.04,1.3579828704739916
543,4001.71,1.2595811193736295
544,4004.39,1.348041062089371
545,4007.0699999999997,1.2637960048051124
546,4009.7500000000005,1.3743399475208542
547,4012.42,1.430751196420492
548,4015.1,1.4079721391362334
549,4017.78,1.376117081851975
550,4020.46,1.4013610245677164
551,4023.1299999999997,1.3380542734673546
552,4025.8100000000004,1.317717216183096
553,4028.4900000000002,1.2815491588988372
554,4031.17,1.418180101614579
555,4033.84,1.322817350514217
556,4036.52,1.3960832932299585
557,4039.2,1.3495922359457
558,4041.88,1.2769181786614414
559,4044.55,1.3555894275610794
560,4047.23,1.325200370276821
561,4049.91,1.2575873129925625
562,4052.5899999999997,1.382049255708304
563,4055.2599999999998,1.4142455046079419
564,4057.94,1.4280664473236835
565,4060.62,1.364129390039425
566,4063.3,1.3734603327551662
567,4065.97,1.5465765816548043
568,4068.6499999999996,1.4843625243705458
569,4071.3300000000004,1.5489864670862872
570,4074.01,1.4222134098020287
571,4076.68,1.4960556587016667
572,4079.36,1.3231856014174084
573,4082.04,1.3126975441331497
574,4084.72,1.391023486848891
575,4087.3900000000003,1.3458127357485292
576,4090.07,1.2116326784642706
577,4092.75,1.2801916211800122
578,4095.43,1.3629665638957538
579,4098.1,1.2938678127953915
580,4100.78,1.3793157555111333
581,4103.46,1.4162116982268746
582,4106.139999999999,1.3143046409426162
583,4108.81,1.246127889842254
584,4111.49,1.2926148325579958
585,4114.17,1.2850157752737372
586,4116.85,1.2694267179894787
587,4119.5199999999995,1.3201399668891167
588,4122.2,1.3052559096048582
589,4124.88,1.3753338523205996
590,4127.56,1.408038795036341
591,4130.23,1.336932043935979
592,4132.91,1.3280709866517206
593,4135.59,1.3666899293674621
594,4138.27,1.4110478720832036
