,lambda (Angstroms),Total Flux (erg/s/cm^2/Angstrom)
0,100.1,30.25509752965183
1,101.96000000000001,30.17092682015637
2,104.09,30.07453778145572
3,104.712855,30.046351680896258
4,106.03,29.73325609252008
5,108.0,29.26497180465352
6,110.01,28.78717921030248
7,113.86999999999999,27.869627259314097
8,117.88,26.916419146028026
9,120.22644299999999,26.358651496332666
10,120.9,26.224416317453578
11,124.86,25.43521607024322
12,126.89,25.030651298341958
13,128.06,24.79747850032643
14,131.05,24.20159246404315
15,131.96,24.020235871849522
16,134.1,23.59374888219733
17,136.91,23.033735641110475
18,138.038426,22.808848262246972
19,140.1,22.51517425025196
20,143.03,22.09779223647729
21,147.04,21.526563258231693
22,151.16,20.93966400477066
23,155.03,20.38837770084945
24,158.489319,19.89559350101385
25,159.01,19.83951840049976
26,161.97,19.520739207308537
27,166.11999999999998,19.073802242530945
28,169.99,18.657020170254615
29,173.15,18.316702041424918
30,177.18,17.882688850885014
31,180.06,17.572525684362578
32,181.970086,17.366817949140163
33,182.14999999999998,17.352035974489723
34,185.96,17.03900146169168
35,191.17,16.6109411832423
36,193.83,16.39239250769346
37,197.89000000000001,16.058818048966288
38,202.03,15.718670824360348
39,204.85,15.486976597623988
40,208.929613,15.151790504184996
41,210.10000000000002,15.079495814095798
42,215.99,14.715673392463263
43,220.0,14.467977409826494
44,223.06,14.278962292415613
45,227.21,14.022618940836711
46,229.84,13.860183700765239
47,234.11,13.596461359670224
48,239.88329199999998,13.239875695525045
49,240.11999999999998,13.22860954524001
50,246.28,12.935392482263058
51,252.01000000000002,12.662657385834985
52,257.28999999999996,12.411306773597598
53,260.27000000000004,12.269484622768159
54,263.89,12.097185399200864
55,268.8,11.86347465008693
56,273.8,11.625479432534858
57,275.42287,11.548232160059342
58,278.89,11.42157832473846
59,284.07,11.23235519225427
60,290.02,11.014994499019728
61,296.09,10.793261956046173
62,300.9,10.617545690482281
63,307.90999999999997,10.361477733503099
64,316.227766,10.05763772173075
65,318.0,10.009285857061021
66,327.66,9.745725660506777
67,337.62,9.473976860876935
68,347.88,9.194040976071497
69,356.8,8.950670328283726
70,363.078055,8.779384104255747
71,365.95000000000005,8.72070511086887
72,375.34,8.528841317928302
73,384.97,8.332063029136535
74,394.84,8.130405774493571
75,404.96999999999997,7.923427406570144
76,414.40999999999997,7.7305397938564075
77,416.86938299999997,7.680286543164322
78,422.11,7.598512072991702
79,429.96,7.476019835213196
80,440.99,7.3039176663463286
81,451.26,7.14366553068171
82,459.65,7.012746060754238
83,470.36,6.845629091283054
84,478.630092,6.716589123297928
85,480.2,6.697750255147977
86,490.26,6.577016582480311
87,500.53000000000003,6.453782032558151
88,506.32000000000005,6.38437384539853
89,512.18,6.314610717320746
90,520.51,6.214676118159149
91,530.1800000000001,6.0986692970784
92,540.0400000000001,5.980294985091204
93,549.5408739999999,5.866615484906179
94,550.08,5.861699178991269
95,560.31,5.76832502083575
96,569.41,5.685233482422727
97,580.0,5.58821515042889
98,589.42,5.502376419159584
99,600.38,5.402090434081922
100,610.14,5.3131532924653175
101,620.05,5.22288405016608
102,630.12,5.130951832938702
103,630.957344,5.123293924451052
104,640.36,5.055143717764456
105,649.27,4.990962587091658
106,658.3,4.925671289568047
107,664.39,4.881786186889332
108,675.1899999999999,4.803545769316245
109,684.58,4.735362399240198
110,695.7099999999999,4.655887646827376
111,705.38,4.585430013099434
112,715.2,4.515439710807977
113,724.43596,4.448674590896921
114,726.8199999999999,4.435899823913786
115,735.23,4.3909082722253165
116,745.46,4.336765146138154
117,755.8299999999999,4.281502340481861
118,764.59,4.234886171870566
119,775.2199999999999,4.178551698157318
120,784.2,4.131085188651675
121,795.11,4.072863905800166
122,804.3100000000001,4.023881568400176
123,815.5,3.964112636410406
124,824.95,3.914531240494112
125,831.763771,3.876276231962745
126,834.5,3.8646365253310173
127,844.1600000000001,3.828887113515137
128,855.91,3.782199279536194
129,865.82,3.743544230188847
130,875.8399999999999,3.704454810727655
131,885.98,3.665253522051358
132,894.18,3.633398829019245
133,904.5400000000001,3.591981430115257
134,915.01,3.5618029310974246
135,925.61,3.7158206237632285
136,934.17,3.9611616730858032
137,944.99,4.402469305523917
138,954.992586,4.731726278745346
139,955.93,4.762664849278661
140,964.77,4.980234907157625
141,975.95,3.5904440391810217
142,984.98,4.82259101119992
143,994.0899999999999,4.815967289172473
144,1005.6,5.350015745754701
145,1014.91,5.163027038611394
146,1024.3,3.9293415374217426
147,1036.16,4.539763620051214
148,1045.75,5.750781733745702
149,1055.42,5.693782653393846
150,1065.19,5.17643858048406
151,1075.04,5.51810931352793
152,1084.99,5.012355054013868
153,1095.03,5.55664920119767
154,1096.4782,5.537633685277772
155,1105.16,5.429837476891552
156,1115.39,5.342406338284279
157,1125.71,5.080859875876942
158,1136.1200000000001,5.56549408966954
159,1144.0,5.298368628063939
160,1154.5900000000001,5.407854194256409
161,1165.27,5.471386436648816
162,1176.05,4.661264097041152
163,1184.2,5.312383664035357
164,1195.16,4.486260676827565
165,1206.22,3.944669107619702
166,1214.58,3.2913632524137584
167,1225.82,4.245625035605768
168,1234.31,5.131604823799731
169,1245.74,5.396737701191604
170,1254.37,5.278384874585469
171,1258.92541,5.115234976301708
172,1265.9799999999998,4.869111971243179
173,1274.75,5.522269186492329
174,1283.59,5.640512427404812
175,1295.47,5.032551782839235
176,1304.45,4.972986075078387
177,1313.49,5.532649389314683
178,1325.6399999999999,5.382732843736253
179,1334.83,5.061912212965407
180,1344.08,5.493591604191705
181,1356.52,5.372079164932801
182,1365.9199999999998,5.059078611151959
183,1375.3899999999999,5.1652470830344495
184,1384.92,5.187102576914083
185,1394.52,4.811383096457052
186,1404.1899999999998,4.895599641663355
187,1413.9199999999998,4.934864208866801
188,1423.72,4.961248801733582
189,1433.59,4.924509420263696
190,1443.5300000000002,5.052317064457144
191,1445.43977,5.073387173101709
192,1446.8600000000001,5.090042581248455
193,1453.5400000000002,5.005602037287247
194,1463.61,4.785189962782852
195,1473.76,4.7552864745783205
196,1483.97,4.77292567609869
197,1494.26,4.804841463918924
198,1504.6200000000001,4.6519788897515415
199,1511.5600000000002,4.374528001264897
200,1518.54,4.518682905928186
201,1525.55,4.437921655453923
202,1536.12,4.120653995323689
203,1546.77,4.318016921493319
204,1553.91,4.165439998756339
205,1564.68,4.182577304375768
206,1575.53,4.320513196295064
207,1586.45,4.403313726226742
208,1593.77,4.462755872664459
209,1604.8200000000002,4.367439730333419
210,1615.9399999999998,4.355989226014761
211,1623.4,4.213068648477243
212,1634.65,4.338695471895868
213,1645.99,4.35276582990184
214,1653.5800000000002,4.1404005801016055
215,1659.58691,4.252869086890471
216,1665.0400000000002,4.357590895773813
217,1672.73,4.074118513889625
218,1676.59,4.351171959393791
219,1684.33,4.435968365663801
220,1696.0,4.264113520853856
221,1703.8300000000002,4.160491745801425
222,1715.6399999999999,4.037772507823238
223,1723.5600000000002,4.011011551448364
224,1735.5100000000002,4.143591920301933
225,1743.52,4.0727257826046195
226,1755.6,4.216655000659106
227,1763.7,3.9837536816393495
228,1775.93,4.048619264156434
229,1784.1299999999999,4.070217521445075
230,1796.49,4.203208953163077
231,1804.79,4.174312786760117
232,1813.1200000000001,3.9885288932496756
233,1825.69,4.011169235215313
234,1834.11,3.910532160382431
235,1846.8300000000002,3.7064258668106653
236,1855.3500000000001,3.713661368286181
237,1863.91,3.766094900285056
238,1876.83,3.9107607593300866
239,1885.5,3.7245926252681993
240,1894.2,3.6202417640988314
241,1902.9399999999998,3.7279569334528233
242,1905.46072,3.711069698534147
243,1916.13,3.642797056188212
244,1924.98,3.5970338970422233
245,1933.8600000000001,3.6394470221025195
246,1942.79,3.74047595417329
247,1956.26,3.5820955627951587
248,1965.2900000000002,3.7572091088868786
249,1974.36,3.8096777005869784
250,1983.47,3.672338337895458
251,1997.22,3.592769265775984
252,2006.4399999999998,3.636176278507508
253,2015.7,3.5665003368474113
254,2025.0000000000002,3.643865440795694
255,2034.3500000000001,3.5343393517544524
256,2043.74,3.5939823083215896
257,2053.17,3.485897310497107
258,2062.65,3.4944501196830986
259,2072.17,3.62815197447747
260,2076.95,3.5215539246788463
261,2086.54,3.575916109287882
262,2096.17,3.4559853395052977
263,2105.84,3.464390615331093
264,2115.56,3.472963698167363
265,2125.33,3.4984945880141085
266,2135.14,3.3431205234692327
267,2144.99,3.3777205045327365
268,2154.8900000000003,3.4350382926067153
269,2164.84,3.3613658876911687
270,2174.83,3.3316745283840024
271,2184.87,3.29683797608731
272,2187.7616199999998,3.3206410395655515
273,2194.96,3.381814445114426
274,2205.09,3.311361173779364
275,2215.27,3.2166280333853923
276,2225.49,3.1503675977442933
277,2235.7599999999998,3.268136293044284
278,2246.08,3.1699141192853664
279,2256.4500000000003,3.0999500764675383
280,2266.87,3.1243211645908016
281,2277.33,3.1697079574669367
282,2282.58,3.2082337062814403
283,2293.12,3.0914049086633204
284,2303.7,3.091041815798073
285,2314.33,3.012666853873916
286,2325.02,2.653370449079067
287,2335.75,2.894585749037091
288,2346.53,2.8265121799362056
289,2357.36,2.9436557417764107
290,2362.79,2.8094851619788406
291,2373.7,2.8527881333247906
292,2384.6600000000003,2.72528023561183
293,2395.66,2.8148770426517435
294,2406.72,2.743822406820965
295,2412.27,2.7712769412820117
296,2423.4,2.84576428876876
297,2434.59,2.7687001933848165
298,2445.83,2.848077228941964
299,2457.1200000000003,2.8105863954402013
300,2462.7799999999997,2.7987396179716475
301,2474.15,2.7311471939756298
302,2485.57,2.773767900920703
303,2497.04,2.6638557388068667
304,2502.8,2.8239132232204938
305,2511.88643,2.694384981462858
306,2514.3500000000004,2.659616506737792
307,2520.15,2.695969788390912
308,2525.96,2.6217969170813644
309,2537.62,2.625838562611602
310,2543.47,2.5988030794513866
311,2555.21,2.6874615012802874
312,2567.0,2.6530311582958532
313,2572.92,2.7292996043969686
314,2584.79,2.7116640377111985
315,2596.7200000000003,2.6853515532494256
316,2602.7099999999996,2.627164928611872
317,2614.72,2.601679220448763
318,2626.79,2.656937594509652
319,2632.85,2.6808998991334287
320,2645.0,2.7988990494929813
321,2657.21,2.808546282076532
322,2663.34,2.678555515961639
323,2675.63,2.7324025248438533
324,2687.98,2.7233596159500655
325,2694.18,2.645324779096504
326,2706.6099999999997,2.6760676465013793
327,2712.85,2.5995571977971497
328,2725.37,2.590684688538022
329,2737.9500000000003,2.655768261502892
330,2744.26,2.463796742059993
331,2756.9300000000003,2.4832719383608595
332,2763.29,2.5261326541046256
333,2776.04,2.584987626704156
334,2782.44,2.5149307305972535
335,2795.28,2.223949326532781
336,2808.19,2.309096851729639
337,2814.66,2.5536388848840677
338,2827.65,2.592143186379589
339,2834.1699999999996,2.529469454720682
340,2847.25,2.4869123795522006
341,2853.82,2.4474898830799585
342,2866.99,2.543020431247474
343,2873.6,2.532029322924564
344,2884.0315,2.52820693457908
345,2886.86,2.5275155638950793
346,2893.52,2.5130511930216044
347,2906.87,2.610311652306757
348,2927.02,2.5479306788682408
349,2947.3100000000004,2.5126986435795313
350,2967.74,2.5206175464406293
351,2988.31,2.5112773874515337
352,3009.0299999999997,2.514840233622946
353,3029.8799999999997,2.505418950933464
354,3050.89,2.4916397404151898
355,3072.03,2.4821554010360223
356,3093.3300000000004,2.4769421338280626
357,3107.61,2.46484282510836
358,3129.15,2.4339941661572118
359,3150.8399999999997,2.4286545123665713
360,3172.68,2.4190678637364376
361,3187.32,2.3490629674019528
362,3209.42,2.376489061050032
363,3231.6600000000003,2.317793092847918
364,3246.58,2.371510072813047
365,3269.08,2.3953628468891455
366,3291.7400000000002,2.377112693136452
367,3306.94,2.3649575494011943
368,3311.31121,2.3602922303933354
369,3322.2000000000003,2.349602346311645
370,3329.86,2.37776299133515
371,3337.54,2.3596704813848257
372,3345.23,2.3334458939475873
373,3352.9399999999996,2.3075241515365197
374,3360.67,2.3185702541516227
375,3368.4199999999996,2.3172932017928973
376,3376.18,2.2045060719472573
377,3383.9700000000003,2.246195709640874
378,3391.77,2.3342052698475753
379,3399.59,2.3750686750804486
380,3407.42,2.258269002826407
381,3415.28,2.3015030981116222
382,3423.1499999999996,2.367031115909923
383,3431.0400000000004,2.365772978734394
384,3438.9500000000003,2.3391556865850367
385,3446.88,2.2162112394618507
386,3454.82,2.30332571485175
387,3462.79,2.1979899577809054
388,3470.7700000000004,2.251929123223147
389,3478.77,2.172229133691559
390,3486.79,2.237316989186142
391,3494.83,2.220135689706897
392,3502.8900000000003,2.270952235253822
393,3510.96,2.2254117033138328
394,3519.05,2.240057016400015
395,3527.17,2.191285097025453
396,3535.3,2.249470100163977
397,3543.4500000000003,2.3097549483286723
398,3551.61,2.295924719006453
399,3559.8,2.2739682572234896
400,3568.0099999999998,2.2562996404666977
401,3575.97,1.8147329608827683
402,3578.6299999999997,2.0866163493635153
403,3581.3,2.4651606603573475
404,3583.96,2.3011720488380947
405,3586.63,2.1020813598319275
406,3589.29,2.1285257483126747
407,3591.96,2.201165059306507
408,3594.62,2.1934124477872543
409,3597.2900000000004,2.1741707587810866
410,3599.96,2.091891069774919
411,3602.6200000000003,2.0526614582556664
412,3605.29,2.110699769249499
413,3607.95,2.228769157730246
414,3610.62,2.4256364687240786
415,3613.2799999999997,2.2435818572048256
416,3615.95,2.1572851681986585
417,3618.6099999999997,2.2526775566794055
418,3621.28,2.240194867673238
419,3623.94,2.407234256153985
420,3626.61,2.2485455671478176
421,3629.27,2.022282955628565
422,3631.94,1.9971542666223974
423,3634.6,2.1591986551031446
424,3637.2700000000004,2.298383966096977
425,3639.94,2.3568252770908096
426,3642.6,2.152453665571557
427,3645.27,2.354229976565389
428,3647.93,2.3446933650461363
429,3650.6,2.192721676039969
430,3653.2599999999998,2.277891064520716
431,3655.93,2.210998375514549
432,3658.5899999999997,2.3983567639952956
433,3661.26,2.2967140749891284
434,3663.92,2.4140624634698753
435,3666.59,2.246531774463708
436,3669.25,2.288301162944455
437,3671.92,2.1563934739382877
438,3674.5899999999997,2.1253987849321203
439,3677.2500000000005,2.1639791734128675
440,3679.92,2.1386814844067
441,3682.58,2.136071872887447
442,3685.25,2.0734521838812796
443,3687.91,2.086123572362027
444,3690.58,2.1833748833558593
445,3693.24,2.2261432718366065
446,3695.91,2.129622582830439
447,3698.5699999999997,2.191837971311186
448,3701.2400000000002,2.2336592823050183
449,3703.9,2.2697106707857655
450,3706.57,2.248024981779598
451,3709.24,2.320345292773431
452,3711.9,2.3165246812541778
453,3714.5699999999997,2.379258992248011
454,3717.2300000000005,2.5253423807287576
455,3719.9,2.9369156917225903
456,3722.56,4.366330080203338
457,3725.23,6.18572939119717
458,3727.89,6.858091779677918
459,3730.56,6.003966090671749
460,3733.22,4.325436479152497
461,3735.89,2.7809937901463293
462,3738.5499999999997,2.4517351786270765
463,3741.2200000000003,2.405054489620909
464,3743.8900000000003,2.4286188006147413
465,3746.55,2.4365521890954884
466,3749.22,2.3179065000893213
467,3751.88,2.315594888570068
468,3754.5499999999997,2.611122199563901
469,3757.2100000000005,2.623115588044648
470,3759.88,2.6863168990384807
471,3762.54,2.695972287519228
472,3765.21,2.5902055985130605
473,3767.87,2.6177149869938074
474,3770.54,2.3751582979876398
475,3773.2,2.380541686468387
476,3775.87,2.58522999746222
477,3778.5400000000004,2.771490308456052
478,3781.2000000000003,3.002611696936799
479,3783.87,3.153590007930632
480,3786.53,2.8843963964113786
481,3789.2,3.051528707405212
482,3791.86,2.7833970958859586
483,3794.5299999999997,2.644049406879791
484,3797.1899999999996,2.334662795360538
485,3799.86,2.430405106354371
486,3801.8939600000003,2.4287025353898217
487,3802.52,2.4282162158167955
488,3805.19,2.8998444031461323
489,3807.85,3.0684270654292924
490,3810.52,2.9966142527586297
491,3813.19,3.009179440087967
492,3815.85,3.2517251023711267
493,3818.5200000000004,3.061740289700464
494,3821.1800000000003,3.250514951983624
495,3823.85,2.787632139312961
496,3826.51,2.833153801596121
497,3829.18,2.531991988925458
498,3831.84,2.405378651208618
499,3834.5099999999998,2.292398838537955
500,3837.1699999999996,2.419258500821115
501,3839.84,2.403663688150452
502,3842.5,2.480364350433612
503,3845.17,2.610847537762949
504,3847.84,3.0200077250922863
505,3850.5,3.153735387375446
506,3853.17,3.2383495747047832
507,3855.83,3.251780236987943
508,3858.5000000000005,3.40844542431728
509,3861.1600000000003,3.4552450866004403
510,3863.83,3.3925702739297776
511,3866.4900000000002,3.376882936212937
512,3869.16,3.4338681235422746
513,3871.82,3.389700785825434
514,3874.49,3.205878973154771
515,3877.1499999999996,3.0367396354379315
516,3879.8199999999997,3.016785822767268
517,3882.48,2.7043934850504283
518,3885.15,2.6687126723797654
519,3887.82,2.4534588597091025
520,3890.48,2.5354095219922623
521,3893.15,2.5616847093215993
522,3895.81,2.6405743716047594
523,3898.4799999999996,3.0301825589340963
524,3901.1400000000003,3.1558332212172564
525,3903.81,3.1692474085465934
526,3906.4700000000003,3.1650370708297535
527,3909.14,3.2198972581590906
528,3911.8,3.1950709204422503
529,3914.47,3.3916931077715877
530,3917.1299999999997,3.4478447700547474
531,3919.7999999999997,3.2589219573840844
532,3922.4700000000003,3.474459144713422
533,3925.13,3.1990508069965813
534,3927.8,3.0330829943259188
535,3930.46,3.080306656609079
536,3933.13,2.6881998439384156
537,3935.79,2.822562506221576
538,3938.4599999999996,3.2531906935509127
539,3941.1200000000003,3.108066355834073
540,3943.79,3.2987385431634095
541,3946.4500000000003,3.3721052054465694
542,3949.12,3.198485392775907
543,3951.7799999999997,3.276103055059067
544,3954.45,3.180272242388404
545,3957.12,3.2081394297177415
546,3959.7799999999997,3.1091370920009007
547,3962.4500000000003,2.5986462793302376
548,3965.11,2.379620941613398
549,3967.78,2.294441128942735
550,3970.44,2.360259791225895
551,3973.11,2.5821979785552323
552,3975.77,2.637708640838392
553,3978.4399999999996,2.7425168281677292
554,3981.1000000000004,2.932139490450889
555,3983.77,3.171058677780226
556,3986.4300000000003,3.156858340063386
557,3989.1,3.4433845273927233
558,3991.77,3.40196471472206
559,3994.43,3.6262333770052204
560,3997.1,3.399903564334557
561,3999.7599999999998,3.324069226617717
562,4002.4300000000003,3.4845594139470544
563,4005.09,3.3621780762302143
564,4007.76,3.2939782635595516
565,4010.42,3.451296925842711
566,4013.09,3.3008441131720483
567,4015.75,3.3695347754552083
568,4018.4199999999996,3.4537239627845455
569,4021.0800000000004,3.3876656250677053
570,4023.75,3.4518768123970425
571,4026.42,3.5179999997263796
572,4029.08,3.42048566200954
573,4031.75,3.4509038493388764
574,4034.41,3.4231015116220367
575,4037.08,3.6979376989513737
576,4039.74,3.5568533612345337
577,4042.4100000000003,3.466123548563871
578,4045.07,3.4982582108470304
579,4047.7400000000002,3.4872303981763677
580,4050.4,3.3803640604595273
581,4053.0699999999997,3.557858247788865
582,4055.73,3.4875489100720247
583,4058.3999999999996,3.500113097401362
584,4061.07,3.351786284730699
585,4063.73,3.393058947013859
586,4066.4,3.300204134343196
587,4069.06,3.375695796626356
588,4071.73,3.337037983955693
589,4074.39,3.1693856462388528
590,4077.06,3.21149383356819
591,4079.72,3.26976949585135
592,4082.3900000000003,3.101888683180687
593,4085.05,3.1523003454638467
594,4087.7200000000003,3.1553005327931842
595,4090.38,2.8643751950763443
596,4093.0499999999997,2.821043382405681
597,4095.72,2.8083165697350183
598,4098.38,2.638962232018178
599,4101.05,2.757160419347515
600,4103.71,2.787379081630675
601,4106.38,2.593783268960012
602,4109.04,2.6369669312431725
603,4111.71,2.798734118572509
604,4114.37,2.8986667808556694
605,4117.04,2.9877459681850063
606,4119.7,3.138049630468166
607,4122.37,3.1453018177975034
