,lambda (Angstroms),Total Flux (erg/s/cm^2/Angstrom)
0,102.03,35.181217843677025
1,103.92999999999999,35.080957748481495
2,104.712855,35.03964833854096
3,106.1,34.65512439073198
4,108.07000000000001,34.1090358666557
5,110.08,33.55187752836958
6,113.95,32.479117965054336
7,117.96,31.36755345178454
8,120.22644299999999,30.739723682101097
9,120.97999999999999,30.564738430303034
10,124.94999999999999,29.642244154920707
11,126.97999999999999,29.17051676590078
12,127.86,28.96605246722711
13,131.14000000000001,28.203843852352545
14,132.05,27.992568958826368
15,133.88,27.567330248823186
16,137.0,26.842588263162014
17,138.038426,26.601300136593053
18,139.87,26.297127590363907
19,143.13,25.759186357617033
20,147.14,25.101094877652315
21,150.91,24.475620719957302
22,155.14,23.77395678532869
23,158.489319,23.218525700841088
24,159.12,23.13949967901085
25,162.08,22.768574371522636
26,165.85,22.29648000864069
27,170.10999999999999,21.762529893606974
28,172.87,21.416841201894986
29,176.9,20.911791819503936
30,180.19,20.499420606484936
31,181.85,20.291580876542223
32,181.970086,20.27653038117875
33,186.09,19.88285863837033
34,190.85999999999999,19.427280580480243
35,193.96,19.131361506673265
36,198.03,18.742478768997653
37,202.17,18.3470709363006
38,204.99,18.07784126257942
39,208.929613,17.7003657911172
40,209.76000000000002,17.640548615383473
41,216.13,17.184867352084506
42,220.15,16.89663195654889
43,223.21,16.676695781588947
44,226.84,16.416711939724696
45,230.0,16.20828220741312
46,233.73000000000002,15.977184318197239
47,239.73000000000002,15.569295647099308
48,239.88329199999998,15.558050056817569
49,245.88,15.21721961505984
50,252.19,14.87373202972851
51,256.88,14.592822828840404
52,259.85,14.444294057361153
53,264.07,14.215890483811517
54,268.97999999999996,13.942515547999026
55,273.97999999999996,13.663609899717464
56,275.42287,13.583136803650959
57,279.08,13.426377237738205
58,284.26,13.205170863138706
59,290.21999999999997,12.945098710124617
60,296.28999999999996,12.686509492205902
61,301.11,12.47796608456699
62,308.12,12.179812802917862
63,316.227766,11.834790414646822
64,318.22,11.77149321340035
65,327.89,11.461856128157228
66,337.85,11.141629794339076
67,348.11,10.811958223719175
68,357.04,10.526026717253705
69,363.078055,10.333606273398829
70,366.2,10.259061085612672
71,374.73,10.053190634594086
72,385.23,9.796782125380119
73,395.10999999999996,9.562752944176886
74,405.25,9.319908417678825
75,413.74,9.115226553628675
76,416.86938299999997,9.03955006180571
77,422.4,8.936953202121524
78,430.25,8.791699808825397
79,441.29,8.589353823107022
80,450.53000000000003,8.41839808712534
81,459.96000000000004,8.243922594949229
82,469.59000000000003,8.066557758357929
83,478.630092,7.900993312793044
84,480.53,7.874180977755081
85,489.46999999999997,7.745673391280018
86,499.71000000000004,7.601909799970772
87,505.5,7.518677560978533
88,512.53,7.422933714913691
89,519.66,7.3213665592462185
90,530.55,7.166237830519884
91,540.41,7.02432372170063
92,549.5408739999999,6.8945504798805795
93,550.4599999999999,6.884538017255776
94,559.4,6.789848765941329
95,569.8000000000001,6.678810601481569
96,580.39,6.563499317776871
97,589.82,6.4618495131465306
98,599.41,6.3560941296783495
99,610.55,6.230284881843568
100,620.47,6.130465253897336
101,630.55,6.0206852971132605
102,630.957344,6.016336208983763
103,639.33,5.945471218108679
104,649.71,5.855859073519844
105,658.75,5.777460200390456
106,664.85,5.726416809716864
107,675.65,5.63432549049149
108,685.05,5.551866473387921
109,694.58,5.4718428665159
110,704.24,5.386916419875426
111,715.6899999999999,5.291466931807782
112,724.43596,5.216680753916341
113,725.64,5.20901132752465
114,735.74,5.144792778906428
115,744.2600000000001,5.090026514725511
116,754.61,5.023962824012779
117,765.1099999999999,4.9542077060433405
118,775.75,4.889609727300974
119,784.73,4.83136575486616
120,795.65,4.7628290045779424
121,804.86,4.704613413016177
122,814.1800000000001,4.645432250132828
123,825.51,4.573771964009615
124,831.763771,4.532427395255928
125,835.0699999999999,4.515814872140492
126,844.7399999999999,4.472024713179934
127,854.52,4.425336181035748
128,864.4100000000001,4.378580855707936
129,874.4200000000001,4.331143975997989
130,884.5500000000001,4.283030061905904
131,894.7900000000001,4.234469034630193
132,905.15,4.185068692972345
133,915.6300000000001,4.137555406932358
134,924.1099999999999,4.119555180594661
135,934.81,4.094384408187423
136,945.63,4.073081071398049
137,954.38,4.054494422700542
138,954.992586,4.0521140562922335
139,965.4300000000001,4.012615469861831
140,974.37,3.8887016221984023
141,985.65,3.8968767437371645
142,994.77,3.8562626637046735
143,1003.97,3.848498009285933
144,1015.6,3.7923639828848517
145,1025.0,3.684457522500487
146,1034.48,3.674069627729871
147,1044.05,3.6941038417747247
148,1056.14,3.632941062652706
149,1065.91,3.556622540731935
150,1075.78,3.5301695508283517
151,1085.73,3.4529555865385184
152,1095.78,3.442340854265873
153,1096.4782,3.438579370383841
154,1105.9199999999998,3.395575531685136
155,1116.15,3.3508005841702433
156,1123.89,3.3058314702146947
157,1134.29,3.2957674995250694
158,1144.78,3.243437757742937
159,1155.3700000000001,3.208835525858019
160,1166.06,3.169688503870318
161,1174.15,3.0934300245550226
162,1185.01,3.0914194793925867
163,1195.98,3.0130835251170867
164,1204.27,2.957231345596222
165,1215.4099999999999,2.891497218145989
166,1223.8300000000002,2.9057864814915018
167,1235.16,2.901403342845977
168,1243.72,2.8789712700475927
169,1255.23,2.828624689217055
170,1258.92541,2.8076858000003075
171,1263.93,2.7847343299857985
172,1275.6200000000001,2.7821305274806
173,1284.46,2.7633486453466443
174,1296.35,2.6993267835171477
175,1305.3400000000001,2.6736812318899674
176,1314.3799999999999,2.676699290431713
177,1323.49,2.6447137232099545
178,1335.74,2.5952546145967226
179,1345.0,2.5916637778817404
180,1354.32,2.5613303333694697
181,1363.7099999999998,2.520558163093695
182,1376.3300000000002,2.4911809897305113
183,1385.87,2.465270849961514
184,1395.48,2.4174784844290103
185,1405.15,2.3937503110992187
186,1414.89,2.3756687120059223
187,1424.7,2.350552387149122
188,1434.57,2.3237848544950324
189,1441.19,2.31120986086078
190,1445.43977,2.30061008867502
191,1447.85,2.2965504705388278
192,1454.53,2.279720706824197
193,1464.6100000000001,2.250652895709903
194,1474.76,2.2310945497962056
195,1484.99,2.213344749826044
196,1495.28,2.1946493343135365
197,1505.64,2.1683760840016233
198,1512.5900000000001,2.143218900346431
199,1516.08,2.142845079633248
200,1526.59,2.1199232404654675
201,1533.64,2.092722504239697
202,1544.27,2.077424313987223
203,1554.97,2.0527953689353438
204,1565.75,2.035436749827002
205,1576.6,2.0205635359192557
206,1583.88,2.0107298167811547
207,1594.86,1.991391472531657
208,1605.91,1.9680520934827537
209,1613.3300000000002,1.953923404745843
210,1624.5100000000002,1.9276714453551878
211,1635.77,1.9119173919080708
212,1643.3200000000002,1.898500852829408
213,1654.71,1.870017329040539
214,1659.58691,1.8639339055873676
215,1666.1799999999998,1.8594075193201083
216,1673.8700000000001,1.8384479996583463
217,1677.73,1.8447434888138208
218,1685.47,1.837770725773244
219,1693.25,1.8208505200296154
220,1704.99,1.801586436683831
221,1716.81,1.780662027931942
222,1724.7299999999998,1.7692300427276313
223,1736.6899999999998,1.7589141345150603
224,1744.7099999999998,1.7457864825531186
225,1756.8,1.7352356855556283
226,1764.91,1.7167603175118198
227,1773.06,1.7071244767649594
228,1785.35,1.6922888662522086
229,1793.59,1.687000669423481
230,1806.0200000000002,1.669576479450048
231,1814.3500000000001,1.6506968665394528
232,1826.9299999999998,1.6358658564295756
233,1835.3600000000001,1.6211126767613497
234,1843.84,1.60266590371431
235,1856.62,1.5859107800891712
236,1865.1899999999998,1.576920790960264
237,1873.8,1.5715243291283045
238,1886.7800000000002,1.5474844619879051
239,1895.49,1.533126713398316
240,1904.24,1.525723822105674
241,1905.46072,1.523658850765512
242,1913.03,1.5135061299863009
243,1926.29,1.4984362272690057
244,1935.18,1.4913216701681944
245,1944.1200000000001,1.486979844444769
246,1953.0900000000001,1.4730414155477756
247,1966.63,1.4672720565438402
248,1975.71,1.459721042677095
249,1984.83,1.4473001579122586
250,1993.99,1.4362703422493306
251,2003.19,1.429284505688311
252,2017.08,1.4135371863260766
253,2026.39,1.4064344947953058
254,2035.74,1.3945262023664438
255,2045.14,1.3887922713149674
256,2054.58,1.3751783393653998
257,2064.06,1.366247416517741
258,2073.5899999999997,1.3629692750474676
259,2078.37,1.3659437227255462
260,2083.16,1.3705140326791028
261,2092.77,1.3548551994126465
262,2107.28,1.3404857111299953
263,2117.01,1.3350586451692648
264,2126.78,1.322823638310443
265,2136.6,1.3077401228290075
266,2146.46,1.3069857864494805
267,2156.37,1.2990369814473388
268,2166.3199999999997,1.282912225547106
269,2176.3199999999997,1.272672541024259
270,2186.36,1.27113481560332
271,2187.7616199999998,1.2699478179304833
272,2196.4500000000003,1.2652898703839894
273,2206.59,1.2561869666272185
274,2216.7799999999997,1.2375207824081358
275,2227.01,1.2349180778192037
276,2237.29,1.2442056927679603
277,2242.45,1.2360905450574142
278,2252.8,1.2157422493589343
279,2263.2,1.2066308931981435
280,2273.6400000000003,1.204512026667503
281,2284.14,1.213924459582089
282,2294.68,1.1940657121268259
283,2305.27,1.1971436642092512
284,2315.91,1.1792736458293651
285,2326.6,1.1544391969871672
286,2337.34,1.150449737682658
287,2342.73,1.1357760178454788
288,2353.54,1.1505924078937335
289,2364.4100000000003,1.1239006173872141
290,2375.3199999999997,1.1244612665108462
291,2386.28,1.103021655172166
292,2397.3,1.1029219432787123
293,2402.83,1.097779732147061
294,2413.92,1.0952312996063713
295,2425.06,1.1112920566033704
296,2436.25,1.1036229331380576
297,2447.5,1.109626449117971
298,2453.14,1.1102925969692343
299,2464.46,1.090077862301912
300,2475.84,1.0745994170798154
301,2487.27,1.0462754213954077
302,2493.0,1.0477795684145104
303,2504.5099999999998,1.066983121990404
304,2510.2799999999997,1.0259201686396575
305,2511.88643,1.0237527967182052
306,2516.07,1.018801590981451
307,2527.68,1.0136282982425562
308,2533.5099999999998,1.028533979072207
309,2545.2000000000003,1.0247520113704256
310,2556.9500000000003,1.0668222449464797
311,2562.85,1.0365549039336048
312,2574.67,1.0539502356671333
313,2586.56,1.0367621655581358
314,2592.52,1.025381565823096
315,2604.49,1.0091141107512125
316,2616.51,0.9970481700775246
317,2622.54,1.0156443184999593
318,2634.65,1.0762611997430243
319,2646.81,1.1222106653842854
320,2652.91,1.2125399619641941
321,2665.15,1.0868500826425687
322,2677.46,1.1071050014784178
323,2683.63,1.1415122962158009
324,2696.0099999999998,1.0639457132091243
325,2702.23,1.1071448923447034
326,2714.7,1.0372060212547796
327,2727.23,0.9928574914426908
328,2733.52,1.0262019687357444
329,2746.1400000000003,0.9547756508404083
330,2752.4700000000003,0.9833161556520187
331,2765.17,1.0159410927937962
332,2777.94,1.0200062280930484
333,2784.34,0.9499552310621329
334,2797.19,0.8903366613984982
335,2803.64,0.8974061087657792
336,2816.5800000000004,0.9805963110188972
337,2823.0699999999997,1.046940625904735
338,2836.1,1.0248710400746057
339,2842.6400000000003,0.9579725393586391
340,2855.7599999999998,0.893468465445263
341,2862.3500000000004,1.0093167491274924
342,2875.56,1.0927907871308689
343,2882.19,1.0618099983316551
344,2884.0315,1.0711401242209726
345,2895.49,1.1308258650136431
346,2908.8599999999997,1.258216981621687
347,2929.02,1.1848848422662768
348,2949.32,1.1420958172208984
349,2969.77,1.1526173860791256
350,2990.35,1.151480789653811
351,3011.08,1.1409528871321022
352,3031.95,1.1701541989204252
353,3052.97,1.1809249046123536
354,3067.06,1.2300282519577044
355,3088.32,1.2080125678954015
356,3109.73,1.2978145777367045
357,3131.28,1.2397389018880394
358,3152.99,1.2390597995365535
359,3167.54,1.2960152081862946
360,3189.5,1.1976174956741517
361,3211.6099999999997,1.247558977065614
362,3226.4300000000003,1.145168534741845
363,3248.7899999999995,1.35794030597265
364,3271.31,1.4777023507006344
365,3286.42,1.4578207165905028
366,3309.19,1.3892246511578297
367,3311.31121,1.383146887381252
368,3324.47,1.3467566878157453
369,3332.1299999999997,1.3584200744348283
370,3339.81,1.2610772155881644
371,3347.51,1.4518095112757543
372,3355.23,1.4276260614975977
373,3362.9700000000003,1.1127629662536944
374,3370.72,1.263130948276918
375,3378.4900000000002,1.382876384834395
376,3386.27,1.3552045986589984
377,3394.08,1.3383446442849827
378,3401.9100000000003,1.51395984444522
379,3409.7499999999995,1.3639182218725845
380,3417.6099999999997,1.2454821538342022
381,3425.49,1.4052470403300732
382,3433.3799999999997,1.526282904093071
383,3441.2999999999997,1.3231393996574492
384,3449.23,1.273274372488954
385,3457.1800000000003,1.3948109998547122
386,3465.15,1.280749481754724
387,3473.1400000000003,1.4484099181889891
388,3481.15,1.3313425091575082
389,3489.1699999999996,1.4046824773931537
390,3497.22,1.3127169774301795
391,3505.28,1.5091308547343318
392,3513.3599999999997,1.368241086572738
393,3521.46,1.5164405729453971
394,3529.57,1.2107001365851833
395,3537.71,1.4607702320263498
396,3545.87,1.4713338820017696
397,3554.04,1.5074807092443163
398,3562.23,1.4004792910211163
399,3570.4399999999996,1.21939622733217
400,3578.6800000000003,1.3275870954446036
401,3586.92,1.0967361635570374
402,3595.1899999999996,1.3764746634708516
403,3603.48,1.570941917918919
404,3611.7899999999995,1.2270146269012399
405,3620.11,1.4312868131506877
406,3628.46,1.6206769312015155
407,3636.82,1.3238864265194703
408,3645.21,1.5623438536388052
409,3653.61,1.4384090580252669
410,3662.03,1.7915298169459817
411,3670.4700000000003,1.6495510304009504
412,3678.94,1.6892359756572994
413,3687.42,1.560648498180775
414,3695.9199999999996,1.704439175238504
415,3704.44,1.7353520068304866
416,3712.98,1.3608018929567223
417,3721.54,1.4018508336172117
418,3730.1099999999997,1.503719751544828
419,3738.72,1.0227044785409511
420,3747.33,1.2289677055370745
421,3755.9700000000003,1.4313355643345778
422,3764.63,1.3887571776663346
423,3773.3100000000004,1.4009822455323448
424,3782.01,1.6269218679326087
425,3790.7200000000003,1.4095426675999994
426,3799.46,1.2713543990687701
427,3800.75,1.7377986665281195
428,3801.8939600000003,1.7147342291274705
429,3802.4799999999996,1.7029597127033826
430,3804.21,1.592351140910171
431,3805.94,1.5154825691169596
432,3807.67,1.628555997323748
433,3809.4,1.5767554255305365
434,3811.1299999999997,1.468106253737325
435,3812.87,1.5971615618759447
436,3814.6000000000004,1.510094890082733
437,3816.33,1.5308474182895215
438,3818.06,1.48440054649631
439,3819.79,1.1610242747030983
440,3821.52,1.1529003029098868
441,3823.2500000000005,1.3210119311166753
442,3824.98,1.3806826593234638
443,3826.71,1.2611403875302523
444,3828.44,1.2100997157370408
445,3830.17,1.321570243943829
446,3831.8999999999996,1.0798289721506178
447,3833.63,1.1550639003574061
448,3835.3599999999997,1.2042719285641947
449,3837.09,1.064023756770983
450,3838.82,1.1345828849777715
451,3840.56,1.254054493116391
452,3842.29,1.4360019213231796
453,3844.0200000000004,1.499892649529968
454,3845.75,1.2851258777367565
455,3847.4799999999996,1.499349305943545
456,3849.21,1.6548648341503331
457,3850.94,1.2954881623571217
458,3852.67,1.3269859905639103
459,3854.4,1.3005714187706987
460,3856.1299999999997,1.2798787469774873
461,3857.86,1.2902722751842757
462,3859.59,1.3128480033910641
463,3861.3199999999997,1.1988452315978526
464,3863.05,1.336166159804641
465,3864.7799999999997,1.5204196880114296
466,3866.51,1.5624631162182179
467,3868.2499999999995,1.4446903243568376
468,3869.98,1.269536552563626
469,3871.71,1.2351249807704145
470,3873.44,1.242943508977203
471,3875.17,1.3324799371839915
472,3876.8999999999996,1.2744019653907799
473,3878.63,1.2638686935975683
474,3880.36,1.386523021804357
475,3882.09,1.4153901500111452
476,3883.82,1.4027469782179338
477,3885.5499999999997,1.3165742064247223
478,3887.28,1.3681435346315105
479,3889.0099999999998,1.370435462838299
480,3890.74,1.5517193910450875
481,3892.4700000000003,1.590316819251876
482,3894.2,1.6238542474586644
483,3895.9300000000003,1.4836330756654528
484,3897.6699999999996,1.5289183838040725
485,3899.4,1.6106088120108608
486,3901.1299999999997,1.4904981402176496
487,3902.86,1.475193168424438
488,3904.59,1.4775547966312264
489,3906.3199999999997,1.7135825248380148
490,3908.05,1.7276999530448032
491,3909.7799999999997,1.6604313812515918
492,3911.51,1.55219380945838
493,3913.2400000000002,1.5814262376651687
494,3914.97,1.660256665871957
495,3916.7000000000003,1.6981190940787456
496,3918.43,1.5683575222855342
497,3920.16,1.5303679504923224
498,3921.89,1.4867729786991108
499,3923.62,1.4858133069058994
500,3925.36,1.360442215044519
501,3927.0899999999997,1.1902769432513076
502,3928.82,1.1285036714580958
503,3930.5499999999997,0.9599889996648844
504,3932.28,1.0047063278716728
505,3934.01,0.9197201560784612
506,3935.74,0.9614025842852498
507,3937.4700000000003,0.9628253124920382
508,3939.2,0.9399154406988267
509,3940.9300000000003,1.155948568905615
510,3942.66,1.1481499971124036
511,3944.39,1.225869525319192
512,3946.1200000000003,1.3669454535259806
513,3947.85,1.375124681732769
514,3949.58,1.6035455099395575
515,3951.31,1.647495938146346
516,3953.05,1.5221756462849654
517,3954.7799999999997,1.594898074491754
518,3956.5099999999998,1.6302725026985425
519,3958.2400000000002,1.6136699309053308
520,3959.97,1.4608148591121193
521,3961.7000000000003,1.3648865873189078
522,3963.43,1.1614296155256962
523,3965.16,1.1586457437324846
524,3966.8900000000003,1.188459771939273
525,3968.62,1.0556879001460617
526,3970.3500000000004,1.04942342835285
527,3972.08,1.1466181565596387
528,3973.81,1.288019584766427
529,3975.54,1.4705755129732154
530,3977.27,1.487603641180004
531,3978.9999999999995,1.6204690693867925
532,3980.74,1.759557777525412
533,3982.4700000000003,1.7917472057322004
534,3984.2,1.820100633938989
535,3985.93,1.9456260621457773
536,3987.6600000000003,1.977886490352566
537,3989.39,1.9919189185593544
538,3991.1200000000003,1.8622883467661429
539,3992.85,1.8596427749729314
540,3994.58,1.8891742031797196
541,3996.31,1.9217026313865082
542,3998.04,1.9516190595932965
543,3999.7700000000004,1.8895864878000852
544,4001.5,2.0201849160068734
545,4003.23,2.1599083442136617
546,4004.96,2.0535917724204507
547,4006.69,2.0686592006272386
548,4008.43,2.118500908765858
549,4010.16,2.072221336972647
550,4011.8900000000003,1.9975557651794353
551,4013.62,2.126337193386224
552,4015.35,2.2393516215930123
553,4017.08,2.1029480497998008
554,4018.81,2.104347478006589
555,4020.5400000000004,2.1069109062133777
556,4022.27,2.173825334420166
557,4024.0,2.1968377626269544
558,4025.73,2.120478190833743
559,4027.46,2.0583166190405313
560,4029.19,2.06009904724732
561,4030.92,2.0255494754541084
562,4032.6499999999996,1.951135903660897
563,4034.38,2.0332893318676852
564,4036.11,2.134458760074474
565,4037.85,2.1749144682130934
566,4039.58,2.219816896419882
567,4041.3100000000004,2.1924313246266705
568,4043.04,2.102387752833459
569,4044.7699999999995,2.0429611810402473
570,4046.5,1.9790986092470355
571,4048.23,2.083654037453824
572,4049.96,2.0894814656606124
573,4051.69,2.148832893867401
574,4053.4199999999996,2.1648203220741897
575,4055.15,2.1069487502809783
576,4056.88,1.9941201784877665
577,4058.61,1.985229606694555
578,4060.34,2.013061034901343
579,4062.0699999999997,1.9759064631081318
580,4063.8,1.96388989131492
581,4065.5400000000004,2.1259985994535398
582,4067.27,2.1039530276603284
583,4069.0,2.018469455867117
584,4070.73,2.006582884073905
585,4072.46,2.0809213122806938
586,4074.1899999999996,2.105887740487482
587,4075.92,2.013638168694271
588,4077.65,2.0234955969010593
589,4079.38,2.1752010251078477
590,4081.11,2.268425453314636
591,4082.8399999999997,2.2217548815214245
592,4084.57,2.211692309728213
593,4086.2999999999997,2.2519057379350014
594,4088.03,2.25577116614179
595,4089.76,2.2901245943485784
596,4091.49,2.359244022555367
597,4093.23,2.3219497306939862
