,lambda (Angstroms),Total Flux (erg/s/cm^2/Angstrom)
0,100.09,15.334554444055005
1,101.94999999999999,15.291893829767018
2,104.09,15.242811187521697
3,104.712855,15.228525501009686
4,106.02000000000001,15.071042661271004
5,107.99,14.833700060193708
6,110.0,14.591538320008281
7,114.13,14.093962207089993
8,117.87,13.643372700476478
9,120.22644299999999,13.359472035041353
10,120.89000000000001,13.292447101059173
11,125.14000000000001,12.863160740693935
12,126.88,12.687405854333141
13,128.05,12.56922584453881
14,131.04,12.267210263953901
15,131.94,12.176302564113886
16,134.09,11.959134170048664
17,136.9,11.675300129437629
18,138.038426,11.560309363772985
19,140.09,11.412187230947302
20,143.02,11.20064338749767
21,147.03,10.91112433902993
22,151.14000000000001,10.614385364107333
23,155.02,10.334252219943389
24,158.489319,10.083769941742924
25,159.0,10.05589494667101
26,161.95000000000002,9.894872242783935
27,166.11,9.667802938382188
28,169.98,9.45656298461448
29,173.14,9.284077647744324
30,177.17,9.064104259381324
31,180.05,8.906902433560077
32,181.970086,8.802096522150475
33,182.13,8.795437326461247
34,185.95000000000002,8.636363527419073
35,191.16,8.419406854023615
36,193.82,8.308638188137564
37,197.88,8.139570224373676
38,202.02,7.967170872505434
39,204.83,7.850155853865865
40,208.929613,7.679438312011762
41,210.07999999999998,7.643422778742179
42,215.97000000000003,7.4590226699273146
43,219.98,7.333480321168706
44,223.04000000000002,7.237679925358205
45,227.19,7.107754553122369
46,229.82,7.025416325092045
47,234.09,6.891734113970708
48,239.88329199999998,6.710361717181772
49,240.1,6.705133487383578
50,246.26,6.556519210894916
51,252.0,6.418037751435829
52,257.27,6.29089531541208
53,260.25,6.219000791347425
54,263.87,6.131665808835377
55,268.78,6.013208673748609
56,273.77,5.892821485357875
57,275.42287,5.852944858098271
58,278.86,5.789305062199758
59,284.05,5.69321020434128
60,290.0,5.583043635191138
61,296.07,5.470655251573987
62,300.88,5.381596234412841
63,307.89,5.251803408026512
64,316.227766,5.09742649898405
65,317.96999999999997,5.073332848897769
66,327.64,4.939604778488465
67,338.37,4.79121777629134
68,347.85,4.66011727002408
69,356.77,4.536761119465297
70,363.078055,4.4495260071451135
71,365.92,4.420093204936642
72,375.31,4.322844986337876
73,384.94,4.22311114097341
74,394.81,4.120891895815243
75,404.94,4.0159799028004
76,414.37,3.9183174623736843
77,416.86938299999997,3.89243243029531
78,422.08000000000004,3.8512221069029535
79,429.92,3.7892162362775843
80,440.95000000000005,3.7019810204128674
81,451.22,3.6207565145804868
82,459.61,3.554400757284782
83,470.32,3.4696963618317334
84,478.630092,3.4039727040625545
85,480.16999999999996,3.394605971079734
86,490.22,3.333475123790238
87,500.49,3.271006333448318
88,506.28,3.23578904056023
89,512.14,3.200155507631097
90,520.47,3.1494883682048314
91,530.14,3.090670887955433
92,540.0,3.030695876661486
93,549.5408739999999,2.972671994505766
94,550.04,2.970356502743114
95,560.26,2.922942667782254
96,569.37,2.8806789334523493
97,579.9499999999999,2.831586152987937
98,589.38,2.7878447266648734
99,600.33,2.737040864286809
100,610.09,2.691770807600489
101,620.0,2.645805083632689
102,630.0699999999999,2.5990935695233093
103,630.957344,2.594976772830536
104,640.3100000000001,2.560580127071212
105,650.72,2.5223130066383836
106,658.25,2.494631029425877
107,664.34,2.4722456248735303
108,675.1400000000001,2.4325290853723245
109,684.53,2.397994943702944
110,695.65,2.3571613838328136
111,705.33,2.3215512844228443
112,716.7900000000001,2.2794670970982316
113,724.43596,2.2513634598528127
114,726.76,2.245024288829231
115,735.18,2.22206138630732
116,745.4,2.1942242928443836
117,755.7700000000001,2.165958291703028
118,764.53,2.142090852763368
119,775.16,2.1131372272260864
120,784.14,2.088691154151412
121,795.0500000000001,2.058954670487749
122,804.25,2.03389319317806
123,815.44,2.003394336688015
124,824.8800000000001,1.977733608612856
125,831.763771,1.958835646801604
126,834.4300000000001,1.9533544872804032
127,844.1,1.933874099937136
128,855.8399999999999,1.9099792155346589
129,865.75,1.8898762704845262
130,875.77,1.8695583379979144
131,885.9200000000001,1.849006860540917
132,894.11,1.8324218354066502
133,904.47,1.8113259038436462
134,914.94,1.7910387518441622
135,925.53,1.7874553036412462
136,934.1,1.7969353933627765
137,944.9100000000001,1.8225128652869007
138,954.992586,1.8411032710393862
139,955.86,1.8427408619491377
140,964.7,1.8496083549479667
141,975.8699999999999,1.6924730044046319
142,984.9,1.7966841783163314
143,994.01,1.7870150110334504
144,1005.52,1.8335854079131475
145,1014.83,1.8077586626438142
146,1024.22,1.6615178261799008
147,1036.0800000000002,1.7070685515833066
148,1045.66,1.835860846032264
149,1055.34,1.8150887514879956
150,1065.1,1.738340405749146
151,1074.96,1.7695741710170703
152,1084.91,1.6936136161910915
153,1094.94,1.7535817101705322
154,1096.4782,1.7486068067059224
155,1105.08,1.7238998240601378
156,1115.3,1.700053967210457
157,1125.62,1.6548791146968853
158,1136.04,1.714049266519422
159,1143.91,1.6737091577711842
160,1154.5,1.6798090669651065
161,1165.18,1.6780386300615255
162,1175.96,1.5539779974940544
163,1184.1100000000001,1.6487713008869211
164,1195.07,1.530019176124446
165,1206.12,1.4400875052644684
166,1214.49,1.3545548181967746
167,1225.72,1.4786837551417926
168,1234.22,1.5949973237110404
169,1245.6399999999999,1.6145570188946656
170,1254.2700000000002,1.5866709431008543
171,1258.92541,1.5600214489059705
172,1265.88,1.5234751428801885
173,1274.6499999999999,1.6066656152068273
174,1286.45,1.6137800214159865
175,1295.3600000000001,1.51032441907053
176,1304.34,1.506264129389026
177,1316.41,1.5844994415877172
178,1325.54,1.5538450219003976
179,1334.73,1.4985272702107515
180,1343.9799999999998,1.5615417865187795
181,1356.41,1.5390209067035125
182,1365.8200000000002,1.483515237672003
183,1375.2800000000002,1.4937033919718887
184,1384.82,1.492436703602006
185,1394.42,1.417277683229797
186,1404.0800000000002,1.4296939308552616
187,1413.8100000000002,1.4370087911446787
188,1423.61,1.4373708640980487
189,1433.48,1.431311649715371
190,1443.42,1.4444857479966462
191,1445.43977,1.4449431221054172
192,1446.75,1.445700993107482
193,1453.42,1.4310382742193855
194,1463.5,1.3918390291831013
195,1473.6399999999999,1.3868151707835064
196,1483.86,1.386114927899496
197,1494.1399999999999,1.3866151716521746
198,1504.5,1.3542092309204383
199,1511.44,1.302193551897441
200,1518.42,1.3241492306322362
201,1525.43,1.315394302685376
202,1535.9999999999998,1.2554221151820508
203,1546.6499999999999,1.2773987431943103
204,1553.79,1.2545863529602757
205,1564.5600000000002,1.2609019542459126
206,1575.4,1.2798443066076866
207,1586.32,1.2908530744850455
208,1593.65,1.2956878086005252
209,1604.69,1.282367949751262
210,1615.82,1.2776543708570318
211,1623.28,1.2533367426853372
212,1634.53,1.2746346370644848
213,1645.8600000000001,1.273335546959217
214,1653.4499999999998,1.2394435565003485
215,1659.58691,1.2561020796026434
216,1664.91,1.2718490290110507
217,1672.6,1.2281161518181607
218,1676.4599999999998,1.269974516192081
219,1684.19,1.282367046920164
220,1695.87,1.2507066598443575
221,1703.7,1.230236410374874
222,1715.51,1.2015131490422302
223,1723.4199999999998,1.1970082154146933
224,1735.37,1.2201266818054561
225,1743.3799999999999,1.205384567980352
226,1755.46,1.228521560114278
227,1763.5700000000002,1.1905364660916073
228,1775.79,1.1914229859489398
229,1783.99,1.199336909748459
230,1796.35,1.2209122573291977
231,1804.6499999999999,1.21740320093115
232,1812.9799999999998,1.1724855504738325
233,1825.54,1.1826682376594373
234,1833.97,1.1616663070045528
235,1846.68,1.1182644238938075
236,1855.2099999999998,1.1133986130413565
237,1863.77,1.1235327081296347
238,1876.69,1.1570565666039991
239,1885.3500000000001,1.1101507814947107
240,1894.05,1.084983704306396
241,1905.46072,1.1085083853804736
242,1907.18,1.1123146500786365
243,1915.99,1.0888811420146027
244,1924.83,1.0766823071353677
245,1933.7099999999998,1.094564169835865
246,1947.12,1.1069657834410074
247,1956.1100000000001,1.0710583144857673
248,1965.1299999999999,1.1110432187153263
249,1974.2,1.1251499449195501
250,1983.3200000000002,1.092987393098439
251,1997.06,1.0770259117363703
252,2006.28,1.0903566038645889
253,2015.5400000000002,1.0749684935725399
254,2024.85,1.0967669052551556
255,2034.1899999999998,1.0626427901225703
256,2043.5800000000002,1.07593669696465
257,2053.02,1.0536559257813947
258,2067.25,1.0545093397710423
259,2072.0099999999998,1.084310351759147
260,2076.79,1.051664212537117
261,2086.37,1.0675094828829237
262,2096.0,1.039094375203395
263,2105.68,1.0465174894985316
264,2115.4,1.0471164013733998
265,2125.1600000000003,1.052501410828
266,2134.97,1.0239579422572656
267,2144.83,1.023254495661196
268,2154.73,1.038960146644858
269,2164.67,1.0253741952082522
270,2174.66,1.0188767657463116
271,2184.7,1.0054715582590357
272,2187.7616199999998,1.0105568254799353
273,2194.79,1.0231800295120808
274,2204.92,1.0108821048026044
275,2215.09,0.9919356800942747
276,2225.32,0.9756645053876661
277,2235.59,0.9964233306822046
278,2245.9100000000003,0.9809670309781771
279,2256.2799999999997,0.9636269062755838
280,2266.69,0.9717372815741372
281,2277.15,0.9789403318741249
282,2282.4,0.9855284070246922
283,2292.94,0.9600667573269742
284,2303.52,0.9605634076304035
285,2314.15,0.9412751329352665
286,2324.83,0.8551650332415637
287,2335.5699999999997,0.9154848835495817
288,2346.35,0.9054348338587466
289,2357.1800000000003,0.9244049591693455
290,2362.61,0.9000550843250753
291,2373.52,0.9053257096379688
292,2384.47,0.8821810349520094
293,2395.48,0.9004692102677707
294,2406.53,0.8832184855846791
295,2417.64,0.8873289109033085
296,2423.2200000000003,0.9014229610633401
297,2434.4,0.8828394113839769
298,2445.64,0.8986103117063347
299,2456.93,0.8913390870301262
300,2462.59,0.8877272371924522
301,2473.96,0.8732572125185382
302,2485.38,0.8826725628460581
303,2496.85,0.8529736881750121
304,2502.6,0.8887375133399191
305,2511.88643,0.8602983037258856
306,2514.16,0.8534993414615287
307,2519.9500000000003,0.8666758249374351
308,2525.76,0.8492025986844158
309,2537.42,0.8499364267205247
310,2543.2700000000004,0.8417849810096532
311,2555.0099999999998,0.8587699701300581
312,2566.8,0.8512980349281476
313,2572.72,0.8679315551660349
314,2584.59,0.8634720810484202
315,2596.52,0.8590173777440275
316,2602.51,0.8463564639306735
317,2614.52,0.8419373217105767
318,2626.5899999999997,0.8489227503037016
319,2632.64,0.8530113073035694
320,2644.7999999999997,0.8734930921165269
321,2657.0,0.8733621574716325
322,2663.13,0.8470438755557961
323,2675.42,0.8586789971307343
324,2687.77,0.8551677895188945
325,2693.97,0.8399579735518169
326,2706.4,0.8439457270242727
327,2712.64,0.829970591599343
328,2725.16,0.8275090012916316
329,2737.7400000000002,0.839975281797142
330,2744.05,0.8023095123209711
331,2756.72,0.8038437490463143
332,2763.07,0.8117730601122913
333,2775.8300000000004,0.8228667530574671
334,2782.2200000000003,0.8121552446655921
335,2795.07,0.7558626938306008
336,2807.9700000000003,0.7740219186732942
337,2814.44,0.8153203713657149
338,2827.4300000000003,0.8192061524282411
339,2833.9500000000003,0.8020192807983467
340,2847.0299999999997,0.7953087180807059
341,2853.5899999999997,0.7899018269929592
342,2866.77,0.8061422156306879
343,2873.37,0.8016550050850892
344,2884.0315,0.8004237061663922
345,2886.64,0.8002837398898905
346,2893.29,0.7962145908180841
347,2913.35,0.8107417916631308
348,2926.7900000000004,0.7991851819601112
349,2947.0800000000004,0.791125792386133
350,2967.5099999999998,0.7926591912527485
351,2988.0800000000004,0.7888303785599574
352,3008.79,0.7882024543077599
353,3029.6499999999996,0.7854156319561985
354,3050.6499999999996,0.7804566980452303
355,3071.79,0.7765620525748559
356,3093.09,0.7737087224651598
357,3107.36,0.769646829945659
358,3128.9,0.7625048228769804
359,3150.5899999999997,0.7606607177089377
360,3172.43,0.755612714441531
361,3187.07,0.741107519943599
362,3209.17,0.7454211666372945
363,3231.4100000000003,0.7330979017715835
364,3246.33,0.7404224841548387
365,3268.83,0.7416139692502302
366,3291.4900000000002,0.7364567697062998
367,3306.6800000000003,0.7333766155106995
368,3311.31121,0.7346874785982339
369,3321.94,0.7381568178110358
370,3329.6,0.7428303643197954
371,3337.28,0.7346307049447658
372,3344.97,0.7265349926278417
373,3352.6800000000003,0.7311008744271285
374,3360.41,0.7230358503426262
375,3368.1499999999996,0.7233780733162292
376,3375.92,0.7022277374641485
377,3383.7,0.7095877486701732
378,3391.5,0.7265219539924088
379,3399.32,0.7386934534308554
380,3407.1600000000003,0.7115290469855126
381,3415.0099999999998,0.7191091875982754
382,3422.8799999999997,0.7322210223272491
383,3430.77,0.7272033511724334
384,3438.6800000000003,0.7286305741338288
385,3446.61,0.703838091211435
386,3454.56,0.7155201024052521
387,3462.52,0.6962956606571746
388,3470.5000000000005,0.7057531130253079
389,3478.5,0.6918304595096522
390,3486.52,0.7012111001102073
391,3494.56,0.7015034348269732
392,3502.6099999999997,0.7080115166018446
393,3510.69,0.6959339395510322
394,3518.78,0.6921582095583253
395,3526.89,0.6944570736818292
396,3535.02,0.704003431921544
397,3543.17,0.7138103842774697
398,3551.34,0.7130530307496062
399,3559.53,0.7059569713379537
400,3567.73,0.7052166589844064
401,3575.96,0.6789059878051755
402,3584.2000000000003,0.6702634636840501
403,3592.46,0.6675552336791355
404,3600.7400000000002,0.6917953977904318
405,3602.8300000000004,0.6761457329344667
406,3605.55,0.6736896327391437
407,3608.2799999999997,0.6465386796019262
408,3611.01,0.6010005264647086
409,3613.73,0.5666728262693856
410,3616.46,0.5975381731321682
411,3619.19,0.6856139199949506
412,3621.92,0.7030300668577331
413,3624.64,0.7347217666624102
414,3627.37,0.7194786135251927
415,3630.1,0.661279460387975
416,3632.82,0.701464360192652
417,3635.55,0.6881299070554345
418,3638.2799999999997,0.670750453918217
419,3641.01,0.6684135007809995
420,3643.73,0.6944489005856765
421,3646.46,0.742230247448459
422,3649.19,0.6829277943112414
423,3651.92,0.6534479411740239
424,3654.6400000000003,0.694263040978701
425,3657.37,0.7476129878414834
426,3660.1,0.7593728347042659
427,3662.82,0.6865550345089428
428,3665.55,0.6671791813717254
429,3668.2799999999997,0.6904792282345078
430,3671.01,0.6916446750972903
431,3673.73,0.6825341749019673
432,3676.4599999999996,0.6681667217647498
433,3679.19,0.7193452686275322
434,3681.92,0.6948735154903147
435,3684.6400000000003,0.6740477152949917
436,3687.37,0.6874536621577743
437,3690.1,0.6391662090205568
438,3692.82,0.7179292088252337
439,3695.55,0.6713752556880161
440,3698.2799999999997,0.7145860025507986
441,3701.01,0.711758649413581
442,3703.73,0.6977450492182582
443,3706.4599999999996,0.7152836960810407
444,3709.19,0.6777133429438231
445,3711.92,0.6882823898066055
446,3714.6400000000003,0.7402000896112826
447,3717.37,0.712628636474065
448,3720.1,0.7818615833368474
449,3722.82,0.9735054831415245
450,3725.55,1.449989630004307
451,3728.2799999999997,1.9108161768670895
452,3731.01,1.959699723729872
453,3733.73,1.5674553235345488
454,3736.4599999999996,1.0462647703973313
455,3739.19,0.8051737172601139
456,3741.91,0.7537378170647909
457,3744.6400000000003,0.7462348639275734
458,3747.37,0.7278220107903558
459,3750.1,0.6951898576531383
460,3752.82,0.6992831574578153
461,3755.55,0.7424940043205978
462,3758.2799999999997,0.7456205511833803
463,3761.01,0.7779915980461627
464,3763.73,0.7975128978508398
465,3766.4599999999996,0.7655460447136222
466,3769.19,0.7118123915764046
467,3771.91,0.6887100913810817
468,3774.6400000000003,0.7165982382438641
469,3777.37,0.7711214851066467
470,3780.1,0.8108822319694291
471,3782.82,0.8399302317741062
472,3785.5499999999997,0.8714780786368886
473,3788.28,0.8436263254996711
474,3791.01,0.8409389723624535
475,3793.73,0.7651270721671306
476,3796.46,0.733545519029913
477,3799.19,0.7238185658926956
478,3801.8939600000003,0.7432943346499984
479,3801.91,0.7434103555341356
480,3804.6400000000003,0.7804177723696969
481,3807.37,0.7935391892052581
482,3810.1000000000004,0.8288479060408194
483,3812.82,0.8600802704337593
484,3815.5499999999997,0.8409977872693206
485,3818.28,0.8580417041048818
486,3821.01,0.839361920940443
487,3823.73,0.8345203853333831
488,3826.46,0.8241236021689443
489,3829.19,0.7716640190045055
490,3831.91,0.7317988833974457
491,3834.6400000000003,0.6946794002330069
492,3837.37,0.6997281170685681
493,3840.1000000000004,0.6994007339041293
494,3842.82,0.7509111982970694
495,3845.5499999999997,0.7787425151326307
496,3848.28,0.8143139319681918
497,3851.0,0.845563796361132
498,3853.73,0.8950394131966931
499,3856.46,0.8958326300322544
500,3859.19,0.8744384468678156
501,3861.91,0.9056185112607558
502,3864.64,0.9210864280963169
503,3867.37,0.9585487449318781
504,3870.1000000000004,0.9851889617674393
505,3872.82,0.9635016261603795
506,3875.5499999999997,0.9080647429959408
507,3878.28,0.8431368598315019
508,3881.0,0.833461924224442
509,3883.73,0.8336072410600032
510,3886.46,0.8035274578955645
511,3889.19,0.8023593747311256
512,3891.9100000000003,0.7909858391240657
513,3894.64,0.7846518559596269
514,3897.37,0.7792634727951882
515,3900.1000000000004,0.8050107896307493
516,3902.82,0.8370836540236894
517,3905.5499999999997,0.8628659708592507
518,3908.28,0.8979468876948119
519,3911.0,0.919863352087752
520,3913.7300000000005,0.9220924689233132
521,3916.46,0.9143223857588745
522,3919.19,0.8986896025944356
523,3921.9100000000003,0.8866332669873758
524,3924.64,0.888074383822937
525,3927.37,0.8513926006584982
526,3930.1000000000004,0.8184584174940593
527,3932.82,0.7888552818869995
528,3935.5499999999997,0.7626630987225608
529,3938.28,0.8177249155581219
530,3941.0,0.854210779951062
531,3943.7299999999996,0.8617633967866232
532,3946.46,0.8614359136221844
533,3949.19,0.8776568304577457
534,3951.9100000000003,0.8710466948506859
535,3954.64,0.868757811686247
536,3957.37,0.8656458285218082
537,3960.09,0.8387219929147484
538,3962.82,0.7966117097503096
539,3965.5499999999997,0.7572332265858708
540,3968.28,0.7397619434214319
541,3971.0,0.7305770078143721
542,3973.7299999999996,0.7430857246499333
543,3976.46,0.7486071414854945
544,3979.19,0.7768236583210557
545,3981.9100000000003,0.8033452227139958
546,3984.64,0.858967439549557
547,3987.37,0.8863082563851182
548,3990.09,0.8850391207780584
549,3992.82,0.9042546376136195
550,3995.5499999999997,0.9329962544491808
551,3998.28,0.924017871284742
552,4001.0,0.9114189356776821
553,4003.7299999999996,0.9050497525132434
554,4006.46,0.9097654693488044
555,4009.19,0.9299089861843657
556,4011.9100000000003,0.9291303505773059
557,4014.64,0.9204145674128671
558,4017.37,0.9198766842484283
559,4020.09,0.9222677486413683
560,4022.8199999999997,0.9375254654769296
561,4025.55,0.9505767823124908
562,4028.28,0.9383235991480521
563,4031.0,0.9509764635409921
564,4033.73,0.9312808803765533
565,4036.46,0.9075051972121145
566,4039.1899999999996,0.9195408140476757
567,4041.9100000000003,0.9350304784406158
568,4044.64,0.9411821952761771
569,4047.3700000000003,0.9216091121117382
570,4050.09,0.9231245765046784
571,4052.8199999999997,0.8995763933402396
572,4055.55,0.9343772101758008
573,4058.28,0.925188627011362
574,4061.0,0.9258108914043022
575,4063.73,0.9053974082398634
576,4066.46,0.9315823250754246
577,4069.18,0.9325198894683646
578,4071.9100000000003,0.9111083063039258
579,4074.64,0.9025151231394871
580,4077.3700000000003,0.9003838399750483
581,4080.09,0.8773127043679885
582,4082.8199999999997,0.8646393212035497
583,4085.55,0.8849580380391108
584,4088.28,0.8852258548746721
585,4091.0,0.8611916192676121
586,4093.73,0.8150536361031733
587,4096.46,0.8190339529387346
588,4099.18,0.8342955173316747
589,4101.91,0.851777434167236
590,4104.64,0.8261805510027971
591,4107.37,0.8092170678383582
592,4110.09,0.7926250322312984
593,4112.82,0.8151327490668596
594,4115.55,0.8241739659024209
595,4118.280000000001,0.8437571827379821
596,4121.0,0.8498778471309223
597,4123.73,0.8603724639664834
598,4126.46,0.8636522808020446
599,4129.18,0.8650798451949846
