,lambda (Angstroms),Total Flux (erg/s/cm^2/Angstrom)
0,100.09,0.15407204874371597
1,101.94999999999999,0.15364383863890493
2,104.08000000000001,0.15315318280094392
3,104.712855,0.15300745256443435
4,106.02000000000001,0.15142540816341832
5,107.99,0.1490411978942965
6,110.0,0.14660966086251742
7,114.12,0.14162342429681593
8,118.13000000000001,0.13677014983517205
9,120.22644299999999,0.13424143882283468
10,120.89000000000001,0.1335708660995386
11,125.13,0.12927015302728848
12,126.87,0.12750531053127065
13,128.05,0.12630845452856898
14,131.03,0.12328549404377996
15,131.94,0.12236461889839136
16,134.07999999999998,0.12019371445857642
17,136.89,0.11734600815765117
18,138.038426,0.11618114490694531
19,140.07999999999998,0.11470128945472463
20,143.01,0.11260097100039958
21,147.02,0.10973075225151102
22,151.14000000000001,0.10674715412187988
23,155.02,0.1039391527265962
24,158.489319,0.10142861223210223
25,158.99,0.10115491182756849
26,161.95000000000002,0.0995367744120648
27,166.1,0.09726861253323361
28,169.97000000000003,0.09515262828695006
29,173.13,0.09342534623391235
30,177.16,0.09122221219760158
31,180.04,0.08964796177711151
32,181.970086,0.08859309125202637
33,182.13,0.0885264848816237
34,185.94,0.08693944905431994
35,191.15,0.08476816445609088
36,193.81,0.08366171710133287
37,197.87,0.08196976437564958
38,202.01,0.08024505131448485
39,204.82,0.07907525758069914
40,208.929613,0.07735726476010008
41,210.07999999999998,0.07699580824110183
42,215.96,0.07516410941416234
43,219.98,0.07390728543043842
44,223.04000000000002,0.07294844759805154
45,227.17999999999998,0.07165484789541049
46,229.81,0.07094353848914334
47,234.09,0.06982305304776563
48,239.88329199999998,0.06812669001339912
49,240.09,0.06808107786252356
50,246.25,0.06654967019539401
51,251.98999999999998,0.06518038785329601
52,257.26,0.06378212262492379
53,260.24,0.06314938961874748
54,263.86,0.062295191917284984
55,268.77000000000004,0.061097114367511245
56,273.76,0.05987678395582676
57,275.42287,0.05947020548184076
58,278.85,0.05882543814336766
59,284.03999999999996,0.057852468207618815
60,289.99,0.05670779593349439
61,296.06,0.055578612205942256
62,300.87,0.05465761678938118
63,307.88,0.053352223893311915
64,316.227766,0.051796001481760535
65,317.96,0.05155463110934289
66,327.62,0.05019530439701365
67,338.35999999999996,0.04868264637461034
68,347.84000000000003,0.04734460529729343
69,356.76,0.046089835917792726
70,363.078055,0.045204801567465265
71,365.90999999999997,0.04490690825892077
72,375.3,0.04391296862923526
73,384.91999999999996,0.04288101999413679
74,394.8,0.04185088580944106
75,404.93,0.040784634123209505
76,414.36,0.03978865030127826
77,416.86938299999997,0.03952259739848014
78,422.06,0.0390999194684912
79,429.91,0.03846240657734486
80,440.94,0.0375744006207405
81,451.21000000000004,0.036742937735126095
82,459.6,0.036063087472486884
83,470.3,0.03520016091512817
84,478.630092,0.03453043856658457
85,480.15000000000003,0.03443612924810053
86,490.2,0.0338064256269419
87,500.47,0.033173061896862394
88,506.26,0.03281991977571727
89,512.13,0.03252692312405546
90,520.45,0.03200993755032015
91,530.12,0.031408200399115786
92,539.98,0.030785001662934283
93,549.5408739999999,0.03022032865500642
94,550.02,0.030198975186531786
95,560.24,0.029742662402892306
96,569.35,0.029328428673248894
97,579.9300000000001,0.028817003980205293
98,589.35,0.028399593484130552
99,600.3100000000001,0.027876287864493688
100,610.06,0.0274287419847985
101,619.98,0.027010086358995794
102,630.0500000000001,0.026546566704274705
103,630.957344,0.026504442248872224
104,640.2900000000001,0.026161340867404122
105,650.69,0.02579749479309565
106,658.23,0.02552303048922201
107,664.32,0.025318507186093294
108,675.11,0.02492532058399825
109,684.5,0.024559626068829346
110,695.63,0.02422500005276653
111,705.3,0.0238324791202124
112,716.76,0.023489719172945556
113,724.43596,0.023216623671380148
114,726.73,0.023156855667633487
115,735.15,0.022941329832544488
116,745.3799999999999,0.022700400625067
117,755.75,0.02244063667828874
118,764.5,0.022208530171990787
119,775.13,0.021974932623653964
120,784.1099999999999,0.0217602764313619
121,795.02,0.02149214160442354
122,804.2199999999999,0.02126831816465884
123,815.41,0.020982903259118946
124,824.85,0.02078348459483864
125,831.763771,0.02050233983416772
126,834.4,0.02041340213041667
127,844.0699999999999,0.020380454179137992
128,855.8100000000001,0.020164405687099565
129,865.7199999999999,0.020019577170225556
130,875.74,0.01986836198162035
131,885.88,0.01972552606021748
132,894.08,0.019603804985710228
133,904.43,0.01940275378191144
134,914.9,0.01961800384531498
135,925.4999999999999,0.02663663611485439
136,934.0600000000001,0.03622749384195413
137,944.88,0.05216608776803115
138,954.992586,0.06348919208745263
139,955.82,0.06441601746322162
140,964.66,0.07238301914649234
141,975.83,0.028070653671620593
142,984.86,0.0685160133548711
143,993.98,0.06821333735390152
144,1005.49,0.08448360040530942
145,1014.79,0.07900731303589964
146,1024.18,0.04259484998226977
147,1036.04,0.06215810092837731
148,1045.6200000000001,0.09694016587472724
149,1055.3,0.09525554450527707
150,1065.06,0.08112246808318681
151,1074.92,0.09072707534529645
152,1084.87,0.077309926923186
153,1094.9,0.09192121344843544
154,1096.4782,0.09137169140762133
155,1105.03,0.08842509157029915
156,1115.26,0.0862318760116692
157,1125.5800000000002,0.0791059720463651
158,1135.99,0.09159872967438683
159,1143.8700000000001,0.08460625695669337
160,1154.45,0.08744125203877502
161,1165.13,0.08899493444677427
162,1175.92,0.06843293991328285
163,1184.07,0.08477225197556691
164,1195.02,0.06550276916354365
165,1206.0800000000002,0.052661939410029765
166,1214.44,0.036068811856740775
167,1225.68,0.06001857528987855
168,1234.17,0.08055520226028244
169,1245.59,0.08645967888007189
170,1254.23,0.08394913183935217
171,1258.92541,0.08039510711996088
172,1265.83,0.07520148639008442
173,1274.61,0.08903626951628502
174,1286.4,0.09125260448871157
175,1295.3200000000002,0.07816013816589942
176,1304.3,0.07683229922208182
177,1316.3600000000001,0.08854855239998378
178,1325.49,0.08528868690365252
179,1334.68,0.0784778587863158
180,1343.93,0.08698308804797361
181,1356.3600000000001,0.08441691839634188
182,1365.76,0.07795685110548604
183,1375.23,0.07989880409012382
184,1384.76,0.08010776445375616
185,1394.3600000000001,0.07125205509288209
186,1404.03,0.07270941600750166
187,1413.76,0.07480111430111577
188,1423.5600000000002,0.07498771287022352
189,1433.43,0.07457092171482486
190,1443.36,0.07689514793842078
191,1445.43977,0.07715979369583414
192,1446.6899999999998,0.07732330377031588
193,1453.37,0.0755736416999628
194,1463.44,0.07121348989630182
195,1473.59,0.07056669417563062
196,1483.8000000000002,0.07076538801720175
197,1494.09,0.07110585794176266
198,1504.44,0.06809463742856592
199,1511.3899999999999,0.06283242838830337
200,1518.36,0.06545012586878826
201,1525.3700000000001,0.06397943639076806
202,1535.95,0.05777528586616693
203,1546.59,0.060358434903808156
204,1553.73,0.057745462810646346
205,1564.5,0.05856908923314596
206,1575.3500000000001,0.06120650173863536
207,1586.27,0.06259774206674082
208,1593.59,0.06342122866030603
209,1604.6299999999999,0.06157886811289616
210,1615.76,0.061243981908849804
211,1623.21,0.0587866858872734
212,1634.47,0.06096710706808544
213,1645.8,0.06111760607151355
214,1653.39,0.057728035695169266
215,1659.58691,0.05954429074444819
216,1664.85,0.06109974163641992
217,1672.5400000000002,0.056351757032596664
218,1676.39,0.06103325610610518
219,1684.13,0.06223512525648334
220,1695.8100000000002,0.059226498237932544
221,1703.6299999999999,0.05731050939503295
222,1715.44,0.05521851813740583
223,1723.36,0.05462635680290906
224,1735.31,0.05678503405704587
225,1743.32,0.05550239748011164
226,1755.4,0.057591640495172125
227,1763.5,0.05396311867580043
228,1775.73,0.054763642953465134
229,1783.9199999999998,0.055046185891655976
230,1796.2900000000002,0.05700904868108463
231,1804.5800000000002,0.05650309912767829
232,1817.0900000000001,0.053333640428870885
233,1825.4799999999998,0.053715728383867366
234,1833.8999999999999,0.052178154591384696
235,1846.61,0.048778300909382934
236,1855.14,0.04882584737614336
237,1863.7,0.04966198209542463
238,1876.62,0.051828936181068784
239,1885.28,0.048653598408752864
240,1893.98,0.04698256163979808
241,1905.46072,0.0485051270781762
242,1907.11,0.048726376233267636
243,1915.91,0.04734373746067368
244,1924.76,0.04627844892232634
245,1933.64,0.04698596452452698
246,1947.04,0.04855896730262255
247,1956.03,0.04596322142016576
248,1965.06,0.04858142772510628
249,1974.13,0.04933397621744409
250,1983.24,0.04725094689717921
251,1996.9899999999998,0.04606789131500115
252,2006.21,0.04668133051007885
253,2015.47,0.04562236189255384
254,2024.77,0.046603605462426125
255,2034.1200000000001,0.04490735926654505
256,2043.51,0.04568806525806127
257,2052.94,0.04341228343697478
258,2067.17,0.04378994410356432
259,2071.93,0.046125074403843044
260,2076.71,0.04472901079782042
261,2086.3,0.04569327772632314
262,2095.93,0.04366924684222316
263,2105.6,0.04389341814552048
264,2115.32,0.04402964968306442
265,2125.08,0.044167493408005666
266,2134.8900000000003,0.04204051736719354
267,2144.75,0.042509451560628034
268,2154.65,0.04333488794145983
269,2164.59,0.04200033650968892
270,2174.58,0.04170506531216465
271,2184.62,0.04124451434888699
272,2187.7616199999998,0.04160031877883924
273,2194.7,0.04239554081993222
274,2204.83,0.04135037849158692
275,2215.01,0.03976804424651731
276,2225.24,0.03886982808472339
277,2235.51,0.04060055838955002
278,2245.83,0.03928237677765234
279,2256.19,0.03793508163237521
280,2266.61,0.0382106561870289
281,2277.0699999999997,0.03880089720830316
282,2287.58,0.0393227063128531
283,2292.85,0.03752868829011077
284,2303.43,0.03773849871124668
285,2314.07,0.03660963883231341
286,2324.75,0.03154386542000069
287,2335.48,0.034667340090963665
288,2346.26,0.03357084284520233
289,2357.09,0.035414363682716686
290,2362.52,0.03328754152645656
291,2373.43,0.033875745297212025
292,2384.38,0.03190759553458803
293,2395.39,0.03318452547189486
294,2406.44,0.03226249187582225
295,2417.55,0.032570787979680466
296,2423.13,0.033957160073247415
297,2434.31,0.0328769474936916
298,2445.5499999999997,0.03400089461406661
299,2456.83,0.03358244820106216
300,2462.5,0.03324146484452535
301,2473.86,0.03224668136476202
302,2485.28,0.032362377584929505
303,2496.76,0.03065413350502782
304,2502.51,0.03333042308173212
305,2511.88643,0.031090476951711733
306,2514.0600000000004,0.03057280297126903
307,2519.8599999999997,0.030936627131267547
308,2525.67,0.03014416014326606
309,2537.32,0.030377902723263073
310,2543.17,0.03007430114326157
311,2554.9100000000003,0.03160616339125857
312,2566.71,0.030850018751255544
313,2572.62,0.03198018028325403
314,2584.5,0.031591066459250985
315,2596.4300000000003,0.031144746895247925
316,2602.41,0.030220130391246394
317,2614.42,0.029793691643243317
318,2626.4900000000002,0.03069455600724022
319,2632.55,0.03163128031923867
320,2644.7,0.03360775549923556
321,2656.8999999999996,0.03443576493923243
322,2663.03,0.03180904121523086
323,2675.3199999999997,0.03265261032322771
324,2687.6699999999996,0.032847142543224545
325,2693.87,0.031219920783222957
326,2706.2999999999997,0.03191755381921977
327,2712.54,0.03040123746721817
328,2725.0600000000004,0.02996846017121496
329,2737.64,0.031008415987211737
330,2743.95,0.027924361599210124
331,2756.6099999999997,0.02853715823120688
332,2762.9700000000003,0.02940688810320525
333,2775.72,0.030243264403201985
334,2782.1200000000003,0.02857762968320034
335,2794.96,0.024463185651197053
336,2807.8599999999997,0.025537014731193745
337,2814.34,0.029554590827192084
338,2827.33,0.030710359575188757
339,2833.84,0.029844482227187087
340,2846.92,0.028825090643183737
341,2853.4900000000002,0.02751273640718205
342,2866.66,0.030007954491178674
343,2873.27,0.03043613566317698
344,2884.0315,0.030178945350817356
345,2886.5299999999997,0.03012078559122528
346,2893.1800000000003,0.030306633438281324
347,2913.2400000000002,0.032368102688197745
348,2926.68,0.031064069284353117
349,2946.97,0.030434525016197794
350,2967.4,0.03062415165008576
351,2987.97,0.030500329186017
352,3008.6800000000003,0.030564417623991535
353,3029.54,0.030566022028441015
354,3050.53,0.03056780227050212
355,3071.68,0.030632663543469833
356,3092.97,0.030508215718480832
357,3107.2499999999995,0.03076286772689591
358,3128.79,0.030071266512698494
359,3150.4700000000003,0.029948316200544355
360,3172.31,0.030198646919296832
361,3186.9500000000003,0.02873491124725179
362,3209.05,0.02951821364122751
363,3231.29,0.028145286937246515
364,3253.69,0.03007764126417213
365,3268.71,0.03116628804053029
366,3291.3599999999997,0.03077972897824749
367,3306.56,0.030332806914375586
368,3311.31121,0.0301958183596627
369,3321.8199999999997,0.029897403336440965
370,3329.48,0.03111530972999294
371,3337.1499999999996,0.030346225544424222
372,3344.85,0.029659069621493436
373,3352.56,0.029293253119441965
374,3360.2799999999997,0.0301046160382698
375,3368.03,0.02991955721973557
376,3375.79,0.02696249782208065
377,3383.58,0.02776009668706366
378,3391.38,0.030119224972925983
379,3399.19,0.030892272679667616
380,3407.0299999999997,0.02919459864904718
381,3414.88,0.029754014039306057
382,3422.76,0.031100287692202862
383,3430.65,0.030392880765978986
384,3438.55,0.030589503260634414
385,3446.48,0.02709683401792777
386,3454.43,0.029960353616979754
387,3462.3900000000003,0.027729832636911048
388,3470.37,0.029038760498600963
389,3478.37,0.026881567202049497
390,3486.39,0.028622582747256656
391,3494.43,0.027973747134222432
392,3502.48,0.029669510942067524
393,3510.56,0.029116933012550545
394,3518.6499999999996,0.028100034503912876
395,3526.7599999999998,0.027752414837033827
396,3534.89,0.029435064011913405
397,3543.04,0.0309028020285516
398,3551.21,0.030517398886948415
399,3559.39,0.029883845166224547
400,3567.6000000000004,0.029326009708138603
401,3575.82,0.026967563670931973
402,3584.0699999999997,0.026029615896363278
403,3592.3300000000004,0.02619513754267389
404,3600.61,0.029966298030743122
405,3606.07,0.02844547183084675
406,3608.8199999999997,0.026986162572657183
407,3611.57,0.02957644331446762
408,3614.31,0.02704580463539874
409,3617.0600000000004,0.028538335377209175
410,3619.8,0.027545206698140298
411,3622.5499999999997,0.032221647439950735
412,3625.3,0.03238149818176117
413,3628.04,0.03099206950269229
414,3630.79,0.027777500244502727
415,3633.5299999999997,0.028285601565433846
416,3636.28,0.025029492307244283
417,3639.0299999999997,0.03170995304905472
418,3641.7699999999995,0.02722494436998584
419,3644.52,0.027364275111796274
420,3647.2700000000004,0.02808947585360671
421,3650.01,0.03039676717453783
422,3652.7599999999998,0.030531787916348266
423,3655.5,0.02883532923727939
424,3658.25,0.027717419979089823
425,3661.0,0.028540030720900257
426,3663.74,0.02935277204183138
427,3666.4900000000002,0.026459082783641813
428,3669.23,0.03005750410457294
429,3671.98,0.030668584846383372
430,3674.73,0.027917195588193805
431,3677.47,0.02728408690912493
432,3680.2200000000003,0.027144567650935366
433,3682.96,0.02856466897186649
434,3685.71,0.030075349713676924
435,3688.46,0.026001310455487356
436,3691.2,0.02957394177641848
437,3693.95,0.029203782518228916
438,3696.69,0.03075997383916004
439,3699.44,0.029345544580970474
440,3702.19,0.028090605322780907
441,3704.9300000000003,0.02679903664371203
442,3707.68,0.028516477385522463
443,3710.4199999999996,0.03155145870645359
444,3713.17,0.03335196944826402
445,3715.9199999999996,0.03234961019007446
446,3718.66,0.03891613151100558
447,3721.41,0.06257705225281601
448,3724.15,0.10056357357374714
449,3726.9,0.13342136431555757
450,3729.65,0.11583225505736801
451,3732.39,0.07597829637829913
452,3735.1400000000003,0.04508975712010956
453,3737.88,0.031147588441040683
454,3740.6299999999997,0.031667949182851124
455,3743.38,0.030207679924661553
456,3746.12,0.02805043124559268
457,3748.8700000000003,0.027974411987403112
458,3751.62,0.028814692729213547
459,3754.36,0.03170690405014467
460,3757.11,0.0323714647919551
461,3759.8500000000004,0.03245412611288623
462,3762.6,0.03234276685469666
463,3765.35,0.0323111475965071
464,3768.09,0.03058746891743822
465,3770.8399999999997,0.032771399659248655
466,3773.5800000000004,0.034547730980179776
467,3776.33,0.03586310172199021
468,3779.0800000000004,0.03730978246380064
469,3781.82,0.03744881378473176
470,3784.5699999999997,0.0369535345265422
471,3787.31,0.03625599584747333
472,3790.06,0.03326106658928376
473,3792.81,0.03160120733109419
474,3795.5499999999997,0.03126749865202532
475,3798.3,0.031268829393835754
476,3801.04,0.030790440714766876
477,3801.8939600000003,0.03149812846570395
478,3803.7900000000004,0.03306998321097345
479,3806.54,0.0367660077243232
480,3809.2799999999997,0.0396380697485335
481,3812.03,0.037609464261883246
482,3814.77,0.037203556286093536
483,3817.52,0.035956130799443285
484,3820.27,0.036188445312793034
485,3823.01,0.03517898733700333
486,3825.76,0.03398885185035307
487,3828.5000000000005,0.031973793874563367
488,3831.25,0.029502088387913114
489,3834.0,0.02997507290126286
490,3836.7400000000002,0.030051884925473154
491,3839.49,0.030434619438822905
492,3842.23,0.03160776146303319
493,3844.98,0.03424089597638295
494,3847.7299999999996,0.037970820489732694
495,3850.47,0.03778457251394299
496,3853.22,0.03828187702729273
497,3855.9700000000003,0.03979816154064248
498,3858.71,0.03846975356485278
499,3861.46,0.04065403807820252
500,3864.2,0.04337952010241281
501,3866.9500000000003,0.04236080461576256
502,3869.7,0.040621069129112314
503,3872.4399999999996,0.0406998311533226
504,3875.19,0.038133085666672346
505,3877.93,0.035944717690882644
506,3880.6800000000003,0.035582072204232394
507,3883.43,0.03393116671758214
508,3886.17,0.035545508741792436
509,3888.92,0.03454018325514218
510,3891.6600000000003,0.033039375279352474
511,3894.41,0.03556220979270222
512,3897.16,0.036036134306051966
513,3899.9,0.03667593633026226
514,3902.6499999999996,0.03771377084361201
515,3905.3900000000003,0.039119942867822305
516,3908.14,0.03974570738117205
517,3910.8900000000003,0.040089741894521795
518,3913.63,0.03965041391873209
519,3916.3799999999997,0.03966355843208184
520,3919.12,0.03807300045629213
521,3921.87,0.037599104969641875
522,3924.62,0.03572997948299163
523,3927.3599999999997,0.032264781507201926
524,3930.11,0.031077536020551667
525,3932.85,0.03059997804476196
526,3935.6000000000004,0.03275038255811171
527,3938.35,0.034404667071461455
528,3941.0899999999997,0.03686798909567175
529,3943.84,0.0368018736090215
530,3946.58,0.038126395633231794
531,3949.33,0.03787883014658154
532,3952.08,0.03894339465993129
533,3954.82,0.03733756668414158
534,3957.57,0.03475507119749133
535,3960.32,0.03134128571084108
536,3963.06,0.028704047735051367
537,3965.81,0.02819626224840112
538,3968.55,0.029260044272611408
539,3971.2999999999997,0.02945703878596116
540,3974.05,0.031204443299310904
541,3976.79,0.033483445323521197
542,3979.54,0.036390659836870946
543,3982.28,0.039351541861081245
544,3985.0299999999997,0.03930499637443099
545,3987.78,0.04040346088778073
546,3990.52,0.04147587291199103
547,3993.27,0.04060374742534078
548,3996.0099999999998,0.041472749449551066
549,3998.76,0.042228383962900816
550,4001.5099999999998,0.042184698476250566
551,4004.2499999999995,0.04134381050046086
552,4007.0,0.0424666350138106
553,4009.74,0.044267697038020894
554,4012.4900000000002,0.04433956155137064
555,4015.24,0.0436550860647204
556,4017.98,0.04421802808893069
557,4020.73,0.04316540260228043
558,4023.4700000000003,0.04211775462649073
559,4026.22,0.04332174913984048
560,4028.9700000000003,0.04162261365319023
561,4031.71,0.041836975677400516
562,4034.4600000000005,0.043411020190750264
563,4037.2000000000003,0.04353658221496056
564,4039.95,0.041541866728310305
565,4042.7000000000003,0.04255296124166005
566,4045.44,0.04230845326587034
567,4048.19,0.04240706777922009
568,4050.93,0.04191330980343039
569,4053.68,0.040543154316780135
570,4056.43,0.04204414883012988
571,4059.1699999999996,0.040037230854340175
