,lambda (Angstroms),Total Flux (erg/s/cm^2/Angstrom)
0,101.98,8.21056419835581
1,104.11,8.184332583148095
2,104.712855,8.176908235549016
3,106.05,8.090407610598442
4,108.02000000000001,7.962967257343848
5,110.03,7.832939282703424
6,113.9,7.582586913619667
7,117.9,7.323824775031965
8,120.22644299999999,7.1733259335383055
9,120.92,7.1357100221834875
10,124.88000000000001,6.92093458344415
11,126.91,6.810835052979683
12,128.09,6.746836311133501
13,131.07,6.585212369861762
14,131.98,6.5358574079320615
15,134.12,6.419791893060274
16,136.93,6.267388109519982
17,138.038426,6.207271271023234
18,140.12,6.126574548920526
19,143.06,6.012599084766486
20,147.06,5.857530426194503
21,150.84,5.71099054375313
22,155.06,5.547393108901856
23,158.489319,5.4144481346448865
24,159.04000000000002,5.398308397409066
25,162.0,5.311554683031209
26,166.15,5.189923630880347
27,170.02,5.076499011300354
28,173.18,4.98388355973359
29,176.80999999999997,4.877493025427126
30,180.10000000000002,4.781067444751988
31,181.970086,4.726257679367749
32,182.18,4.721564058994387
33,185.99999999999997,4.636149890485431
34,191.20999999999998,4.519655697620988
35,193.87,4.460178816607417
36,197.93,4.369398313943231
37,202.07,4.276829033424701
38,204.88,4.213998193832859
39,208.929613,4.12344994247357
40,210.14000000000001,4.103102895389064
41,216.03,4.004089850385457
42,220.04,3.936680290637992
43,223.1,3.885240576612544
44,227.25,3.8154775676783994
45,229.88000000000002,3.7712663414364154
46,234.16,3.699318053374226
47,239.88329199999998,3.6031074953149393
48,240.16,3.5995229635566526
49,245.76000000000002,3.526979382610603
50,252.06,3.4453678861549117
51,256.75,3.3846125983218305
52,259.71999999999997,3.3461386545897036
53,263.94,3.2914719236771073
54,268.84999999999997,3.227866780755735
55,273.85,3.163095760427851
56,275.42287,3.142720482907849
57,278.94,3.107753985135745
58,284.12,3.056255621016343
59,290.07,2.9971020697827635
60,296.15,2.9366561421255355
61,300.96000000000004,2.888836238113653
62,307.97,2.819144484518766
63,316.227766,2.7370477582775283
64,318.06,2.7234424789368483
65,327.72,2.651712020742077
66,337.68,2.5777539117626307
67,347.94,2.5015681596325083
68,356.87000000000006,2.4352583713607157
69,363.078055,2.389160430096106
70,366.02000000000004,2.3728005457736603
71,375.40999999999997,2.3205835920518987
72,385.03999999999996,2.267031967542315
73,394.92,2.2120903291580007
74,405.05,2.1557583983029565
75,413.53000000000003,2.108601960853934
76,416.86938299999997,2.090031954554309
77,422.19,2.0674371611391997
78,430.04,2.034101018586137
79,441.07,1.9872606118640745
80,451.34000000000003,1.9436475795455337
81,459.73,1.908018275192811
82,470.44,1.8625367529625476
83,478.630092,1.827756440665709
84,480.29,1.8223351156350414
85,490.35,1.7894786108539322
86,499.46999999999997,1.7596924224178456
87,506.42,1.7369934699137983
88,512.28,1.7178560696857035
89,519.41,1.6945693937041417
90,530.28,1.6590676571742156
91,540.14,1.6268643014103452
92,549.5408739999999,1.5961618827133095
93,550.18,1.594569592581911
94,560.41,1.569082982429503
95,569.52,1.54638673318382
96,580.11,1.5200017237788934
97,589.53,1.4965340515946528
98,600.49,1.4692278795024154
99,610.25,1.4449122532352403
100,620.16,1.4202253053361829
101,630.24,1.3951129458056575
102,630.957344,1.3933257600360998
103,640.4799999999999,1.374518503759238
104,649.39,1.3569238318105303
105,658.43,1.3390710757245914
106,664.52,1.3270450764281345
107,675.3199999999999,1.3057154050612159
108,684.71,1.2871696990604227
109,694.24,1.2683571671156881
110,705.52,1.2460772326966842
111,715.33,1.2267116039740666
112,724.43596,1.208729861816704
113,725.28,1.2074927405534934
114,735.37,1.1927035782367839
115,745.6,1.1777149542432324
116,754.24,1.1650547380952472
117,764.73,1.1496815120861312
118,775.37,1.1340931157061127
119,784.34,1.1209523560941421
120,795.26,1.1049501966404391
121,804.46,1.0914703480050847
122,815.66,1.0750575180576967
123,825.1,1.061233988284898
124,831.763771,1.0514490147358941
125,834.65,1.048279507119145
126,844.3199999999999,1.0377200428559383
127,854.1,1.0270116078402032
128,865.9799999999999,1.014009995267101
129,876.01,1.0030374918683458
130,884.11,0.9941847277185035
131,894.35,0.9829813915740115
132,904.7099999999999,0.97163463261767
133,915.1800000000001,0.9603189715087999
134,925.78,0.9513220903287596
135,934.34,0.9458589251501608
136,945.1600000000001,0.9409327031650628
137,953.9100000000001,0.937672273759369
138,954.992586,0.9368166943655496
139,964.9499999999999,0.929182957031884
140,973.88,0.8998989965232121
141,985.1600000000001,0.9053874863543635
142,994.28,0.8971439863455071
143,1005.79,0.8955923217290668
144,1015.1,0.8846132392200258
145,1024.49,0.8555766488161705
146,1033.97,0.8552867482806487
147,1045.94,0.8652914707690246
148,1055.6200000000001,0.8550196554964665
149,1065.3899999999999,0.8355504700922423
150,1075.24,0.8329206567932032
151,1085.19,0.813379261125646
152,1095.23,0.8151995653264227
153,1096.4782,0.8137229917286932
154,1105.37,0.8049323500422934
155,1115.6000000000001,0.794855248980492
156,1125.92,0.7818506982905814
157,1133.72,0.7871832971877417
158,1144.21,0.7735738660891793
159,1154.8,0.7682968165149395
160,1165.49,0.7616334084650224
161,1176.27,0.7354237007869954
162,1184.42,0.7446186500192846
163,1195.38,0.7174411630850384
164,1203.67,0.6993540384513794
165,1214.81,0.6791625522609138
166,1226.05,0.6907916375947706
167,1234.55,0.705558367162189
168,1245.97,0.7029674932398264
169,1254.6,0.6931801177888645
170,1258.92541,0.6860402026108171
171,1266.21,0.675851715477908
172,1274.99,0.6886096730853124
173,1283.83,0.6876254909269359
174,1295.7099999999998,0.6642218973023303
175,1304.69,0.6584517790237983
176,1313.7299999999998,0.6700391009794857
177,1325.89,0.6596363251145693
178,1335.08,0.6457196926558046
179,1344.33,0.654179360431259
180,1353.65,0.6465893501466357
181,1366.1799999999998,0.6306578573927377
182,1375.6499999999999,0.6294120526936623
183,1385.18,0.625323378228806
184,1394.78,0.6098502257038722
185,1404.4499999999998,0.6075903051188609
186,1414.1899999999998,0.6034591964737717
187,1423.99,0.6000901380629016
188,1433.8600000000001,0.5941080015919539
189,1440.48,0.5949984207674682
190,1445.43977,0.593246312498104
191,1447.13,0.5929686568651267
192,1453.8100000000002,0.5882384101734599
193,1463.8799999999999,0.5780554083194056
194,1474.03,0.573996659558864
195,1484.25,0.5716143922551464
196,1494.54,0.5692581364082526
197,1504.9,0.5610731420181827
198,1511.8400000000001,0.549480657880433
199,1515.33,0.5535519090849366
200,1525.83,0.5469940076085144
201,1536.41,0.533227489225605
202,1543.4999999999998,0.5378722596381924
203,1554.2,0.5294690508955525
204,1564.97,0.5262709636097366
205,1575.82,0.5269473194174337
206,1586.74,0.5266496866819546
207,1594.07,0.5259750463750806
208,1605.12,0.5199740749165601
209,1616.24,0.5158948149148634
210,1623.6999999999998,0.5086151658849483
211,1634.96,0.5095010087968992
212,1646.29,0.5063784131656741
213,1653.89,0.49674603704940645
214,1659.58691,0.4984199090473582
215,1665.36,0.5008717635327304
216,1673.0400000000002,0.48919702176696683
217,1676.9,0.4983969418169868
218,1684.64,0.5005846528499281
219,1696.3200000000002,0.4916079776644961
220,1704.15,0.486122842895495
221,1715.96,0.4787391937739238
222,1723.88,0.4765099232029801
223,1735.83,0.47889509061172053
224,1743.8400000000001,0.47479215423883425
225,1755.93,0.4776691081778862
226,1764.03,0.46739318600305746
227,1776.26,0.466734456472421
228,1784.46,0.46634279896210057
229,1796.8300000000002,0.4691963959617757
230,1805.1200000000001,0.4664322326495127
231,1813.46,0.4570399416695039
232,1826.03,0.4555686879981956
233,1834.45,0.44977174074979337
234,1842.92,0.44028411583364535
235,1855.7,0.43735280195780446
236,1864.26,0.4377475612397138
237,1872.8700000000001,0.44255721285387734
238,1885.8500000000001,0.43175362830705305
239,1894.5500000000002,0.42606425411927407
240,1903.3,0.4287061922637492
241,1905.46072,0.4276026795098483
242,1916.4900000000002,0.4228714523101027
243,1925.3400000000001,0.41966409342756494
244,1934.22,0.420132078311527
245,1943.1499999999999,0.4230321928063222
246,1956.6200000000001,0.41470021396476464
247,1965.6499999999999,0.421327587681226
248,1974.73,0.4222843610085205
249,1983.8400000000001,0.41522810810231486
250,1993.0,0.4109867748069424
251,2006.81,0.4107523653190501
252,2016.0800000000002,0.40602706916751036
253,2025.3799999999999,0.4083866467824707
254,2034.7299999999998,0.402062014008264
255,2044.1200000000001,0.40396297292272376
256,2053.56,0.39806160144801683
257,2063.04,0.3968106316619763
258,2072.56,0.40152331356460225
259,2077.34,0.3965146703602484
260,2086.93,0.3980651477180409
261,2096.56,0.3908512567644996
262,2106.2400000000002,0.3898053454217915
263,2115.96,0.38899435576775
264,2125.7200000000003,0.38843132780237494
265,2135.54,0.37968090736999965
266,2145.39,0.3805766807041242
267,2155.3,0.3820274615712485
268,2165.24,0.3768071662048727
269,2175.24,0.37410610837149666
270,2185.28,0.371181712226787
271,2187.7616199999998,0.37181400722801594
272,2195.37,0.37430431787596197
273,2205.5,0.37020558391331987
274,2215.68,0.3641757555777131
275,2225.9100000000003,0.3602414828691415
276,2236.1800000000003,0.3655512526621983
277,2246.5,0.3599384180822905
278,2256.87,0.35489959912941793
279,2267.29,0.3554716258035807
280,2272.52,0.3575461403914762
281,2283.01,0.35890602894348844
282,2293.54,0.35212244999712894
283,2304.13,0.3513623398032118
284,2314.77,0.3458249952363301
285,2325.45,0.32611669317107655
286,2336.18,0.3367797067328584
287,2346.97,0.33218474904708256
288,2352.38,0.3387454198923052
289,2363.23,0.3298715209589719
290,2374.14,0.3313134207780809
291,2385.1,0.32329700622422525
292,2396.11,0.32712696729740487
293,2407.17,0.32232429399761986
294,2412.72,0.32357935859854153
295,2423.86,0.327694360302013
296,2435.04,0.32270055450711277
297,2446.28,0.326120607464655
298,2457.58,0.32331521917463957
299,2463.24,0.32202668815503893
300,2474.6099999999997,0.317191451742873
301,2486.0299999999997,0.3174662809577424
302,2497.51,0.31126645892505406
303,2503.2700000000004,0.319884859159524
304,2511.88643,0.31102525175508616
305,2514.8199999999997,0.3081223226253963
306,2520.62,0.30921642647148107
307,2526.4300000000003,0.30542787011730044
308,2532.25,0.3061037535628546
309,2543.94,0.30397723945263583
310,2555.6800000000003,0.30901119434109015
311,2567.4799999999996,0.3053924480279525
312,2573.4,0.31011156947085283
313,2585.2799999999997,0.30788017155559205
314,2597.2099999999996,0.3054417426390045
315,2603.2,0.3016535826800472
316,2615.21,0.29925536216133664
317,2627.28,0.3021617504410337
318,2633.34,0.3051012490802189
319,2645.49,0.31212326575779314
320,2657.7099999999996,0.3135891610335098
321,2663.83,0.3030999084711027
322,2676.13,0.3062094321446963
323,2682.3,0.3061920985809624
324,2694.68,0.2997377006524331
325,2707.12,0.30144941152231153
326,2713.36,0.29559208655672004
327,2725.88,0.29370476582447547
328,2732.1600000000003,0.2980851500578225
329,2744.78,0.2838471273229243
330,2757.4500000000003,0.2847898035866992
331,2763.8,0.28801647641818856
332,2776.56,0.2908932308795752
333,2782.96,0.28431639270973774
334,2795.7999999999997,0.2658043355690014
335,2802.25,0.27034540639783705
336,2815.18,0.2859595174547123
337,2828.1800000000003,0.2899200371097299
338,2834.7,0.28593360653670813
339,2847.7799999999997,0.28151137458960285
340,2854.35,0.27666447301525404
341,2867.52,0.2853421292657604
342,2874.1299999999997,0.2855118668903502
343,2884.0315,0.2840090506838779
344,2887.4,0.28360962782167387
345,2894.06,0.28328643135510956
346,2907.4100000000003,0.29126204384330273
347,2927.5699999999997,0.2855555869715406
348,2947.86,0.28239475359217275
349,2968.29,0.2829028455123066
350,2988.8700000000003,0.28193386453904934
351,3009.5899999999997,0.2819667088652938
352,3030.4500000000003,0.2807321784910398
353,3051.45,0.2794871734162876
354,3072.61,0.27874939725525144
355,3086.79,0.2785965597333473
356,3108.18,0.27759102513577816
357,3129.73,0.2744957194519252
358,3151.4199999999996,0.27345923906757397
359,3173.2700000000004,0.2726729875969388
360,3187.92,0.2660801350090759
361,3210.0099999999998,0.2685599269090151
362,3232.27,0.2616371495297776
363,3247.1800000000003,0.2683432439267035
364,3269.69,0.2713378117251476
365,3292.3599999999997,0.2688818084373079
366,3307.55,0.26733695343323705
367,3311.31121,0.26708961987281915
368,3322.82,0.2666007594968268
369,3330.48,0.26891788317013343
370,3338.16,0.26295597609585075
371,3345.8500000000004,0.2665908036477733
372,3353.57,0.2609523350783121
373,3361.2999999999997,0.26263350113505624
374,3369.05,0.261354836444211
375,3376.81,0.25410450637957116
376,3384.6,0.25671208019354746
377,3392.3999999999996,0.2651665886337291
378,3400.22,0.27014036632632143
379,3408.06,0.2606218132713245
380,3415.91,0.26206709484253293
381,3423.79,0.26871088029235746
382,3431.68,0.2673555003683873
383,3439.59,0.26600518969682785
384,3447.52,0.2531761482776792
385,3455.47,0.2588438761109413
386,3463.4300000000003,0.2517001385704087
387,3471.42,0.25953910490849214
388,3479.4199999999996,0.24996270587278102
389,3487.44,0.25582157608948053
390,3495.4800000000005,0.2545194155585908
391,3503.54,0.25983442428011183
392,3511.62,0.2570995022540436
393,3519.7099999999996,0.25717011485418073
394,3527.8199999999997,0.2501636967067285
395,3535.96,0.25729968243789236
396,3544.1099999999997,0.26168590279526166
397,3552.2799999999997,0.2626546924050417
398,3560.47,0.2601079512672324
399,3568.6800000000003,0.2509015793818338
400,3576.9,0.24693734212264057
401,3585.1499999999996,0.24105480874206348
402,3593.4100000000003,0.24620560998769164
403,3601.7,0.258179915111936
404,3609.33,0.18065535490662643
405,3612.07,0.2157704524868954
406,3614.8,0.21999792544095897
407,3617.5299999999997,0.2523414283950226
408,3620.27,0.2358193159752915
409,3623.0,0.25737196892935504
410,3625.7400000000002,0.258258256509624
411,3628.47,0.25817360946368756
412,3631.2100000000005,0.23773519704395643
413,3633.94,0.24627484999802002
414,3636.67,0.2732160029520836
415,3639.4100000000003,0.26776249053235246
416,3642.14,0.2690041434864161
417,3644.8799999999997,0.265953231066685
418,3647.61,0.2539111840207486
419,3650.35,0.24281227160101754
420,3653.0800000000004,0.27273232455508106
421,3655.81,0.2835427775091447
422,3658.5499999999997,0.2661872650894136
423,3661.28,0.2664499180434771
424,3664.02,0.25652450562374607
425,3666.7499999999995,0.22165079857780967
426,3669.48,0.2612229115318732
427,3672.22,0.27222649911214214
428,3674.9500000000003,0.2491158520662057
429,3677.69,0.26395243964647463
430,3680.4199999999996,0.25309089260053824
431,3683.16,0.25894208018080717
432,3685.89,0.27267583313487076
433,3688.6200000000003,0.25523838608893423
434,3691.36,0.2608395736692032
435,3694.0899999999997,0.24997102662326678
436,3696.83,0.25679441420353566
437,3699.56,0.23302406715759927
438,3702.3,0.2580265547378682
439,3705.03,0.25296320769193176
440,3707.7599999999998,0.2620514606459954
441,3710.5,0.25793814822626426
442,3713.23,0.25293030118032783
443,3715.9700000000003,0.24942798876059674
444,3718.7,0.2547735417146603
445,3721.4399999999996,0.3051004292949293
446,3724.17,0.3926204822489928
447,3726.9,0.4669891352030564
448,3729.6400000000003,0.4418142227833253
449,3732.37,0.4056215757373889
450,3735.1099999999997,0.28298206331765785
451,3737.84,0.2581633162717214
452,3740.58,0.26666010385199035
453,3743.3100000000004,0.27216535680605386
454,3746.04,0.25307520976011744
455,3748.7799999999997,0.2523157973403864
456,3751.51,0.26580655029444994
457,3754.25,0.2610890378747189
458,3756.9799999999996,0.2569422908287825
459,3759.72,0.2809725784090514
460,3762.45,0.27490933136311496
461,3765.1800000000003,0.2593050843171785
462,3767.92,0.26951697189744744
463,3770.6499999999996,0.28041082485151103
464,3773.39,0.27825551243178
465,3776.12,0.29131586538584353
466,3778.86,0.30322885296611246
467,3781.59,0.306227505920176
468,3784.3199999999997,0.30869835887423963
469,3787.06,0.3085081464545085
470,3789.79,0.2977508994085721
471,3792.53,0.282617386988841
472,3795.2599999999998,0.2637634399429046
473,3798.0000000000005,0.25999032752317347
474,3800.73,0.2803694804772371
475,3801.8939600000003,0.2779589973213433
476,3803.46,0.2747415126101696
477,3806.2000000000003,0.2915465294068704
478,3808.93,0.33134404760212344
479,3811.6699999999996,0.3225674643988242
480,3814.4,0.3184099825940772
481,3817.13,0.2952331007893302
482,3819.8700000000003,0.293178217586031
483,3822.6,0.297353535781284
484,3825.3399999999997,0.2934932525779848
485,3828.07,0.28015587077323784
486,3830.81,0.25970668756993864
487,3833.5399999999995,0.25688930576519164
488,3836.27,0.24551692396044464
489,3839.0099999999998,0.26335664075714543
490,3841.7400000000002,0.2906550589523984
491,3844.48,0.30589757574909926
492,3847.2099999999996,0.29826119394435224
493,3849.95,0.309962210741053
494,3852.68,0.30723522893630606
495,3855.4100000000003,0.300800147131559
496,3858.15,0.30875846392825984
497,3860.8799999999997,0.30375378212351284
498,3863.62,0.31737139892021365
499,3866.35,0.32425481711546666
500,3869.09,0.33935823391216746
501,3871.82,0.31186925210742045
502,3874.5499999999997,0.29009507030267345
503,3877.29,0.2888387870993743
504,3880.02,0.27815400529462725
505,3882.76,0.30053492209132804
506,3885.49,0.288732140286581
507,3888.2299999999996,0.2819277570832819
508,3890.96,0.3038237752785348
509,3893.69,0.3028049934737878
510,3896.4300000000003,0.30134731027048867
511,3899.16,0.30424482846574163
512,3901.8999999999996,0.3182651452624425
513,3904.63,0.3096080634576954
514,3907.37,0.32185768025439626
515,3910.1000000000004,0.3266300984496492
516,3912.83,0.31445931664490223
517,3915.5699999999997,0.3070854334416031
518,3918.3,0.32058635163685606
519,3921.04,0.31461516843355686
520,3923.77,0.3174779866288099
521,3926.5099999999998,0.29686210342551067
522,3929.24,0.26394282162076366
523,3931.9700000000003,0.2602088398160166
524,3934.71,0.24773135661271747
525,3937.44,0.2699259748079705
526,3940.18,0.29602879160467127
527,3942.91,0.2983777097999243
528,3945.65,0.29162882659662503
529,3948.38,0.31343464479187805
530,3951.1099999999997,0.31357546298713107
531,3953.85,0.29897297978383186
532,3956.58,0.3008913979790849
533,3959.32,0.30024621477578567
534,3962.0499999999997,0.28186753297103867
535,3964.7799999999997,0.2565587511662917
536,3967.52,0.25536516796299247
537,3970.25,0.2643940861582455
538,3972.9900000000002,0.26284630295494626
539,3975.72,0.2937139211501993
540,3978.4599999999996,0.3209971379469001
541,3981.19,0.3054030561421531
542,3983.92,0.32095937433740607
543,3986.6600000000003,0.3215778911341069
544,3989.39,0.3352872093293599
545,3992.1299999999997,0.3434120261260607
546,3994.86,0.3250057443213137
547,3997.6,0.3345679611180145
548,4000.3300000000004,0.3426665793132675
549,4003.06,0.3353218975085205
550,4005.7999999999997,0.3436829143052213
551,4008.53,0.35161483250047426
552,4011.27,0.3492612492971751
553,4014.0,0.3583876674924281
554,4016.74,0.3622280842891289
555,4019.47,0.3599872024843819
556,4022.2000000000003,0.3668152206796349
557,4024.94,0.34625463747633567
558,4027.67,0.3415972556715887
559,4030.41,0.34715977246828955
560,4033.14,0.3284270906635425
561,4035.88,0.3439750074602433
562,4038.61,0.35592052565549626
563,4041.34,0.3609916438507492
564,4044.08,0.3517566606474501
565,4046.81,0.3472034788427031
566,4049.55,0.3386559956394039
567,4052.2799999999997,0.3372484138346569
568,4055.0199999999995,0.33895703063135774
569,4057.75,0.3356884488266107
570,4060.48,0.3451758670218637
571,4063.2200000000003,0.3368227838185645
572,4065.95,0.3484211020138175
573,4068.6899999999996,0.3449982188105183
574,4071.42,0.3331122370057713
575,4074.15,0.3239274552010243
576,4076.8900000000003,0.3278303719977251
577,4079.62,0.3238881901929781
578,4082.3599999999997,0.33424210698967893
579,4085.09,0.3331191251849319
580,4087.83,0.3239120419816327
581,4090.56,0.3322397601768857
582,4093.29,0.33188757837213867
583,4096.03,0.32210409516883953
584,4098.76,0.31839111336409254
585,4101.5,0.3180235301607933
586,4104.23,0.31674784835604636
