,lambda (Angstroms),Total Flux (erg/s/cm^2/Angstrom)
0,102.01,14.16935414073696
1,103.91,14.12898484791712
2,104.712855,14.111932093419224
3,106.08,13.959319998535639
4,108.06,13.738303496891433
5,110.06,13.515176992673046
6,113.93,13.083198223468468
7,117.94000000000001,12.6355654193446
8,120.22644299999999,12.381016129138864
9,120.96000000000001,12.312584089614013
10,124.92,11.942105007555787
11,126.95,11.7521792744123
12,128.13,11.641784711713134
13,131.10999999999999,11.36297383989659
14,132.02,11.277983283315027
15,133.86,11.105839063106151
16,136.98,10.81408762996937
17,138.038426,10.715074501699105
18,139.84,10.594636914908097
19,143.1,10.37795671298235
20,147.11,10.111586973944846
21,150.88,9.859752552503107
22,155.11,9.577199394752824
23,158.489319,9.351533048691412
24,159.09,9.321225458608454
25,162.05,9.171877609567172
26,165.82,8.98171073329162
27,170.07999999999998,8.766712207948425
28,172.84,8.627504649261285
29,176.87,8.42416676272535
30,180.15,8.258628229517443
31,181.82,8.174441101960369
32,181.970086,8.166867856957813
33,186.06,8.009541173751423
34,190.82999999999998,7.826094742556837
35,193.93,7.70690303528153
36,197.99,7.5507700057532245
37,202.14,7.391154896013702
38,204.95,7.283119189418988
39,208.929613,7.129741445052634
40,210.21,7.0926564695931935
41,216.1,6.922958692378636
42,220.10999999999999,6.8071818898098115
43,223.17,6.718694249694948
44,226.79999999999998,6.613970972107707
45,229.95999999999998,6.5302409006819016
46,234.23,6.421582814704624
47,239.88329199999998,6.268476467619968
48,240.24,6.261189701279944
49,245.84,6.133698429789437
50,252.14000000000001,5.995036748112613
51,256.83,5.879907856864313
52,259.8,5.821948811788096
53,264.02,5.730033807807748
54,268.93,5.61991183507232
55,273.93,5.507662789455794
56,275.42287,5.474016380037561
57,279.03000000000003,5.4114713783944675
58,284.21,5.322599793060001
59,290.17,5.217775470397176
60,296.24,5.113631330034199
61,301.05,5.028161691509334
62,308.07,4.90833098555413
63,316.227766,4.768785406108392
64,318.15999999999997,4.744123593524239
65,327.83,4.619170054033016
66,337.79,4.490031387142366
67,348.05,4.357097904321277
68,356.98,4.2420003861251425
69,363.078055,4.163791988999215
70,366.14,4.134375113289674
71,374.67,4.051314178443113
72,385.16,3.948013779118327
73,395.03999999999996,3.853622499401561
74,405.18,3.7557974083764574
75,413.66,3.6733341718584227
76,416.86938299999997,3.6420861438028287
77,422.32,3.601379115894823
78,430.17,3.5426795151167703
79,441.21,3.4611618619843236
80,451.49,3.3847867079080958
81,459.88,3.3220156430637817
82,469.51,3.250476775548794
83,478.630092,3.183135625953627
84,480.45,3.1727775574020307
85,490.51,3.114653699027283
86,499.63,3.0629980690891423
87,506.58000000000004,3.0230249459674234
88,512.4399999999999,2.991489904011557
89,519.57,2.9504200616147425
90,530.45,2.8878833209867856
91,540.3100000000001,2.8306486529176986
92,549.5408739999999,2.777820670677571
93,550.36,2.7742277767051995
94,560.59,2.730670981984188
95,569.7,2.691229526040062
96,580.29,2.6448516495693375
97,589.7199999999999,2.6037925954032435
98,600.6800000000001,2.5553905388008684
99,610.44,2.5111331080308714
100,620.36,2.470392583149891
101,630.44,2.426180594157926
102,630.957344,2.4239516030742934
103,640.69,2.390691724000823
104,649.6,2.3596208530447185
105,658.6400000000001,2.3280499164293214
106,664.73,2.3074148036209405
107,675.53,2.2703142573105106
108,684.93,2.237165883484766
109,694.4599999999999,2.2048352439997294
110,705.74,2.1651947414088353
111,715.56,2.1321578308376847
112,724.43596,2.101577279579116
113,725.51,2.0988203409709416
114,735.61,2.0729445985516954
115,745.84,2.0465392772696283
116,754.48,2.0242751090020756
117,764.9699999999999,1.996434989994364
118,775.61,1.9701321176833961
119,784.59,1.9467627939284629
120,795.51,1.919072519451417
121,804.72,1.895589934631491
122,815.92,1.8669879179883675
123,825.36,1.8428733821034484
124,831.763771,1.8259261822736834
125,834.92,1.8195900676450727
126,844.59,1.8018028029222675
127,854.37,1.7829869177734536
128,864.26,1.7641511721986305
129,874.2700000000001,1.744987913431797
130,884.39,1.7255968142389548
131,894.63,1.7060329418541023
132,904.99,1.68615030627724
133,915.47,1.6662587875083676
134,923.94,1.6566481047056625
135,934.6400000000001,1.642746425084772
136,945.46,1.6279036822718713
137,954.21,1.6139702920211432
138,954.992586,1.6126374852841
139,965.26,1.5955707114734154
140,974.19,1.564819209784931
141,985.4699999999999,1.5541452829152667
142,994.59,1.535759340765325
143,1006.11,1.5176149322601356
144,1015.42,1.5002453096487371
145,1024.81,1.47279945315883
146,1034.3,1.462023994320788
147,1043.87,1.4500318116042374
148,1055.95,1.4264772059494901
149,1065.72,1.405114338536669
150,1075.59,1.3882739987757127
151,1085.54,1.3653717151362479
152,1095.58,1.3510767033834612
153,1096.4782,1.3492893736000837
154,1105.72,1.3339986739579037
155,1115.95,1.317914735328349
156,1126.28,1.2998033129976254
157,1134.08,1.2904470843064695
158,1144.5800000000002,1.273279935683759
159,1155.1699999999998,1.2570524937299974
160,1165.86,1.2404927780750665
161,1173.94,1.222730139020638
162,1184.8,1.2105634370737208
163,1195.76,1.1913004414256347
164,1204.05,1.1760931645987522
165,1215.19,1.1538771322885624
166,1223.62,1.1480412602800438
167,1234.94,1.1331514113077503
168,1246.36,1.1161221786342885
169,1255.0,1.1024379688533157
170,1258.92541,1.096113076640236
171,1263.7,1.09049683695515
172,1275.3999999999999,1.0790195643622558
173,1284.24,1.0693638495142912
174,1296.1200000000001,1.054136718881506
175,1305.1,1.044389847780293
176,1314.15,1.036163683552456
177,1326.31,1.0221181904131744
178,1335.5,1.010893399932089
179,1344.7600000000002,1.001993496324379
180,1354.08,0.9914411900367064
181,1363.47,0.980086680622409
182,1376.0800000000002,0.9663332673834004
183,1385.62,0.9558503312691944
184,1395.23,0.942440022028364
185,1404.9,0.93169868010757
186,1414.64,0.9232988450601519
187,1424.4399999999998,0.9121802173327707
188,1434.32,0.9017539560321041
189,1440.94,0.894685980342791
190,1445.43977,0.8897431981549403
191,1447.59,0.8880825939151407
192,1454.27,0.8826010492694109
193,1464.3500000000001,0.8742971892650763
194,1474.5,0.8664923273857118
195,1484.72,0.8587505036313171
196,1495.01,0.8507297180018922
197,1505.38,0.8422900116581471
198,1512.3300000000002,0.8360769183515872
199,1515.81,0.8337595822786623
200,1526.32,0.825733342184857
201,1533.36,0.819030809324687
202,1543.99,0.8103550231594017
203,1554.69,0.8020556851190862
204,1565.47,0.7945788663644506
205,1576.32,0.7868309157347851
206,1583.6,0.7813731307316547
207,1594.58,0.7730953951912188
208,1605.63,0.7643629577757527
209,1616.7599999999998,0.755761419645967
210,1624.22,0.7498708755356159
211,1635.48,0.7416486224950599
212,1646.82,0.7329499287401835
213,1654.42,0.7269571008797724
214,1659.58691,0.723194377651893
215,1665.88,0.7200329851490113
216,1673.5700000000002,0.7151946494077658
217,1677.43,0.7145103064089093
218,1685.18,0.7103568901547282
219,1696.8600000000001,0.703615180303266
220,1704.69,0.6993049433651708
221,1716.5,0.693011372402348
222,1724.43,0.6889115146093603
223,1736.3799999999999,0.6833230524496876
224,1744.4,0.6788434938872964
225,1756.49,0.6733045605307743
226,1764.5900000000001,0.6678827312844687
227,1776.8300000000002,0.6618415866456075
228,1785.03,0.6579478165444097
229,1793.2699999999998,0.6549550961012547
230,1805.7,0.6481855098380973
231,1814.0300000000002,0.6431830586255388
232,1826.61,0.6367055810800426
233,1835.04,0.6320239990125915
234,1843.5099999999998,0.6255488966031835
235,1856.29,0.6202902073479019
236,1864.8500000000001,0.6174063341690901
237,1873.46,0.6128600705628324
238,1886.45,0.6056177095122762
239,1895.1599999999999,0.6019408150511257
240,1903.9,0.5972530203335074
241,1905.46072,0.5964812628748449
242,1917.1,0.5923677885745622
243,1925.9499999999998,0.587412666408714
244,1934.84,0.5810291668997435
245,1943.77,0.5830500900476505
246,1957.24,0.5777977647511563
247,1966.28,0.5768031052054764
248,1975.35,0.5721485376524548
249,1984.47,0.56958448342053
250,1993.63,0.5663111218454826
251,2002.83,0.561773592927313
252,2016.7199999999998,0.5571058655280329
253,2026.03,0.5510232139162762
254,2035.3799999999999,0.5510415949613972
255,2044.77,0.5494035786633956
256,2054.21,0.544531475686491
257,2063.69,0.540182775366464
258,2073.2200000000003,0.5398495983675337
259,2078.0,0.5473309058643977
260,2082.79,0.5493870040254811
261,2097.23,0.5410658631582668
262,2106.9,0.535462545458408
263,2116.63,0.5354430317438654
264,2126.4,0.5277665106862004
265,2136.2200000000003,0.5218589729496321
266,2146.08,0.5252443078699417
267,2155.98,0.5212400554471285
268,2165.9300000000003,0.5128491863454123
269,2175.9300000000003,0.5095928905647931
270,2185.9700000000003,0.5124136474410512
271,2187.7616199999998,0.5119378436322491
272,2196.06,0.510772604848803
273,2206.2000000000003,0.5062487220776926
274,2216.38,0.4959365281319428
275,2226.61,0.49724882521789354
276,2236.89,0.5047257833355451
277,2247.2200000000003,0.499438222484897
278,2257.5899999999997,0.4872027504596097
279,2262.79,0.4842331377564761
280,2273.24,0.48430339338190975
281,2283.73,0.4912019178327037
282,2294.27,0.4814665933151985
283,2304.86,0.4860236698293938
284,2315.5,0.47782534737528987
285,2326.19,0.4672462059528865
286,2336.9300000000003,0.46092618556218373
287,2342.31,0.45084249257317266
288,2353.13,0.46496729983319085
289,2363.99,0.44695561591856975
290,2374.9,0.45111330303564917
291,2385.86,0.43623938118442934
292,2396.87,0.4378097303649101
293,2402.4,0.4363543904710008
294,2413.4900000000002,0.43735946730220243
295,2424.63,0.4516095751651049
296,2435.8199999999997,0.44816574405970805
297,2447.06,0.4529341439860117
298,2452.7,0.4535291883618438
299,2464.02,0.44546444593886847
300,2475.4,0.4361919067539338
301,2486.8199999999997,0.41970293639435996
302,2492.56,0.42262428283359327
303,2504.0600000000004,0.4362655301247402
304,2511.88643,0.41655100381293686
305,2515.62,0.4073954074872419
306,2527.2299999999996,0.40194807209542116
307,2533.06,0.41216433320357654
308,2544.75,0.41206072398476645
309,2556.5,0.4309013418957144
310,2562.39,0.41730110013362787
311,2574.22,0.42534844421758655
312,2586.1,0.4174544359096769
313,2592.06,0.41171506079897474
314,2604.0200000000004,0.4034418686640757
315,2616.04,0.39721081365893485
316,2622.07,0.40839244519961704
317,2634.18,0.43324117588911326
318,2646.3399999999997,0.4560673341867411
319,2652.4399999999996,0.48558934237880774
320,2664.68,0.4425645868494462
321,2676.98,0.4512253784498428
322,2683.15,0.4630572232932937
323,2695.54,0.43195206058832736
324,2707.98,0.4465490254914926
325,2714.22,0.419219276986328
326,2726.75,0.40570446758413037
327,2733.03,0.418855857165471
328,2745.65,0.3829540734579104
329,2751.98,0.3974030206473828
330,2764.68,0.412521693112833
331,2777.44,0.4159058227080411
332,2783.84,0.38160436654889784
333,2796.69,0.35004606183874304
334,2803.14,0.3534338632877315
335,2816.0800000000004,0.3990260942722137
336,2822.5699999999997,0.4294595538077076
337,2835.6,0.42059392048682687
338,2842.1400000000003,0.3956551976304522
339,2855.26,0.36194418000420864
340,2861.84,0.4157520652343395
341,2875.05,0.4400058433027329
342,2884.0315,0.4311402264453248
343,2888.3199999999997,0.4271527775786629
344,2894.9799999999996,0.44576045838905753
345,2908.3399999999997,0.48740630998468404
346,2928.5,0.46373865730263536
347,2948.7999999999997,0.450671819532517
348,2969.2400000000002,0.45346159667432867
349,2989.82,0.45322718872807066
350,3010.55,0.45193291818745224
351,3031.41,0.45689444006505475
352,3052.42,0.46263289934829666
353,3066.51,0.4707006929847022
354,3087.7700000000004,0.4637834146106767
355,3109.17,0.48225165114858143
356,3130.73,0.465699447585835
357,3152.43,0.46030545893501873
358,3166.98,0.47625388728205215
359,3188.93,0.4498370609739684
360,3211.03,0.46500797207152417
361,3233.29,0.43481124306842883
362,3248.22,0.4914828261764157
363,3270.73,0.5229100595160527
364,3293.4,0.5145853527550388
365,3308.61,0.49841596568688606
366,3311.31121,0.49476610345270366
367,3323.88,0.478288221056594
368,3331.54,0.4956894260724998
369,3339.22,0.4640077796654707
370,3346.92,0.5053432818355065
371,3354.63,0.4821389082940749
372,3362.37,0.44460450761824083
373,3370.12,0.4639744312309393
374,3377.89,0.45821210342070273
375,3385.67,0.46520099989899866
376,3393.48,0.4959270692428922
377,3401.2999999999997,0.5292663628753183
378,3409.14,0.48404220508480933
379,3417.0,0.4606685958713654
380,3424.88,0.5194261352349865
381,3432.77,0.5288392988871402
382,3440.69,0.5021929354048913
383,3448.62,0.44932249621117504
384,3456.5699999999997,0.48811060559452374
385,3464.54,0.4548161635549375
386,3472.52,0.5094676458038838
387,3480.53,0.4495855009184275
388,3488.55,0.48386518032150383
389,3496.59,0.4681127083016452
390,3504.65,0.5132710848588515
391,3512.73,0.49563390999312296
392,3520.83,0.5178210837044595
393,3528.9500000000003,0.4314649059928608
394,3537.0800000000004,0.5088391525697948
395,3545.2299999999996,0.5188839477237939
396,3553.4100000000003,0.5252731157433903
397,3561.6,0.5009398080515195
398,3569.81,0.44197764893671354
399,3578.04,0.46203373839897266
400,3586.29,0.4166489764382968
401,3594.55,0.4779488387661534
402,3602.84,0.5346335739596075
403,3611.15,0.4664288577301268
404,3619.4700000000003,0.5017291657891786
405,3627.8100000000004,0.5184857224252953
406,3636.18,0.45274295192700964
407,3644.56,0.5419038057172565
408,3652.96,0.47525410808456836
409,3661.38,0.5706504590289452
410,3669.8199999999997,0.5455367585503872
411,3678.2799999999997,0.5498037066488941
412,3686.76,0.524598703324466
413,3695.26,0.553107148577103
414,3703.7799999999997,0.573570142406805
415,3712.32,0.4718987848135721
416,3712.74,0.47387870493193773
417,3715.4700000000003,0.483576935701314
418,3718.2,0.4662216664706904
419,3720.9199999999996,0.43271967295153424
420,3723.65,0.4535846037209106
421,3726.38,0.5064964344902869
422,3729.11,0.4833938652596632
423,3731.84,0.4879676960290396
424,3734.5699999999997,0.46389282679841604
425,3737.3,0.4338958575677923
426,3740.0299999999997,0.46263858833716875
427,3742.7500000000005,0.4815609948180125
428,3745.48,0.4258872255873889
429,3748.21,0.42748905635676526
430,3750.94,0.45060488712614155
431,3753.67,0.4549602178955179
432,3756.3999999999996,0.48010814866489426
433,3759.13,0.49735647943427064
434,3761.86,0.45855291020364697
435,3764.5899999999997,0.4548774409730234
436,3767.31,0.4707404474538672
437,3770.04,0.4751721782232435
438,3772.7699999999995,0.48877120899261994
439,3775.5,0.5090351397619962
440,3778.23,0.5726545705313726
441,3780.96,0.592601701300749
442,3783.69,0.5962357320701253
443,3786.4199999999996,0.4888042628395017
444,3789.15,0.508740393608878
445,3791.87,0.48195820008972184
446,3794.6000000000004,0.47874153085909815
447,3797.33,0.45294026162847456
448,3800.06,0.4171195923978509
449,3801.8939600000003,0.49586824319559797
450,3802.79,0.5343687797902195
451,3805.52,0.5354032655713905
452,3808.2500000000005,0.5198734513525616
453,3810.98,0.5397775371337328
454,3813.7,0.46679951564098027
455,3816.4300000000003,0.4563068014221513
456,3819.16,0.4541179872033225
457,3821.89,0.47650247298449366
458,3824.6200000000003,0.4604481587656648
459,3827.35,0.45223904454683594
460,3830.08,0.4467505303280071
461,3832.81,0.3514043161091782
462,3835.54,0.3483852018903494
463,3838.26,0.3873354803975968
464,3840.9900000000002,0.4137518661787679
465,3843.72,0.46652245195993913
466,3846.4500000000003,0.4339367377411102
467,3849.18,0.47859982352228136
468,3851.91,0.5038251093034525
469,3854.64,0.5144200950846237
470,3857.37,0.49194118086579475
471,3860.0899999999997,0.46427435937304223
472,3862.82,0.47248744515421337
473,3865.5499999999997,0.4777285309353845
474,3868.28,0.5033144167165556
475,3871.0099999999998,0.4602066024977268
476,3873.74,0.45781018827889797
477,3876.4700000000003,0.5290897740600691
478,3879.2,0.5141390598412402
479,3881.9300000000003,0.5157744456224114
480,3884.65,0.49276242412965876
481,3887.3799999999997,0.46952950991083
482,3890.11,0.4663463956920011
483,3892.84,0.5102337814731721
484,3895.5699999999997,0.5360490672543434
485,3898.3,0.5440654530355145
486,3901.0299999999997,0.5541359388166857
487,3903.76,0.5537062245978568
488,3906.4900000000002,0.5869075103790279
489,3909.21,0.5680586888862753
490,3911.94,0.5784242746674464
491,3914.67,0.5729793604486176
492,3917.3999999999996,0.5689876462297888
493,3920.13,0.5631822320109598
494,3922.86,0.544155917792131
495,3925.5899999999997,0.5089697035733022
496,3928.32,0.4517671893544733
497,3931.04,0.41291166786172073
498,3933.77,0.3424443536428919
499,3936.5,0.345937339424063
500,3939.23,0.41593872520523417
501,3941.96,0.45302991098640527
502,3944.69,0.47301059676757645
503,3947.4199999999996,0.5220878825487476
504,3950.15,0.5421669683299187
505,3952.8799999999997,0.5712272541110899
506,3955.6000000000004,0.5961928326183372
507,3958.33,0.5569747183995084
508,3961.06,0.4874579041806796
509,3963.79,0.41778838996185075
510,3966.52,0.39276367574302185
511,3969.2499999999995,0.355512461524193
512,3971.98,0.40206584730536415
513,3974.71,0.47405563308653526
514,3977.44,0.5156374188677064
515,3980.16,0.5630891973749539
516,3982.89,0.6126254831561251
517,3985.6200000000003,0.6523825689372962
518,3988.35,0.6700030547184673
519,3991.0800000000004,0.6668964404996384
520,3993.81,0.6474986262808096
521,3996.54,0.6917355120619807
522,3999.27,0.6691471978431519
523,4001.9900000000002,0.6824767763503993
524,4004.72,0.7085105621315704
525,4007.4500000000003,0.6563993479127416
526,4010.18,0.6863446336939127
527,4012.9100000000003,0.6923614194750838
528,4015.64,0.691483605256255
529,4018.37,0.7169162910374262
530,4021.1000000000004,0.7288768768185973
531,4023.83,0.7210063625997685
532,4026.5499999999997,0.7200772411070159
533,4029.28,0.737162326888187
534,4032.0099999999998,0.7039646126693581
535,4034.74,0.6852659984505293
536,4037.4700000000003,0.7104692842317004
537,4040.2,0.7207800700128715
538,4042.9300000000003,0.6809828557940427
539,4045.66,0.6728938415752138
540,4048.3799999999997,0.6675284200824613
541,4051.11,0.6976814058636325
542,4053.84,0.6874178916448035
543,4056.5699999999997,0.6556186774259747
544,4059.3,0.6679945632071458
545,4062.0299999999997,0.662462248988317
546,4064.76,0.684485934769488
547,4067.4900000000002,0.6691418205506592
548,4070.22,0.6892971063318304
549,4072.94,0.6988571848390778
550,4075.67,0.697946570620249
551,4078.3999999999996,0.6791934564014201
552,4081.13,0.6702739421825912
553,4083.86,0.6864957279637623
554,4086.59,0.6941187137449335
555,4089.32,0.7299531995261046
556,4092.0499999999997,0.7086542853072758
557,4094.77,0.6746511638145233
558,4097.5,0.6615905495956944
559,4100.2300000000005,0.6612591353768655
560,4102.96,0.6337540211580367
561,4105.6900000000005,0.6380116069392078
562,4108.42,0.6745236927203789
563,4111.15,0.6887351785015501
564,4113.88,0.6951014642827212
565,4116.61,0.7299417500638923
566,4119.33,0.7114430285711397
567,4122.06,0.6843640143523109
568,4124.79,0.690457300133482
569,4127.52,0.6986264859146532
570,4130.25,0.6916081716958244
571,4132.98,0.7069559574769956
572,4135.71,0.6766755432581666
573,4138.44,0.6748253290393378
574,4141.17,0.6980619148205089
575,4143.89,0.6690847933277563
576,4146.62,0.6730145791089275
577,4149.35,0.6909301648900986
578,4152.08,0.6814861506712697
579,4154.8099999999995,0.6556527364524409
580,4157.54,0.682593322233612
581,4160.2699999999995,0.7070645080147833
582,4163.0,0.7333057937959544
583,4165.72,0.7530273723032018
584,4168.45,0.700774058084373
585,4171.18,0.673935543865544
586,4173.91,0.6950961296467152
587,4176.639999999999,0.6727263154278864
588,4179.37,0.6732799012090575
589,4182.1,0.6682720869902286
590,4184.83,0.6659301727713998
591,4187.56,0.7130515585525709
592,4190.28,0.6953396370598184
593,4193.01,0.6848904228409896
594,4195.74,0.6997682086221606
595,4198.47,0.6728531944033318
596,4201.2,0.6604700801845029
597,4203.93,0.680592665965674
598,4206.66,0.7043973517468451
599,4209.39,0.7177784375280163
600,4212.11,0.6867691160352638
601,4214.84,0.6901745018164349
