,lambda (Angstroms),Total Flux (erg/s/cm^2/Angstrom)
0,100.1,3.0799302527810637
1,101.97,3.071315736309265
2,104.10000000000001,3.0615034730931794
3,104.712855,3.058680238836819
4,106.04,3.026565541960623
5,108.01,2.9788948334877814
6,110.02,2.930256230635442
7,113.88000000000001,2.8368507100557525
8,117.88,2.7400574317913717
9,120.22644299999999,2.6832782325264954
10,120.91,2.669410628246699
11,124.87,2.5890714333865947
12,126.9,2.547887419719256
13,128.07,2.5241508485562476
14,131.06,2.4634906642820047
15,131.96,2.4452320903938447
16,134.10999999999999,2.401613570508018
17,136.92,2.3446057208910074
18,138.038426,2.321915485626376
19,140.10999999999999,2.2918750822282643
20,143.04000000000002,2.249392313986765
21,147.04999999999998,2.1912556323369805
22,151.17000000000002,2.131512279276777
23,155.04,2.0753948196302514
24,158.489319,2.025377886282412
25,159.01999999999998,2.0195603190584945
26,161.98000000000002,1.9871113697641711
27,166.13,1.9416175175169947
28,170.0,1.8991928236722544
29,173.16000000000003,1.8645517159204767
30,177.2,1.8202636633539002
31,180.07999999999998,1.7886921369145588
32,181.970086,1.7679723206213853
33,182.16,1.7663840663965065
34,185.97,1.7345213817105944
35,191.19,1.6908666730843847
36,193.83999999999997,1.66870577073652
37,197.89999999999998,1.6347523753783566
38,202.05,1.6000466738469827
39,204.86,1.5765475158400768
40,208.929613,1.54251132456255
41,210.10999999999999,1.535089425369507
42,216.0,1.4980632502729037
43,220.02,1.47279061096276
44,223.08,1.4535518770430984
45,227.22,1.4275252063941444
46,229.85999999999999,1.4109820843803191
47,234.13,1.3842297976276543
48,239.88329199999998,1.3481189874529904
49,240.13,1.3469263753110816
50,245.73000000000002,1.3197799231524132
51,252.03,1.289281473123911
52,256.72,1.2665084442060264
53,260.29,1.2492609119998754
54,263.91,1.2317583457387362
55,268.82,1.2079817188989037
56,273.81,1.1838171444510903
57,275.42287,1.1760016699066371
58,278.90000000000003,1.1630707317837021
59,284.09,1.1438087989416705
60,290.03999999999996,1.1216990532033102
61,296.10999999999996,1.0991448878813193
62,300.92,1.0812503199874512
63,307.93,1.0552453442936853
64,316.227766,1.0244552137427956
65,318.02,1.0194917682952058
66,327.68,0.9927550673291147
67,337.64000000000004,0.9651573299547599
68,347.90000000000003,0.9367324742721417
69,356.82,0.9122733985264346
70,363.078055,0.8953215269106867
71,365.97999999999996,0.889484754143078
72,375.37,0.8701702046845541
73,384.99,0.8500584533436595
74,394.87,0.8305865298313895
75,405.0,0.810578614577412
76,414.43,0.7913987434002149
77,416.86938299999997,0.7863409952583272
78,422.14000000000004,0.7780041676512455
79,429.99,0.7657498177590235
80,441.02000000000004,0.7495950202454938
81,451.29,0.7340480289559245
82,459.68,0.7205473606940465
83,470.39,0.7042880526958686
84,478.630092,0.6924856090471005
85,480.23999999999995,0.690770226946662
86,490.29,0.6779472456509145
87,500.56000000000006,0.6679255553357575
88,506.35,0.6600216602340284
89,512.2199999999999,0.6588864673070595
90,520.5400000000001,0.6488725434821222
91,530.22,0.6369711766281086
92,540.07,0.6231642368954606
93,549.5408739999999,0.6121070958254385
94,550.12,0.6115987643275944
95,560.34,0.6074295251400504
96,569.45,0.6023471350032085
97,580.03,0.5931547393667884
98,589.46,0.5860587623865007
99,600.42,0.5731564804984889
100,610.1700000000001,0.5642326066747556
101,620.09,0.5622364145279422
102,630.1600000000001,0.5523572738607633
103,630.957344,0.5519279470214812
104,640.4,0.5486675580576492
105,649.3100000000001,0.5421635596237254
106,658.35,0.5338532036817871
107,664.44,0.5339700773447956
108,675.23,0.528960944179584
109,684.63,0.5178624805231437
110,695.75,0.5161991844529717
111,705.43,0.5025795092408079
112,715.24,0.5057211065206292
113,724.43596,0.5004480520230573
114,725.19,0.5001592481732522
115,735.28,0.4958673424043188
116,745.5100000000001,0.4900291770310591
117,754.14,0.48610011285009824
118,764.63,0.47656189678309013
119,775.27,0.476882056854304
120,784.25,0.46912655366252776
121,795.1600000000001,0.4675721487825411
122,804.3699999999999,0.46468512766937203
123,815.5600000000001,0.4598641835807332
124,825.0,0.4565798745461711
125,831.763771,0.44544430944604924
126,834.5500000000001,0.4412430575765009
127,844.22,0.44859385295114057
128,855.96,0.4437809543366907
129,865.87,0.4425652454807112
130,875.9,0.4396291245094222
131,884.0000000000001,0.4373565567260283
132,894.24,0.4342258195529476
133,904.59,0.42952264960749986
134,915.07,0.4250736882038001
135,925.67,0.5181939446847909
136,934.23,0.6224823071260437
137,945.0500000000001,0.7424937180623001
138,954.992586,0.8202090407193277
139,955.99,0.82801406889989
140,964.84,0.8762449163975817
141,976.0099999999999,0.5176881597364761
142,985.04,0.779783312945985
143,994.1600000000001,0.7740633690114027
144,1005.6700000000001,0.9036537453615079
145,1014.97,0.8985764071387431
146,1024.36,0.6643375717718871
147,1033.8400000000001,0.7901242392609398
148,1045.81,1.0279681190968006
149,1055.49,1.004455370710095
150,1065.26,0.8837627251792979
151,1075.11,0.9527423932981975
152,1085.06,0.849485153479218
153,1095.1,0.9662992165161473
154,1096.4782,0.9621994546221203
155,1105.23,0.9368014948029004
156,1115.46,0.9155990229502485
157,1125.78,0.8443954965065177
158,1136.2,0.9558386316282546
159,1144.07,0.9076654468305644
160,1154.66,0.9205619566135963
161,1165.34,0.9200385118055493
162,1176.1299999999999,0.7204503447195166
163,1184.28,0.885729412305136
164,1195.24,0.7551433198803987
165,1206.3,0.660454389021129
166,1214.66,0.5578858958942305
167,1225.9,0.7280480558528027
168,1234.3899999999999,0.8692858727610125
169,1245.82,0.9027640396939733
170,1254.45,0.877333882793838
171,1258.92541,0.8561329511718325
172,1266.06,0.8230076225937537
173,1274.84,0.9260647269341757
174,1283.67,0.9435770262879258
175,1295.55,0.8271135214546927
176,1304.5300000000002,0.8208352058484272
177,1313.57,0.9218898442581557
178,1325.73,0.8889423914995601
179,1334.92,0.833346614949273
180,1344.17,0.9018687924149794
181,1353.49,0.8793550828993454
182,1366.01,0.8218392542367126
183,1375.48,0.8310032297610629
184,1385.0100000000002,0.828777559301407
185,1394.6100000000001,0.7129737018604105
186,1404.28,0.7107066574380735
187,1414.01,0.7788965670317303
188,1423.8200000000002,0.7739315486467119
189,1433.69,0.7797022842776875
190,1443.62,0.7938614739246568
191,1445.43977,0.7957157528230103
192,1446.9499999999998,0.7973613880590199
193,1453.6299999999999,0.7783230468142759
194,1463.71,0.7397616306844828
195,1473.85,0.7394086102920122
196,1484.0700000000002,0.7428838175493051
197,1494.3600000000001,0.7425058865001413
198,1504.71,0.7130555511882999
199,1511.6599999999999,0.6660759907615081
200,1518.64,0.6879283282033773
201,1525.65,0.6751579635139081
202,1536.22,0.6100055792389166
203,1543.31,0.6068492421992109
204,1554.0100000000002,0.5923026153550851
205,1564.78,0.6165213502045025
206,1575.63,0.6412366127036834
207,1586.55,0.6538403368964074
208,1593.8700000000001,0.6582955168497718
209,1604.9199999999998,0.6441462984733617
210,1616.05,0.6379090077467149
211,1623.51,0.6194477110871656
212,1634.76,0.6403778118351643
213,1646.0900000000001,0.6407542402329264
214,1653.6899999999998,0.6166370669604633
215,1659.58691,0.6285942024636656
216,1665.1499999999999,0.6401468133281896
217,1672.84,0.5954116245230241
218,1676.7,0.6478715634322648
219,1684.43,0.653889696791962
220,1696.1100000000001,0.6266176689318408
221,1703.9399999999998,0.6105978577036945
222,1715.75,0.5864440518793766
223,1723.6699999999998,0.5805130405221712
224,1735.62,0.6016850122748725
225,1743.6299999999999,0.5914123007886078
226,1755.72,0.6067998501183283
227,1763.8200000000002,0.5779169385030044
228,1776.0500000000002,0.5775237654097439
229,1784.24,0.5826688536653609
230,1796.61,0.5978721581491195
231,1804.9,0.5948093018168932
232,1813.23,0.5623433676495293
233,1825.8,0.5668277829576008
234,1834.23,0.5531289042023935
235,1846.94,0.5219037970874842
236,1855.4699999999998,0.5218272737444334
237,1864.04,0.5290115725662451
238,1876.96,0.5472726318168644
239,1885.6200000000001,0.5156847305096169
240,1894.32,0.49981725136723215
241,1903.07,0.5181753499309256
242,1905.46072,0.5151743273033293
243,1916.26,0.5019484292509526
244,1925.1,0.4900917372651341
245,1933.9899999999998,0.5013314518857307
246,1942.9199999999998,0.5129596117914593
247,1956.38,0.48494695023839174
248,1965.4099999999999,0.5110773233569504
249,1974.4900000000002,0.5194006030819243
250,1983.6000000000001,0.49891376677074706
251,1992.76,0.4877957370659849
252,2006.57,0.49524102175782275
253,2015.8300000000002,0.48501810526589073
254,2025.14,0.4954305953803737
255,2034.4799999999998,0.4742393694587058
256,2043.8700000000001,0.48181525014345283
257,2053.31,0.4510058374346151
258,2062.79,0.45807007001090927
259,2072.31,0.4862655478723355
260,2077.08,0.46736979812433166
261,2086.67,0.4765390052347389
262,2096.3,0.45765925763027826
263,2105.98,0.4592583166322327
264,2115.7000000000003,0.4608702209193192
265,2125.4700000000003,0.4624887318128207
266,2135.2799999999997,0.44335528799145424
267,2145.13,0.4440811894552198
268,2155.03,0.45273379752540044
269,2164.98,0.4416409122019962
270,2174.97,0.438478772163724
271,2185.01,0.4307640387318667
272,2187.7616199999998,0.433465882273648
273,2195.1,0.4408705814726068
274,2205.23,0.4325743982809004
275,2215.41,0.41854817805468414
276,2225.6400000000003,0.41001322079395786
277,2235.9100000000003,0.42106489390562374
278,2246.23,0.4102778299827796
279,2256.6,0.3991110290254257
280,2267.01,0.40271435844046377
281,2277.48,0.40564748341409007
282,2282.73,0.40820679479055016
283,2293.26,0.3908859153227645
284,2303.85,0.39181433141356703
285,2314.48,0.3819741778767616
286,2325.17,0.33709721989854424
287,2335.9,0.36563249229271894
288,2346.68,0.35898212765238385
289,2357.5099999999998,0.3697738259775387
290,2362.9500000000003,0.3540347566228612
291,2373.85,0.35660088309970234
292,2384.81,0.3412988051351315
293,2395.8199999999997,0.35141129013605077
294,2406.88,0.3426523381024601
295,2412.4300000000003,0.3447498272718609
296,2423.56,0.3526402033899564
297,2434.75,0.34319607506663996
298,2445.9900000000002,0.35106940970881373
299,2457.28,0.34636290731647756
300,2462.94,0.34374325500995645
301,2474.31,0.33623491336240446
302,2485.73,0.33805543468034255
303,2497.2,0.31266251896377073
304,2502.96,0.34023249258822985
305,2511.88643,0.3241025070208862
306,2514.5099999999998,0.3193996850957035
307,2520.31,0.32583308065241995
308,2526.12,0.3190494534428549
309,2537.78,0.3192448079585987
310,2543.63,0.3147471896839076
311,2555.3700000000003,0.3231193620693992
312,2567.1699999999996,0.3183591978572017
313,2573.08,0.32594984298482144
314,2584.96,0.3227961966423717
315,2596.89,0.3191146364685144
316,2602.88,0.3124208994658819
317,2614.8900000000003,0.3088678571617724
318,2626.96,0.3138485782599738
319,2633.02,0.3163892818933707
320,2645.17,0.3266649208613198
321,2657.3799999999997,0.3274491232315798
322,2663.51,0.31166896750100603
323,2675.7999999999997,0.3167541877410139
324,2681.9700000000003,0.315470140945314
325,2694.35,0.30592525628878814
326,2706.79,0.30820673503457313
327,2713.03,0.3001145288749026
328,2725.5499999999997,0.2992175254904354
329,2738.1299999999997,0.30405718550827904
330,2744.44,0.2846064199846378
331,2757.1099999999997,0.2856691751059478
332,2763.4700000000003,0.28941699575089896
333,2776.22,0.29457076874195676
334,2782.62,0.2863415983217818
335,2795.46,0.25788086641630587
336,2801.9100000000003,0.2659941821647233
337,2814.84,0.2883141453627137
338,2827.8399999999997,0.2924636491967334
339,2834.35,0.2847246283474617
340,2847.44,0.28087972728494764
341,2854.0,0.27538829260426834
342,2867.17,0.28518620941150213
343,2873.78,0.2829925608994152
344,2884.0315,0.28190923085148806
345,2887.0499999999997,0.28162773731650953
346,2893.7000000000003,0.27905568523748886
347,2907.0600000000004,0.287748189632118
348,2927.21,0.28086876190395765
349,2947.5,0.2760883541320285
350,2967.93,0.2756962663163304
351,2988.5099999999998,0.2738546998823086
352,3009.2200000000003,0.27249455197907274
353,3030.08,0.2706581254575132
354,3051.08,0.2683499188921848
355,3072.23,0.26652643370853263
356,3093.5299999999997,0.26470246990655666
357,3107.81,0.26255750544213335
358,3129.3500000000004,0.25846157585083934
359,3151.04,0.2571203676412216
360,3172.88,0.25487478081328
361,3187.53,0.24707526909032473
362,3209.6200000000003,0.24880111789851023
363,3231.87,0.24230378951381704
364,3246.79,0.24629781627787894
365,3269.2900000000004,0.24759382352931278
366,3291.96,0.24494355501331305
367,3307.1499999999996,0.24332952026439217
368,3311.31121,0.2437177572481547
369,3322.4199999999996,0.24485094231280957
370,3330.07,0.24607835589948296
371,3337.75,0.24336833502963354
372,3345.45,0.2394044911887689
373,3353.16,0.23635773586239658
374,3360.8900000000003,0.23710415756500908
375,3368.64,0.23785665629660632
376,3376.4,0.22788064354269597
377,3384.18,0.23183640781777037
378,3391.99,0.2397043376363219
379,3399.81,0.24307375596936584
380,3407.6400000000003,0.23195786281690217
381,3415.5,0.23476793520791567
382,3423.37,0.2414918961134215
383,3431.2599999999998,0.24096743404791213
384,3439.1699999999996,0.23914694901138753
385,3447.1000000000004,0.22739894100384767
386,3455.05,0.2293235100252926
387,3463.01,0.2228181675612299
388,3471.0,0.22994509064064436
389,3479.0,0.2214384022345512
390,3487.02,0.2256924908574428
391,3495.06,0.22680195650931917
392,3503.1099999999997,0.22791671067568794
393,3511.19,0.22499203038553384
394,3519.28,0.22569383860987213
395,3527.3900000000003,0.2212181238631952
396,3535.53,0.22710577465999543
397,3543.6800000000003,0.23111861397128802
398,3551.85,0.23102173031156537
399,3560.03,0.2276189351663351
400,3568.24,0.22109090556458202
401,3576.47,0.21441165299181367
402,3584.71,0.2101824889335377
403,3592.97,0.20970520190424655
404,3601.26,0.2230544804184325
405,3609.56,0.21743624744711085
406,3617.88,0.21810609150477395
407,3626.22,0.22557341259142183
408,3634.58,0.2190648107070545
409,3636.1,0.2046021649098968
410,3638.8399999999997,0.2211761178808099
411,3641.58,0.241035270851723
412,3644.3199999999997,0.2549203238226361
413,3647.06,0.22051447679354919
414,3649.8,0.19194702976446226
415,3652.55,0.20508837124986773
416,3655.29,0.19148322422078085
417,3658.0299999999997,0.21725667719169395
418,3660.77,0.22821973016260702
419,3663.5099999999998,0.25603148313352014
420,3666.25,0.2435701361044332
421,3668.99,0.2470955890753463
422,3671.7300000000005,0.24739544204625938
423,3674.4700000000003,0.23197419501717248
424,3677.21,0.22160004798808558
425,3679.9500000000003,0.22989590095899864
426,3682.69,0.22485065392991177
427,3685.4300000000003,0.22725390690082484
428,3688.17,0.21951435987173792
429,3690.91,0.20729691284265103
430,3693.65,0.20991706581356412
431,3696.39,0.19507581878447722
432,3699.13,0.21417597175539033
433,3701.87,0.21943062472630342
434,3704.6099999999997,0.2139353776972165
435,3707.35,0.2228547306681296
436,3710.0899999999997,0.2110981836390427
437,3712.83,0.19629493660995578
438,3715.57,0.2259119895808689
439,3718.3100000000004,0.22842364255178196
440,3721.05,0.27776249552269505
441,3723.79,0.4568276484936082
442,3726.53,0.7843218014645212
443,3729.27,1.0850248544354344
444,3732.01,1.1217219074063474
445,3734.75,0.8064288603772605
446,3737.49,0.4547113133481736
447,3740.23,0.2795417663190867
448,3742.97,0.2680779192899998
449,3745.71,0.2457122722609129
450,3748.45,0.226620925231826
451,3751.1899999999996,0.2151787782027391
452,3753.93,0.19621203117365216
453,3756.6699999999996,0.22625198414456527
454,3759.4100000000003,0.23943233711547837
455,3762.15,0.22403819008639148
456,3764.8900000000003,0.22581254305730453
457,3767.63,0.22897479602821763
458,3770.37,0.23395304899913075
459,3773.12,0.21578759048453622
460,3775.8599999999997,0.23504484345544932
461,3778.6,0.24695659642636242
462,3781.34,0.2536371493972755
463,3784.0800000000004,0.25832260236818855
464,3786.82,0.2658162553391017
465,3789.56,0.2582989083100148
466,3792.3,0.25232656128092784
467,3795.04,0.23091511425184097
468,3797.78,0.22496996722275409
469,3800.52,0.22587692019366715
470,3801.8939600000003,0.23422049436152242
471,3803.2599999999998,0.24252435205740383
472,3806.0,0.24644051139294507
473,3808.74,0.2517445707284863
474,3811.48,0.24672693006402757
475,3814.22,0.24659368939956883
476,3816.9599999999996,0.2401936487351101
477,3819.7,0.2435136080706513
478,3822.4399999999996,0.25307866740619256
479,3825.1800000000003,0.2387204267417338
480,3827.92,0.22801608607727508
481,3830.6600000000003,0.23759734541281632
482,3833.4,0.21976430474835756
483,3836.1400000000003,0.2235125640838988
484,3838.88,0.20273582341944002
485,3841.62,0.23447838275498128
486,3844.36,0.2508414420905225
487,3847.1,0.2503775014260638
488,3849.84,0.24987556076160505
489,3852.58,0.26723072009714627
490,3855.3199999999997,0.2559896794326875
491,3858.06,0.2588433387682288
492,3860.7999999999997,0.26507449810377004
493,3863.54,0.2739889574393113
494,3866.28,0.2861182167748525
495,3869.0200000000004,0.32874097611039377
496,3871.76,0.342556135445935
497,3874.5,0.32634389478147624
498,3877.2400000000002,0.2756428541170175
499,3879.98,0.25002511345255873
500,3882.7200000000003,0.2628210727881
501,3885.46,0.2573155321236412
502,3888.2,0.25800079145918253
503,3890.94,0.2917926507947238
504,3893.69,0.26622785998185455
505,3896.4300000000003,0.2628094193173958
506,3899.17,0.257049078652937
507,3901.9100000000003,0.2495811379884783
508,3904.65,0.25338889732401954
509,3907.39,0.2696380566595608
510,3910.13,0.27412361599510204
511,3912.87,0.2664549753306433
512,3915.61,0.2530997346661845
513,3918.35,0.2560076940017258
514,3921.0899999999997,0.25578765333726705
515,3923.83,0.25709101267280826
516,3926.5699999999997,0.2592237720083495
517,3929.31,0.24528843134389078
518,3932.05,0.238953490679432
519,3934.7900000000004,0.20607155001497326
520,3937.53,0.21679120935051452
521,3940.27,0.23012386868605578
522,3943.01,0.25090502802159703
523,3945.75,0.24815338735713827
524,3948.4900000000002,0.2638171466926795
525,3951.23,0.24047630602822073
526,3953.97,0.243790765363762
527,3956.71,0.24324552469930324
528,3959.45,0.24214188403484452
529,3962.19,0.23746034337038574
530,3964.93,0.235744102705927
531,3967.6699999999996,0.24097766204146825
532,3970.41,0.2502933213770095
533,3973.1499999999996,0.24246218071255074
534,3975.8900000000003,0.249961740048092
535,3978.63,0.21833739938363322
536,3981.3700000000003,0.2232836587191745
537,3984.11,0.23842151805471573
538,3986.85,0.23917737739025696
539,3989.59,0.2612921367257982
540,3992.33,0.25045229606133945
541,3995.07,0.26067325539688074
542,3997.81,0.26206871473242194
543,4000.5499999999997,0.2603036740679632
544,4003.29,0.27404303340350444
545,4006.0299999999997,0.2826321927390457
546,4008.77,0.28944335207458693
547,4011.52,0.28921656126171774
548,4014.26,0.269068720597259
549,4017.0,0.2724591799328003
550,4019.74,0.2677180392683415
551,4022.48,0.25502409860388275
552,4025.22,0.278114657939424
553,4027.96,0.27633341727496524
554,4030.7,0.2673637766105065
555,4033.4399999999996,0.2715023359460478
556,4036.18,0.266322095281589
557,4038.9199999999996,0.27286755461713025
558,4041.6600000000003,0.26329621395267144
559,4044.4,0.2721130732882127
560,4047.1400000000003,0.266206432623754
561,4049.88,0.26112909195929523
562,4052.62,0.2669914512948365
563,4055.36,0.25792971063037773
564,4058.1,0.25863126996591895
565,4060.84,0.2629270293014602
566,4063.58,0.2598826886370015
567,4066.3199999999997,0.26834174797254273
568,4069.06,0.273526607308084
569,4071.7999999999997,0.26364076664362524
570,4074.54,0.25942542597916646
571,4077.2799999999997,0.2664425853147077
572,4080.02,0.26759954465024893
573,4082.7599999999998,0.2734023039857902
574,4085.5000000000005,0.25757496332133145
575,4088.2400000000002,0.25647132265687267
576,4090.98,0.24994128199241392
577,4093.7200000000003,0.2542261413279552
578,4096.46,0.24300130066349643
579,4099.2,0.2555154599990377
580,4101.94,0.2908739193345789
581,4104.68,0.29422097867012015
582,4107.42,0.27646383800566143
