,lambda (Angstroms),Total Flux (erg/s/cm^2/Angstrom)
0,100.11000000000001,0.1740071637177781
1,101.97,0.17352306489902877
2,104.10000000000001,0.1729686928755762
3,104.712855,0.17280918624487762
4,106.04,0.17099477224385895
5,108.01,0.16830147621458852
6,110.02,0.16555349766752545
7,113.89,0.16026260883261922
8,117.89000000000001,0.15479399030457439
9,120.22644299999999,0.15159980280407048
10,120.91,0.1508163260861902
11,124.87,0.14627734000516165
12,126.9,0.1439505312317132
13,128.08,0.14259800566584604
14,131.06,0.1391822956069478
15,131.97,0.13813928210330542
16,134.10999999999999,0.13568638867246172
17,136.92,0.13246559485041975
18,138.038426,0.13118364478082803
19,140.10999999999999,0.1294864268039292
20,143.04000000000002,0.12708657721084254
21,147.04999999999998,0.12380253580172781
22,151.17000000000002,0.1204271864457944
23,155.04999999999998,0.1172485101705562
24,158.489319,0.11443088720894891
25,159.03,0.1140960191247688
26,161.98000000000002,0.11226893485372162
27,166.14000000000001,0.1096924895875907
28,170.01,0.10729562729162039
29,173.17,0.10533848477231901
30,177.2,0.10284260210453591
31,180.07999999999998,0.10105893598990681
32,181.970086,0.09988834889363479
33,182.17000000000002,0.09979389509097558
34,185.98,0.0979938208090078
35,191.19,0.09553232688898884
36,193.85,0.09427571114049164
37,197.91,0.09235759648194329
38,202.05999999999997,0.09039706021750593
39,204.86999999999998,0.08906963319786038
40,208.929613,0.08715163086390093
41,210.12,0.08672882894887964
42,216.01,0.08463766829570527
43,220.02,0.08321393073140997
44,223.09,0.08212381694005423
45,227.23,0.08065408977363965
46,229.85999999999999,0.07972445352214923
47,234.14000000000001,0.07821377033991385
48,239.88329199999998,0.07618084311463526
49,240.14000000000001,0.07611089778388172
50,245.73999999999998,0.07457952845692693
51,252.04000000000002,0.07286108638285275
52,256.73,0.07157651916515309
53,260.3,0.07060549617884439
54,263.92,0.06962775404917003
55,268.83,0.06829160292066143
56,273.82,0.06693391121276776
57,275.42287,0.06649497865160157
58,278.90999999999997,0.06576206246457054
59,284.1,0.06469223748446591
60,290.05,0.06345735470424962
61,296.12,0.062188429280331546
62,300.93,0.06118430775528273
63,307.94,0.05974044479570021
64,316.227766,0.0580224128611988
65,318.03,0.057744653446481296
66,327.7,0.056268294064100534
67,337.65000000000003,0.0547336485227677
68,347.91,0.05315035412688079
69,356.84000000000003,0.05189564533601624
70,363.078055,0.051128027812437755
71,365.99,0.05088444956393258
72,375.38,0.049853619444470226
73,385.01,0.048639066706938544
74,394.89000000000004,0.047972565013084646
75,405.01000000000005,0.04725093190116142
76,414.45000000000005,0.04628732299043462
77,416.86938299999997,0.04598857492107308
78,422.15000000000003,0.04548318935817427
79,429.99999999999994,0.044824578584954394
80,441.03000000000003,0.04435746856220084
81,451.31,0.0436680649190543
82,459.7,0.042753412952517375
83,470.4,0.04202116293679091
84,478.630092,0.041737383695054045
85,480.25,0.041715098581322815
86,490.31,0.040699108675169286
87,499.43,0.04096814512008776
88,506.37,0.04006295771962001
89,512.24,0.041803927899627835
90,520.56,0.041179415217799074
91,530.24,0.04033846875144061
92,540.1,0.038893411813600266
93,549.5408739999999,0.03829097176869853
94,550.14,0.03826254767997708
95,560.36,0.039416216087259405
96,569.47,0.039996360141108904
97,580.0600000000001,0.03952318099953549
98,589.48,0.03941179683677614
99,600.44,0.03776832814634701
100,610.1999999999999,0.03722357010085536
101,620.11,0.03874858372474654
102,630.19,0.037901742907271566
103,630.957344,0.03794484810401288
104,640.4300000000001,0.03858034835991209
105,649.34,0.038055938230602666
106,658.3700000000001,0.037033011035578656
107,664.46,0.03807257095056245
108,675.26,0.03833852503624802
109,684.65,0.03653912964408018
110,695.78,0.037833804799050574
111,705.4599999999999,0.03539514716473912
112,715.27,0.037759179042570166
113,724.43596,0.03768207901070456
114,725.22,0.037683918148843906
115,735.31,0.03754035017000576
116,745.54,0.03697051430048006
117,754.17,0.03678683432452633
118,764.6600000000001,0.035315202372295185
119,775.3000000000001,0.03644441268004167
120,784.28,0.03522666797736908
121,795.19,0.0359142423530753
122,804.4,0.03610055111570173
123,815.59,0.03590451971003286
124,825.0300000000001,0.035950401937958315
125,831.763771,0.033817560297106586
126,834.59,0.032944499757079915
127,844.25,0.035390609813791316
128,854.0300000000001,0.03500989061654882
129,865.91,0.03532981447511316
130,875.9300000000001,0.03525883676996287
131,884.04,0.03516852552357876
132,894.2700000000001,0.03506264412400916
133,904.63,0.03459409186598951
134,915.1099999999999,0.03399944035401596
135,925.7,0.05233474119258466
136,934.27,0.0722153561393773
137,945.0899999999999,0.09306114007453438
138,954.992586,0.10683705350676627
139,956.03,0.10828076375800787
140,964.87,0.11510224789945814
141,976.05,0.052467977254821725
142,985.0799999999999,0.09455678596492308
143,994.1899999999999,0.09435156186182489
144,1005.7099999999999,0.11777627676109041
145,1015.01,0.1189521772266433
146,1024.4,0.08222402827734669
147,1033.8799999999999,0.10115581991320062
148,1045.85,0.14178403773821868
149,1055.53,0.13733758734107374
150,1065.3,0.11551278752907931
151,1075.15,0.12758399490388533
152,1085.1,0.11019243626219191
153,1095.14,0.130765718205649
154,1096.4782,0.13005483916969784
155,1105.28,0.12541529418832348
156,1115.5,0.12175428207649426
157,1125.83,0.10895903912980194
158,1136.24,0.12920819193957278
159,1144.12,0.1212212939511957
160,1154.7,0.12324620274345079
161,1165.39,0.12254917070084274
162,1176.17,0.0879779088842558
163,1184.33,0.11735197604349981
164,1195.28,0.0958138002093971
165,1206.3400000000001,0.08081623354043126
166,1214.71,0.06730887456039111
167,1225.94,0.09375872387390952
168,1234.44,0.11689838299812202
169,1245.8600000000001,0.12180410723324048
170,1254.5,0.11772140893126355
171,1258.92541,0.11447061525081849
172,1266.11,0.10923126959301664
173,1274.8899999999999,0.12645705393999773
174,1283.72,0.1295226669791598
175,1295.6000000000001,0.10928520024136198
176,1304.58,0.10850070935706702
177,1313.6200000000001,0.12594710490338923
178,1325.78,0.12042587484180493
179,1334.97,0.1107882164646701
180,1344.22,0.12295688451815245
181,1353.54,0.11931411674068818
182,1366.06,0.10924861526280699
183,1375.53,0.11093484356188568
184,1385.07,0.11035245603001774
185,1394.67,0.090070344928767
186,1404.3400000000001,0.08958033799656961
187,1414.07,0.10231338749498944
188,1423.8700000000001,0.10155567116246261
189,1433.74,0.10289779899898921
190,1440.36,0.10560733184375169
191,1445.43977,0.10604261547125055
192,1447.01,0.10618343962708862
193,1453.69,0.10266558977814626
194,1463.76,0.09623244340406698
195,1473.9099999999999,0.09653227846892251
196,1484.1299999999999,0.09743543729284602
197,1494.4099999999999,0.09734212219597065
198,1504.77,0.09237217853803009
199,1511.72,0.08472691604549276
200,1518.7,0.08836008659255597
201,1525.71,0.08633565017921975
202,1536.28,0.0756196177984831
203,1543.3700000000001,0.0743538328240817
204,1554.07,0.07249307028161414
205,1564.8400000000001,0.07688757149821455
206,1575.6899999999998,0.08093957415374979
207,1586.61,0.08318072056835298
208,1593.94,0.08362427991075604
209,1604.98,0.08183253848376147
210,1616.1100000000001,0.08106167617556859
211,1623.57,0.07839088535624072
212,1634.82,0.08189112520645007
213,1646.16,0.08195371417546109
214,1653.75,0.07843262319440232
215,1659.58691,0.08022062027703537
216,1665.22,0.08196176343922758
217,1672.8999999999999,0.07500262488044103
218,1676.76,0.08325059628188423
219,1684.5,0.08406516976560716
220,1696.1799999999998,0.07992797737411929
221,1704.01,0.07745253892160643
222,1715.8200000000002,0.07336331595555573
223,1723.74,0.0724207255668071
224,1735.68,0.07583246202619362
225,1743.7,0.07424105504162745
226,1755.7800000000002,0.07664277626686944
227,1763.8899999999999,0.07260585734606749
228,1776.11,0.07193420333716492
229,1784.3100000000002,0.0730711624801272
230,1796.6799999999998,0.07543763857749833
231,1804.9699999999998,0.07507304578422482
232,1813.31,0.06980674969304254
233,1825.87,0.07073501725836036
234,1834.3000000000002,0.0688197092309423
235,1847.02,0.06412404224295207
236,1855.54,0.06406955227929824
237,1864.11,0.06493397901773564
238,1877.0300000000002,0.06812022883811034
239,1885.6899999999998,0.06322683364031195
240,1894.3999999999999,0.0606496251446048
241,1903.14,0.06376130267015238
242,1905.46072,0.0632980267868739
243,1916.33,0.06114701439420389
244,1925.1799999999998,0.05938887987896436
245,1934.06,0.06181570321282571
246,1942.99,0.06279265962852186
247,1956.4599999999998,0.058520923874818304
248,1965.49,0.06255587645418406
249,1974.56,0.06407577949901767
250,1983.6799999999998,0.06082747562568608
251,1992.83,0.059310719601455376
252,2006.65,0.060843365420595444
253,2015.9099999999999,0.059201288176401315
254,2025.21,0.06100575139767502
255,2034.56,0.057444007700783534
256,2043.95,0.0585856544693599
257,2053.39,0.053952954319771054
258,2062.87,0.05512850463565007
259,2072.39,0.05929719541699691
260,2077.1600000000003,0.0559672534240373
261,2086.75,0.057549152519952886
262,2096.38,0.0548581720813363
263,2106.06,0.055374504724554525
264,2115.7799999999997,0.0556700278332406
265,2125.5499999999997,0.05585138402376148
266,2135.36,0.0534560806797502
267,2145.22,0.05308185041757372
268,2155.12,0.05457949062086509
269,2165.06,0.053205281289624304
270,2175.06,0.05272365765658528
271,2185.1,0.051399584489014105
272,2187.7616199999998,0.05178143646865969
273,2195.18,0.052857091420875656
274,2205.32,0.05175156528821605
275,2215.5,0.05005360092623628
276,2225.72,0.04871355833493636
277,2236.0,0.04998779339965621
278,2246.32,0.04864741023505589
279,2256.6800000000003,0.04715136884113543
280,2267.1,0.047794415103234726
281,2277.5699999999997,0.04815301107868383
282,2282.82,0.04823389098041332
283,2293.35,0.045813194611882185
284,2303.94,0.04600177589937083
285,2314.57,0.044535548957539306
286,2325.26,0.038394189671727544
287,2335.9900000000002,0.04260046215659564
288,2346.77,0.04217355435481353
289,2357.6,0.043120836266381225
290,2363.04,0.041414107078839975
291,2373.95,0.04141173253176736
292,2384.9,0.03977836975537459
293,2395.91,0.04107739463500158
294,2406.97,0.03993342922797838
295,2412.52,0.0401742474098067
296,2423.66,0.040825445544143184
297,2434.84,0.03952767544915952
298,2446.08,0.04057485301019561
299,2457.37,0.04000340028458151
300,2463.04,0.03967932377844936
301,2474.41,0.03872785459419495
302,2485.83,0.03911647512329034
303,2497.3,0.03523872536573554
304,2503.06,0.03903228034363304
305,2511.88643,0.03727931602753686
306,2514.61,0.036740629801435706
307,2520.4100000000003,0.037943796251649925
308,2526.2200000000003,0.03696603881643348
309,2537.88,0.03697071840427794
310,2543.73,0.03616466542733883
311,2555.4700000000003,0.037051623931737956
312,2567.27,0.03660927912355309
313,2573.18,0.03743266283403
314,2585.06,0.03706064694239982
315,2596.9900000000002,0.03669213162361631
316,2602.9799999999996,0.0359616842506479
317,2614.99,0.035533527848419066
318,2627.07,0.035894984248175575
319,2633.12,0.03589701356262317
320,2645.2799999999997,0.03678112887893436
321,2657.4900000000002,0.03656201476809223
322,2663.61,0.034974306884525165
323,2675.9100000000003,0.035474477804807045
324,2682.08,0.03519048049408666
325,2694.45,0.03434912421635388
326,2706.8900000000003,0.03435188074060645
327,2713.13,0.033666026231871406
328,2725.66,0.03366674778724799
329,2731.94,0.03407666773679028
330,2744.55,0.03221117820872155
331,2757.2200000000003,0.03214646536806882
332,2763.57,0.03233941811959645
333,2776.3300000000004,0.03299782031006774
334,2782.73,0.03240380363444205
335,2795.57,0.029378584741468018
336,2802.02,0.030388468638689003
337,2814.95,0.03227272477683898
338,2827.9500000000003,0.0322704837169743
339,2834.4599999999996,0.031184524301611297
340,2847.5499999999997,0.030932528272870637
341,2854.11,0.030683699430354306
342,2867.29,0.03124162843273765
343,2873.8999999999996,0.030802630163067998
344,2884.0315,0.030753606171795043
345,2887.16,0.030740663218644174
346,2893.8199999999997,0.030313438563218057
347,2907.17,0.03081376864580984
348,2927.3199999999997,0.030208307909047633
349,2947.6200000000003,0.02967475413950555
350,2968.0499999999997,0.029504811074887585
351,2988.6200000000003,0.029159021846341743
352,3009.3399999999997,0.028874469585016035
353,3030.2000000000003,0.02859164115976245
354,3051.2,0.028255966570580993
355,3072.35,0.02786592894861966
356,3086.53,0.02759245891649618
357,3107.93,0.02721087957323507
358,3129.47,0.026782194066046087
359,3151.16,0.026572045526077236
360,3173.01,0.026151717084476524
361,3187.65,0.02547974108516145
362,3209.75,0.02548214092226096
363,3232.0,0.025028697726580604
364,3246.9199999999996,0.024929359399409774
365,3269.42,0.02473046448242964
366,3292.08,0.02443557966381764
367,3307.28,0.024190959008791056
368,3311.31121,0.024307312681800638
369,3322.55,0.024637230153367815
370,3330.2,0.024443809551747103
371,3337.8799999999997,0.023913853104629842
372,3345.5800000000004,0.02372554276051488
373,3353.29,0.023634990467901067
374,3361.02,0.023638324278289553
375,3368.77,0.02340485419168034
376,3376.5299999999997,0.022807902156572274
377,3384.32,0.023364514275967654
378,3392.1200000000003,0.023602974446864183
379,3399.94,0.023940860720763013
380,3407.77,0.022909815046162997
381,3415.63,0.02305235352606642
382,3423.5,0.023475170057471
383,3431.4,0.023478300743379026
384,3439.31,0.023434509480788204
385,3447.24,0.022741384321199674
386,3455.18,0.0222944172131123
387,3463.1499999999996,0.02207503425952837
388,3471.13,0.02229879935744559
389,3479.1299999999997,0.02207948055836511
390,3487.15,0.022039177862286926
391,3495.19,0.022351481269211045
392,3503.25,0.021911370779137462
393,3511.32,0.021695698340565027
394,3519.4199999999996,0.021785390056496042
395,3527.5299999999997,0.021786559823928204
396,3535.66,0.022096945694362664
397,3543.8199999999997,0.022099755719300576
398,3551.98,0.022191395744238486
399,3560.1699999999996,0.022015249923679845
400,3568.38,0.0215803802061235
401,3576.61,0.020779586591569456
402,3584.85,0.020616401028516564
403,3593.11,0.020454551568465967
404,3601.4,0.02099303626291882
405,3609.7000000000003,0.02091078900887282
406,3618.02,0.02095510785782912
407,3626.36,0.021596152809787716
408,3630.28,0.018585398998238283
409,3633.02,0.02728809510955322
410,3635.76,0.022073151220868156
411,3638.5,0.02012137733218309
412,3641.2400000000002,0.015767193443498025
413,3643.98,0.02249010955481296
414,3646.72,0.017070085666127898
415,3649.46,0.019303211777442833
416,3652.2,0.02484743788875777
417,3654.94,0.020725634000072702
418,3657.68,0.02452806011138764
419,3660.4199999999996,0.018254296222702575
420,3663.16,0.01718283233401751
421,3665.9,0.013955978445332445
422,3668.6400000000003,0.01695946455664738
423,3671.38,0.023911330667962315
424,3674.1200000000003,0.02014341677927725
425,3676.86,0.020892052890592185
426,3679.6,0.011569395001907123
427,3682.34,0.01935944511322206
428,3685.08,0.018713841224536995
429,3687.82,0.01906554733585193
430,3690.56,0.023955343447166863
431,3693.2999999999997,0.023850809558481803
432,3696.04,0.017725145669796737
433,3698.7799999999997,0.021167891781111673
434,3701.52,0.026842887892426608
435,3704.27,0.01973101205524269
436,3707.01,0.019692298166557626
437,3709.75,0.01923241427787256
438,3712.49,0.024467950389187497
439,3715.23,0.024018016500502434
440,3717.97,0.02904017261181737
441,3720.71,0.04245671872313231
442,3723.45,0.08266408483444723
443,3726.1899999999996,0.14623364094576216
444,3728.93,0.1766306670570771
445,3731.67,0.13968629316839204
446,3734.4100000000003,0.07383530927970698
447,3737.15,0.03415845539102192
448,3739.8900000000003,0.02263051150233685
449,3742.63,0.024450067613651788
450,3745.37,0.022379833724966724
451,3748.11,0.02232954983628166
452,3750.85,0.024465565947596597
453,3753.59,0.02046383205891153
454,3756.33,0.023191368170226465
455,3759.0699999999997,0.023075984281541402
456,3761.81,0.023320460392856335
457,3764.5499999999997,0.02355227650417127
458,3767.29,0.01792427261548621
459,3770.0299999999997,0.024017718726801144
460,3772.7699999999995,0.02199088483811608
461,3775.51,0.019095320949431015
462,3778.25,0.018540137060745948
463,3780.9900000000002,0.022306583172060884
464,3783.73,0.024109869283375822
465,3786.48,0.021413833446191907
466,3789.22,0.02129662955750684
467,3791.9599999999996,0.019139795668821777
468,3794.7,0.020023161780136713
469,3797.44,0.021570737891451648
470,3800.1800000000003,0.020710304002766584
471,3801.8939600000003,0.021260276304426985
472,3802.92,0.021589865680097
473,3805.6600000000003,0.022119201316656976
474,3808.4,0.019872166953216953
475,3811.14,0.01699347258977693
476,3813.88,0.02662951822633691
477,3816.62,0.020525973862896885
478,3819.36,0.020126179499456866
479,3822.1,0.01640550513601684
480,3824.8399999999997,0.02148450077257682
481,3827.58,0.022663036409136795
482,3830.3199999999997,0.02048435204569677
483,3833.06,0.019242037682256748
484,3835.7999999999997,0.017670243318816725
485,3838.5399999999995,0.021257698955376707
486,3841.28,0.02293715459193668
487,3844.0200000000004,0.01808643022849666
488,3846.76,0.025156795865056633
489,3849.5,0.018625381501616613
490,3852.2400000000002,0.02235099713817659
491,3854.98,0.022458992774736567
492,3857.7200000000003,0.019883728411296545
493,3860.46,0.021513994047856522
494,3863.2,0.030123109684416498
495,3865.94,0.041509865320976475
496,3868.69,0.0480535924744582
497,3871.4300000000003,0.04104027811101818
498,3874.17,0.03123305374757816
499,3876.91,0.023986459384138136
500,3879.65,0.020602505020698113
501,3882.39,0.02176839065725809
502,3885.13,0.028688456293818068
503,3887.87,0.028888671930378047
504,3890.61,0.029419817566938018
505,3893.35,0.027120883203498
506,3896.0899999999997,0.023490998840057974
507,3898.83,0.018958554476617952
508,3901.5699999999997,0.01818244011317793
509,3904.31,0.018255525749737905
510,3907.05,0.019749801386297883
511,3909.7900000000004,0.02277232702285786
512,3912.53,0.02203219265941784
513,3915.27,0.023246898295977817
514,3918.01,0.021105283932537793
515,3920.75,0.02267623956909777
516,3923.4900000000002,0.02154549520565775
517,3926.23,0.021848790842217726
518,3928.97,0.0228446864787777
519,3931.71,0.01796738211533768
520,3934.45,0.019494207751897655
521,3937.19,0.01882732338845763
522,3939.93,0.02119883902501761
523,3942.6699999999996,0.021744444661577586
524,3945.41,0.020581160298137564
525,3948.15,0.02088264593469754
526,3950.9,0.02297248308817927
527,3953.64,0.021988228724739246
528,3956.38,0.018262684361299224
529,3959.12,0.0181240099978592
530,3961.8599999999997,0.021438755634419177
531,3964.6,0.026550471270979155
532,3967.3399999999997,0.03281410690753914
533,3970.0800000000004,0.033225902544099115
534,3972.82,0.030635818180659087
535,3975.5600000000004,0.021315033817219064
536,3978.3,0.01961013945377904
537,3981.04,0.02238998509033902
538,3983.78,0.019149970726898995
539,3986.52,0.016701666363458975
540,3989.26,0.01758037200001895
541,3992.0,0.021968387636578927
542,3994.74,0.021526633273138904
543,3997.48,0.02125125890969888
544,4000.22,0.01723310454625886
545,4002.96,0.019764120182818836
546,4005.7,0.021944125819378813
547,4008.4399999999996,0.02046257145593879
548,4011.18,0.02223605709249877
549,4013.92,0.021796112729058747
550,4016.6600000000003,0.020643668365618723
551,4019.4,0.0208113340021787
552,4022.1400000000003,0.017641489638738676
553,4024.88,0.021029125275298655
554,4027.62,0.021681430911858632
555,4030.36,0.017719876548418608
556,4033.1099999999997,0.019228893701900337
557,4035.8500000000004,0.023242199338460313
558,4038.59,0.022017434975020293
559,4041.3300000000004,0.02211819061158027
560,4044.07,0.019547456248140246
561,4046.81,0.017713451884700224
562,4049.55,0.020061097521260198
563,4052.29,0.023495913157820174
564,4055.03,0.021831708794380154
565,4057.77,0.02122359443094013
566,4060.5099999999998,0.023631810067500106
567,4063.25,0.021685505704060085
568,4065.99,0.02004662134062006
