,lambda (Angstroms),Total Flux (erg/s/cm^2/Angstrom)
0,100.08,100.96838101247032
1,101.94,100.68749194277044
2,104.08000000000001,100.36431849698492
3,104.712855,100.26874750119501
4,106.00999999999999,99.23977034708678
5,107.98,97.677042206827
6,109.99,96.08258354617766
7,114.12,92.8064072932332
8,118.13000000000001,89.62542260265845
9,120.22644299999999,87.96239191634612
10,120.88,87.52773222968172
11,125.13,84.70119426069029
12,126.87,83.54397636401728
13,128.04,82.76584708878241
14,131.03,80.77729449705565
15,131.93,80.1787335237516
16,134.07999999999998,78.74883784909815
17,136.89,76.87999747200669
18,138.038426,76.11621637275005
19,140.07,75.15044762918792
20,143.01,73.75283195175012
21,147.01000000000002,71.85131439555803
22,151.13,69.89275085210782
23,155.01,68.04827847434107
24,158.489319,66.39428168941708
25,158.98,66.217933115045
26,161.94,65.15412228527182
27,166.08999999999997,63.66263084091028
28,169.96,62.27177020517828
29,173.12,61.13608043962183
30,177.16,59.68412272330107
31,180.03000000000003,58.65265780111336
32,181.970086,57.95539973859486
33,182.11999999999998,57.91429566504058
34,185.92999999999998,56.86965343061166
35,191.14,55.44115322412796
36,193.8,54.71182328469526
37,197.86,53.598635283804754
38,202.0,52.463512782226765
39,204.81,51.69305544226113
40,208.929613,50.5635223712967
41,210.07000000000002,50.32844803218692
42,215.95,49.11637296805377
43,219.97,48.287709191345066
44,223.03,47.65693503041158
45,227.17000000000002,46.80353549473098
46,229.8,46.26141493699682
47,234.08,45.379184439129
48,239.88329199999998,44.182944012001016
49,240.08,44.15169781182269
50,246.24,43.173184507185475
51,251.97,42.26299080688203
52,257.25,41.42425042809298
53,260.23,40.95089957547757
54,263.84999999999997,40.375876359281676
55,268.75,39.597520544724794
56,273.75,38.803278823864716
57,275.42287,38.53754657829228
58,278.84,38.12096982577345
59,284.02,37.489484482953145
60,289.96999999999997,36.76412109368388
61,296.03999999999996,36.024140589544636
62,300.85,35.437759345440064
63,307.86,34.58318548735275
64,316.227766,33.56308987569753
65,317.95,33.40627620198172
66,328.35999999999996,32.45841488727262
67,338.34000000000003,31.54970499961125
68,347.82,30.686521888391436
69,356.73999999999995,29.87433010482216
70,363.078055,29.297234091817838
71,365.89000000000004,29.10549303358351
72,375.28,28.465199340701936
73,384.90999999999997,27.80852976431189
74,394.78,27.13552271811336
75,404.90999999999997,26.444778704372318
76,414.34,25.801755788222664
77,416.86938299999997,25.629277681945407
78,422.03999999999996,25.360024150237635
79,429.89,24.95124943797259
80,440.92,24.376890355874952
81,451.19,23.84209588572221
82,459.57,23.40571665593507
83,470.28000000000003,22.84801097693002
84,478.630092,22.4132002933901
85,480.13,22.353131815117464
86,490.18,21.950625171807808
87,500.44,21.539738033014967
88,506.24,21.30743782317457
89,512.1,21.07280933046755
90,520.42,20.73960094102891
91,530.1,20.35191988478011
92,539.95,19.95741249339254
93,549.5408739999999,19.573326686228967
94,549.99,19.559606301520954
95,560.22,19.247106561166344
96,570.63,18.92910582349934
97,579.9,18.64588138871086
98,589.33,18.35782837241135
99,600.28,18.02327777270716
100,610.0400000000001,17.72507138573492
101,619.95,17.422435841302356
102,630.02,17.11480550055877
103,630.957344,17.086169818593195
104,640.26,16.860881876057004
105,650.66,16.60905475381029
106,658.2,16.42647523326893
107,664.29,16.27902668098552
108,675.08,16.017705989210814
109,684.4699999999999,15.790261696305858
110,695.5899999999999,15.521155270968995
111,705.2700000000001,15.28665960181244
112,716.73,15.009285256835785
113,724.43596,14.822692991907777
114,726.6999999999999,14.78200289013659
115,735.1199999999999,14.630683644270094
116,745.34,14.44710898527774
117,755.71,14.260783350691565
118,764.46,14.103525804718661
119,775.0999999999999,13.912448120863615
120,785.88,13.718774459720994
121,794.98,13.555290326029171
122,804.1800000000001,13.390014625274803
123,815.37,13.188937952575744
124,824.81,13.019482796471262
125,831.763771,12.894087706753826
126,834.36,12.859057596783517
127,845.97,12.70372857932394
128,855.77,12.572125745004056
129,865.6800000000001,12.43921649175303
130,875.6999999999999,12.304842462570868
131,885.8399999999999,12.168952942009273
132,894.04,12.059009790415086
133,904.3900000000001,11.919883150439492
134,914.86,11.782025192084475
135,925.46,11.687882718901745
136,934.02,11.640658657169277
137,944.8299999999999,11.616354349572548
138,954.992586,11.595379165696848
139,955.78,11.593982543621783
140,964.62,11.486345243644637
141,975.79,11.012808180800214
142,984.82,11.106280818357495
143,993.93,11.049263340666117
144,1005.4399999999999,11.132998405514881
145,1014.7399999999999,11.019834395357929
146,1024.13,10.581683359296232
147,1035.99,10.526871301182098
148,1045.58,10.84943865199875
149,1055.25,10.716760457566734
150,1065.02,10.361371656573896
151,1074.87,10.391811910332395
152,1084.82,10.055507057530065
153,1094.85,10.197949459479073
154,1096.4782,10.171599219636134
155,1104.98,10.054269314682085
156,1115.21,9.891048179875119
157,1125.53,9.693156395201818
158,1135.94,9.849471060662175
159,1143.81,9.667006522350269
160,1154.4,9.640461588077951
161,1165.08,9.556736903939303
162,1175.86,9.098517019949169
163,1184.01,9.336163682053098
164,1194.97,8.853017898330288
165,1206.02,8.53630556474114
166,1214.38,8.397670177156952
167,1225.6200000000001,8.608473093849982
168,1234.12,8.937707406473717
169,1245.53,8.93422477341922
170,1254.17,8.758554186250873
171,1258.92541,8.630289634996796
172,1265.77,8.466830332542237
173,1274.5500000000002,8.770639159749514
174,1286.34,8.770590480338784
175,1295.26,8.304352421191737
176,1304.24,8.224486710749977
177,1316.3,8.500741800513048
178,1325.4299999999998,8.362834461834511
179,1334.61,8.085072413743713
180,1343.8700000000001,8.341587430593302
181,1356.3,8.199814270705653
182,1365.7,7.938891901200916
183,1375.17,7.961179338519015
184,1384.7,7.907995324542404
185,1394.3,7.661034117388629
186,1403.96,7.634915458940144
187,1413.7,7.575766865432044
188,1423.49,7.567989562511684
189,1433.36,7.475734324531711
190,1443.3000000000002,7.49320589337457
191,1445.43977,7.501900123713654
192,1446.6200000000001,7.509430788233064
193,1456.6499999999999,7.405010347969808
194,1463.3799999999999,7.241331931920785
195,1473.5200000000002,7.197579257517053
196,1483.73,7.188922615933023
197,1494.02,7.170207440428646
198,1504.37,7.02966986448401
199,1511.32,6.828025780154038
200,1518.29,6.893293962343978
201,1525.3,6.806752677573746
202,1535.8700000000001,6.579278933348163
203,1546.5200000000002,6.664772055202231
204,1553.66,6.56556080281144
205,1564.43,6.518868823784993
206,1575.27,6.539080677578244
207,1586.19,6.562635797451151
208,1593.51,6.546910943739582
209,1604.56,6.477209695991927
210,1615.6799999999998,6.4360754810639715
211,1623.14,6.314229692991798
212,1634.39,6.351899110443282
213,1645.72,6.31567399397442
214,1653.3200000000002,6.164959271541644
215,1659.58691,6.202149781877172
216,1664.78,6.241302401185392
217,1672.46,6.036728107500114
218,1676.32,6.203598426038503
219,1684.05,6.261740545805795
220,1695.73,6.1251903283261
221,1703.55,6.035951792308018
222,1715.36,5.909749849805006
223,1723.2800000000002,5.880036140692062
224,1735.22,5.933183473165732
225,1743.23,5.876521108267415
226,1755.32,5.935592681098794
227,1763.42,5.774757660415101
228,1775.64,5.765484508223161
229,1783.84,5.76700831444461
230,1796.2,5.834981919919866
231,1804.5,5.797845553046452
232,1817.0,5.620988916188904
233,1825.39,5.630371893530116
234,1833.82,5.539267801633387
235,1846.5300000000002,5.38366430127663
236,1855.05,5.346934553594526
237,1863.61,5.360986736674476
238,1876.53,5.444084372818512
239,1885.1899999999998,5.295028382803602
240,1893.89,5.215595323550748
241,1905.46072,5.244977525803374
242,1907.0200000000002,5.25050011718244
243,1915.82,5.170529997581881
244,1924.67,5.133904411392684
245,1933.55,5.151854345250301
246,1946.95,5.167025299494905
247,1955.9399999999998,5.062693806857517
248,1964.97,5.174725340949216
249,1974.04,5.192398901770003
250,1983.1499999999999,5.08625548931988
251,1996.9,5.0112231774440055
252,2006.1100000000001,5.036740831816603
253,2015.37,4.952608019600561
254,2024.68,5.002199740795879
255,2034.02,4.898752982038014
256,2043.4099999999999,4.939674756691508
257,2052.84,4.852194558074091
258,2067.07,4.813066566947278
259,2071.84,4.903432254391066
260,2076.61,4.823931941834854
261,2086.2,4.858295850133791
262,2095.83,4.755037785161816
263,2105.5,4.733777746918929
264,2115.22,4.725866242087403
265,2124.98,4.720926763984965
266,2134.79,4.588478819293887
267,2144.65,4.60761540801417
268,2154.55,4.63685602346354
269,2164.4900000000002,4.566268665642001
270,2174.48,4.528242841231822
271,2184.52,4.479792550233003
272,2187.7616199999998,4.491366142050259
273,2194.6,4.52186248800126
274,2204.73,4.46542811535709
275,2214.91,4.377335739886444
276,2225.13,4.319316962154616
277,2235.4,4.392637181596312
278,2245.72,4.3175333982115305
279,2256.09,4.235743612000272
280,2266.5,4.251998423527834
281,2276.96,4.269385232228918
282,2287.4700000000003,4.290601038103525
283,2292.75,4.210350939627591
284,2303.33,4.190049541545131
285,2313.96,4.103806140636195
286,2324.64,3.8192662369007824
287,2335.37,3.9738087303388925
288,2346.15,3.924732720950525
289,2356.98,3.9945402087356823
290,2362.41,3.8877111017803183
291,2373.3199999999997,3.899266385043113
292,2384.27,3.8053019660447256
293,2395.2799999999997,3.855262343654567
294,2406.33,3.7921110190032263
295,2417.44,3.8027455909601144
296,2423.0099999999998,3.8615975760906154
297,2434.2,3.7995774435251404
298,2445.4300000000003,3.8453020086984835
299,2456.72,3.8103089704800563
300,2462.38,3.7884774505228984
301,2473.75,3.728179307782108
302,2485.17,3.7318792622148402
303,2496.64,3.653563513821097
304,2502.4,3.7611664882109856
305,2511.88643,3.632482980732288
306,2513.95,3.605469090641062
307,2519.74,3.6295194300802676
308,2525.5499999999997,3.5770242515209905
309,2537.2099999999996,3.5820951584054703
310,2543.06,3.5538776438492263
311,2554.79,3.6190732377390162
312,2566.59,3.568425218634116
313,2572.5,3.6263259500824243
314,2584.38,3.5916423589835924
315,2596.31,3.5572182728885533
316,2602.29,3.510968691342171
317,2614.3,3.4815433332532004
318,2626.37,3.5161112211687815
319,2632.4199999999996,3.5534076266277097
320,2644.57,3.639665642549358
321,2656.78,3.6598008044755588
322,2662.91,3.5116961379405556
323,2675.2,3.556437527872825
324,2687.55,3.533864663809645
325,2693.7400000000002,3.471769043279193
326,2706.17,3.4951732072220816
327,2712.4100000000003,3.4204633916954217
328,2724.93,3.3980660246451384
329,2737.51,3.438317103599405
330,2743.82,3.2660757750780562
331,2756.49,3.2734481230391506
332,2762.8399999999997,3.3072273585208354
333,2775.59,3.3404740344879977
334,2781.99,3.2672435749734756
335,2794.83,3.059969719947466
336,2807.73,3.102499710926007
337,2814.2099999999996,3.2738879794175526
338,2827.2000000000003,3.3251267394029203
339,2833.71,3.2745194308967425
340,2846.79,3.2291511598889375
341,2853.3599999999997,3.170882597387311
342,2866.5299999999997,3.2777242953863337
343,2873.1299999999997,3.2776613558869823
344,2884.0315,3.250284258625614
345,2886.39,3.2453215192953353
346,2893.0499999999997,3.2314188559640646
347,2913.1,3.3232853514907914
348,2933.2999999999997,3.2518250302758247
349,2946.83,3.218261160174908
350,2967.2599999999998,3.228853719956008
351,2987.8300000000004,3.2099212507781916
352,3008.54,3.21351875264146
353,3029.3900000000003,3.1892512255458128
354,3050.39,3.1673458817084708
355,3071.54,3.155477721129434
356,3092.83,3.14607853159148
357,3107.1,3.1312103655648666
358,3128.64,3.093392481457421
359,3150.33,3.075864780608281
360,3172.17,3.0581622630174445
361,3186.81,2.976102949027983
362,3208.9,3.0046547368676544
363,3231.1400000000003,2.915761707965631
364,3253.54,2.9758310745391325
365,3268.56,3.0069378248040426
366,3291.21,2.9727084968080515
367,3306.4,2.9568198547657074
368,3311.31121,2.947493719674804
369,3321.67,2.930780269800274
370,3329.32,2.972559635434048
371,3337.0,2.93741620250168
372,3344.69,2.9030058367139313
373,3352.3999999999996,2.879363605215422
374,3360.13,2.91720550800615
375,3367.87,2.900872477941498
376,3375.64,2.798202649310704
377,3383.4199999999996,2.8090498878245294
378,3391.22,2.906708260627593
379,3399.04,2.9275397677198955
380,3406.8700000000003,2.8686723419568168
381,3414.7300000000005,2.8756781176275963
382,3422.6,2.931396960442996
383,3430.49,2.8954769375476337
384,3438.3999999999996,2.9029410489415097
385,3446.32,2.7472822274800057
386,3454.27,2.856111607452359
387,3462.23,2.7640690545693323
388,3470.21,2.820562635975543
389,3478.21,2.7255843516709937
390,3486.23,2.7829822016556824
391,3494.27,2.7644051859296095
392,3502.3199999999997,2.8169262373481567
393,3510.39,2.7874984230559416
394,3518.4900000000002,2.763550810197585
395,3526.6,2.7424012644838474
396,3534.73,2.805400853059348
397,3542.88,2.858813575924088
398,3551.04,2.849787365933447
399,3559.23,2.8188703573766642
400,3567.43,2.7884684159645006
401,3575.66,2.680765675986195
402,3583.8999999999996,2.650610003152509
403,3592.16,2.644366464608061
404,3600.4399999999996,2.7847070603528516
405,3608.74,2.692619790386881
406,3617.0600000000004,2.703968654710149
407,3625.3999999999996,2.762954653322656
408,3633.7599999999998,2.753893786224401
409,3642.13,2.796789986270766
410,3650.53,2.7146123877509885
411,3658.9500000000003,2.8322769235204497
412,3664.5899999999997,2.718420793085742
413,3667.33,2.821781190711434
414,3670.07,2.9135105883371253
415,3672.8100000000004,2.8286809859628166
416,3675.55,2.7250043835885087
417,3678.29,2.7444467812142004
418,3681.03,2.808167178839892
419,3683.77,2.6372805764655833
420,3686.51,2.6847319740912754
421,3689.25,2.7332263717169667
422,3691.99,2.6908637693426587
423,3694.73,2.6972761669683503
424,3697.47,2.771611564594042
425,3700.21,2.824495962219733
426,3702.94,2.788400292700806
427,3705.6800000000003,2.7357766903264973
428,3708.42,2.6944830879521895
429,3711.16,2.6976584855778807
430,3713.9,2.746756883203572
431,3716.64,2.8767272808292645
432,3719.38,2.9789636784549556
433,3722.12,3.0736820760806474
434,3724.8599999999997,3.4343374737063392
435,3727.6,3.824674871332031
436,3730.3399999999997,3.9825442689577226
437,3733.08,3.7770636665834143
438,3735.82,3.3728310642091057
439,3738.5600000000004,3.0359474618347972
440,3741.3,2.849258859460489
441,3744.04,2.7995162570861805
442,3746.78,2.764421654711872
443,3749.52,2.734047052337564
444,3752.26,2.7267704499632552
445,3755.0,2.7530708475889476
446,3757.74,2.8098502452146388
447,3760.48,2.8464386428403308
448,3763.22,2.8846460404660226
449,3765.96,2.846068438091714
450,3768.7,2.8148978357174057
451,3771.43,2.809637166198478
452,3774.17,2.746095563824169
453,3776.91,2.7706689614498607
454,3779.65,2.935479359075553
455,3782.39,2.952398756701245
456,3785.13,3.0125251543269362
457,3787.87,3.0253835519526278
458,3790.6099999999997,2.9906459495783198
459,3793.35,2.896818347204011
460,3796.0899999999997,2.779535744829703
461,3798.8300000000004,2.741369142455394
462,3801.57,2.7960355400810855
463,3801.8939600000003,2.796998126641239
464,3804.3100000000004,2.804662739225281
465,3807.05,2.8172220781270694
466,3809.79,3.0005794170288573
467,3812.53,3.0481437559306452
468,3815.27,3.0866270948324335
469,3818.01,3.0699704337342215
470,3820.75,2.9297827726360093
471,3823.49,2.9362251115377975
472,3826.23,2.8981434504395853
473,3828.97,2.765527789341373
474,3831.71,2.655270128243161
475,3834.45,2.6454174671449495
476,3837.1899999999996,2.6165808060467377
477,3839.93,2.6083461449485252
478,3842.66,2.70431340597111
479,3845.4,2.805865744872898
480,3848.14,2.9461260837746863
481,3850.8799999999997,3.0471294226764742
482,3853.62,3.054503761578262
483,3856.3599999999997,3.11328810048005
484,3859.1,3.228612439381838
485,3861.84,3.273295778283626
486,3864.5800000000004,3.3091731171854137
487,3867.32,3.542760456087202
488,3870.06,3.58107979498899
489,3872.8,3.530955133890778
490,3875.54,3.396939472792566
491,3878.28,3.277134811694354
492,3881.02,3.123450150596142
493,3883.7599999999998,3.00158848949793
494,3886.5,2.9463058283997183
495,3889.24,2.845677167301506
496,3891.98,2.8657815062032945
497,3894.72,2.8740888451050823
498,3897.46,2.91731818400687
499,3900.2,2.9815065229086586
500,3902.9399999999996,3.0046548618104465
501,3905.6800000000003,3.0610252007122343
502,3908.42,3.1581325396140225
503,3911.15,3.139212800636607
504,3913.89,3.1767641395383945
505,3916.6299999999997,3.198266478440183
506,3919.37,3.1418868173419705
507,3922.1099999999997,3.083669156243759
508,3924.85,3.078946495145547
509,3927.59,2.931762834047335
510,3930.3300000000004,2.892419172949123
511,3933.07,2.752725511850911
512,3935.81,2.6187108507526986
513,3938.55,2.6408721896544867
514,3941.29,2.752546528556275
515,3944.03,2.874838867458063
516,3946.77,2.939384206359851
517,3949.5099999999998,2.9952595452616393
518,3952.25,3.0769228841634266
519,3954.99,3.138094223065215
520,3957.73,3.115484561967003
521,3960.47,3.089555900868791
522,3963.2099999999996,3.0283752397705794
523,3965.95,2.9022065786723674
524,3968.69,2.7996019175741553
525,3971.4300000000003,2.6851742564759427
526,3974.17,2.7071435953777314
527,3976.9100000000003,2.850942934279519
528,3979.65,2.9392442731813073
529,3982.3799999999997,3.0372985342038916
530,3985.12,3.1489458731056796
531,3987.8599999999997,3.208251212007468
532,3990.6000000000004,3.2627565509092555
533,3993.34,3.349987889811044
534,3996.0800000000004,3.3861952287128316
535,3998.82,3.3800725676146195
536,4001.56,3.425606906516408
537,4004.3,3.433502245418196
538,4007.04,3.408889584319984
539,4009.78,3.4228759232217714
540,4012.52,3.4830872621235596
541,4015.2599999999998,3.5054126010253484
542,4018.0,3.492129939927136
543,4020.74,3.585671278828924
544,4023.48,3.548577617730712
545,4026.22,3.5615489566325005
546,4028.9599999999996,3.515565295534288
547,4031.7,3.477950634436076
548,4034.44,3.423627973337864
549,4037.1800000000003,3.447215312239652
550,4039.92,3.5035586511414403
551,4042.6600000000003,3.491482990043228
552,4045.4,3.468242328945016
553,4048.14,3.433644667846804
554,4050.88,3.435697006748592
555,4053.61,3.465472267771177
556,4056.3500000000004,3.4227536066729645
557,4059.09,3.3951789455747527
558,4061.8300000000004,3.3652992844765404
559,4064.57,3.3224716233783287
560,4067.31,3.3698989622801165
561,4070.05,3.367589301181905
562,4072.79,3.4127666400836922
563,4075.53,3.3402839789854806
564,4078.27,3.3266453178872686
565,4081.0099999999998,3.314460656789057
566,4083.75,3.297885995690845
567,4086.49,3.269131334592633
568,4089.23,3.257000673494421
569,4091.97,3.257682012396209
570,4094.7099999999996,3.201110351297997
571,4097.45,3.0996856901997853
572,4100.1900000000005,3.0017180291015726
573,4102.93,3.0215193680033607
574,4105.67,3.0025867069051486
575,4108.41,3.029356045806937
576,4111.15,3.0302843847087253
577,4113.89,3.116747723610513
578,4116.63,3.150842062512301
579,4119.37,3.150755401414089
580,4122.11,3.224188740315877
581,4124.84,3.211387001338461
582,4127.58,3.1786263402402493
583,4130.32,3.176948679142037
584,4133.06,3.186463018043825
585,4135.8,3.1830843569456135
586,4138.54,3.2532256958474015
587,4141.28,3.3180170347491895
588,4144.0199999999995,3.2832823736509775
589,4146.76,3.290080712552765
590,4149.5,3.2551540514545536
591,4152.24,3.2259323903563417
592,4154.98,3.16362772925813
593,4157.719999999999,3.226033068159918
594,4160.46,3.2499224070617054
595,4163.2,3.294303745963494
596,4165.9400000000005,3.2912810848652816
597,4168.68,3.2560254237670696
598,4171.42,3.2920947626688575
599,4174.16,3.2724751015706457
600,4176.9,3.263527440472434
601,4179.64,3.249751779374222
602,4182.38,3.2950931182760095
603,4185.12,3.311410457177798
604,4187.86,3.285728796079586
605,4190.599999999999,3.349067134981374
606,4193.33,3.340517396003958
607,4196.07,3.3231207349057463
608,4198.81,3.3430320738075343
609,4201.55,3.312247412709322
610,4204.29,3.30093975161111
611,4207.03,3.3516310905128988
