,lambda (Angstroms),Total Flux (erg/s/cm^2/Angstrom)
0,100.03,0.6528978896403135
1,101.89,0.651081695876751
2,104.03,0.6489920965193989
3,104.712855,0.6483253239512612
4,105.96,0.6419285421072071
5,107.93,0.6318241355259799
6,109.94,0.6215145639559945
7,114.05999999999999,0.6003825059203396
8,118.07,0.5798146534580936
9,120.22644299999999,0.5687539604807776
10,121.1,0.5649974531285176
11,125.07000000000001,0.5479254813775949
12,127.10000000000001,0.5391959847505617
13,127.98,0.5354117698116304
14,130.96,0.5225970412744165
15,131.87,0.518683820967844
16,134.01,0.5094812982742134
17,137.13,0.4960645395912006
18,138.038426,0.49215808674727435
19,140.0,0.4861287126064893
20,142.94,0.4770919297120618
21,146.94,0.46479698643515815
22,151.06,0.45213318006353376
23,154.93,0.44023781499031084
24,158.489319,0.4292974049639957
25,158.91,0.42831982673566155
26,161.85999999999999,0.4214646227596568
27,166.01000000000002,0.41182086419780606
28,169.88,0.40282777640411277
29,173.04,0.3954845851021651
30,177.07,0.3861196989208389
31,179.95000000000002,0.37942718230754857
32,181.970086,0.3747329261329614
33,182.03,0.3746267090403903
34,185.84,0.3678722529122182
35,191.05,0.35863584345128074
36,194.15,0.3531401012475932
37,198.22,0.3459247301697718
38,201.9,0.3394007772062743
39,205.18,0.3335859404663527
40,208.929613,0.3269385684578151
41,209.96,0.32556524690890676
42,215.85,0.31771501000349
43,219.85999999999999,0.3123704436453167
44,222.92,0.3082920407199525
45,227.06,0.30277422957134204
46,230.22,0.29856381679510313
47,233.96,0.2935811043749913
48,239.88329199999998,0.28568780086869794
49,239.96,0.28560903376222835
50,246.11999999999998,0.2792823778568922
51,251.85,0.2733978093706931
52,257.12,0.2679841518072918
53,260.09999999999997,0.2649246690089929
54,263.71999999999997,0.26120718032893164
55,269.24,0.25553799154935763
56,274.25,0.25039262432201603
57,275.42287,0.24918806259190993
58,278.7,0.24660511768692353
59,283.89,0.24251450295093321
60,289.83,0.23783232839344146
61,295.90000000000003,0.23304830663115605
62,300.71,0.22925681512379317
63,307.71,0.223739733366446
64,316.227766,0.21702639313189287
65,317.79,0.21610678259873986
66,328.20000000000005,0.20997857943581877
67,338.18,0.20410347328167353
68,347.65,0.19852855457723906
69,357.39,0.19279465608589882
70,363.078055,0.18944618613321818
71,365.72,0.1882814963567702
72,375.1,0.184146160501401
73,384.71999999999997,0.17990462402983906
74,394.59000000000003,0.17555361519015952
75,404.71,0.17109203630236255
76,414.14,0.16693452734736988
77,416.86938299999997,0.1657311845952296
78,421.84,0.1640576756315159
79,429.68,0.16141801483498872
80,440.7,0.1577078847004314
81,450.96999999999997,0.15425011469597552
82,460.40999999999997,0.15107172556056525
83,470.04999999999995,0.1478260864277946
84,478.630092,0.14493729946932077
85,479.89,0.14461106365833185
86,489.94000000000005,0.14200861471041665
87,500.20000000000005,0.13935201664753008
88,505.99,0.1378555485804625
89,511.85,0.1363507248184045
90,520.17,0.13419634834811053
91,529.84,0.13169262902585777
92,539.69,0.12914080256934388
93,549.5408739999999,0.12659452719728234
94,549.72,0.12655922688466617
95,559.94,0.12454489420101816
96,570.35,0.12249130636459199
97,579.62,0.12065895879483496
98,590.4,0.118534017481946
99,599.99,0.11663954282119408
100,609.74,0.1147177596849448
101,619.65,0.11276684490319808
102,629.71,0.11078216066504752
103,630.957344,0.1105359543235087
104,639.9499999999999,0.1091291329521057
105,650.3399999999999,0.10750662336497963
106,657.87,0.10632939156314523
107,665.49,0.10514005426953593
108,674.7499999999999,0.10369261534247268
109,685.7099999999999,0.10197514628743881
110,695.25,0.10049386850929803
111,704.93,0.0989744312906185
112,716.3799999999999,0.09719552629369904
113,724.43596,0.09593663625529529
114,726.35,0.09571477940715242
115,734.76,0.09474112198373423
116,744.9799999999999,0.09356064851080512
117,755.34,0.09236157664509612
118,765.85,0.09114471832998015
119,774.72,0.09012209380171388
120,785.4899999999999,0.0888788315142925
121,794.59,0.08782641538360215
122,805.64,0.08654716571062106
123,814.97,0.0854676726775067
124,824.41,0.08438136672149389
125,831.763771,0.08351686801260295
126,835.88,0.08315380191801361
127,845.5600000000001,0.08233790397489052
128,855.35,0.08149404605741374
129,865.25,0.0806445221655833
130,875.27,0.07978420279263976
131,885.41,0.07891501513858312
132,895.6600000000001,0.0780342762101728
133,906.0300000000001,0.07713805630064939
134,914.41,0.07651413933625151
135,925.0,0.07718355437802076
136,935.71,0.0783734352386769
137,944.3699999999999,0.08152265698501512
138,954.992586,0.0834387695393819
139,955.3100000000001,0.08349662074757047
140,964.15,0.08528060905260693
141,975.3100000000001,0.07451368241959862
142,984.3399999999999,0.08502839110901934
143,995.7299999999999,0.08399135430973938
144,1004.95,0.08616119738354434
145,1014.25,0.08318658935603744
146,1025.99,0.07279895173851797
147,1035.48,0.07835055709539532
148,1045.06,0.0857623352132968
149,1054.73,0.08522935209222242
150,1064.49,0.08193688773217216
151,1074.34,0.08336862213314604
152,1084.28,0.08008444529514402
153,1094.32,0.08220529708050217
154,1096.4782,0.08189752127203462
155,1104.44,0.0808847880925558
156,1114.6599999999999,0.08007706346721277
157,1124.98,0.07797574832694462
158,1135.38,0.07966203477473643
159,1145.8899999999999,0.07743185465611069
160,1153.83,0.07754248977105943
161,1164.51,0.07738570677706103
162,1175.29,0.07233145326813753
163,1186.16,0.07472239529578148
164,1194.38,0.06978131096894001
165,1205.43,0.06549422406971882
166,1213.79,0.058513999021982246
167,1225.02,0.0650526691958959
168,1236.35,0.0697839228548845
169,1244.92,0.07110674672580523
170,1256.44,0.07030513540643617
171,1258.92541,0.06962179294306822
172,1265.1499999999999,0.0680347917240788
173,1273.92,0.07082572123492213
174,1285.7099999999998,0.07102276728199661
175,1294.62,0.06831259994352618
176,1303.6000000000001,0.06753424918039883
177,1315.6599999999999,0.06964246773236815
178,1324.7800000000002,0.068662540119927
179,1333.9599999999998,0.06704076528635142
180,1346.3,0.06828267013969314
181,1355.6399999999999,0.06739384604975893
182,1365.0300000000002,0.06569739094221261
183,1374.4899999999998,0.06578348241000945
184,1384.02,0.06556854045314936
185,1393.6200000000001,0.06344819507163238
186,1406.51,0.06329332873124138
187,1416.26,0.0632053702968882
188,1426.0800000000002,0.06271780843787814
189,1435.96,0.06212868935773359
190,1442.59,0.06255817642237342
191,1445.43977,0.06254917716281824
192,1445.92,0.06255485678094905
193,1455.94,0.061950868151792654
194,1466.0300000000002,0.06064853503121499
195,1476.19,0.0601502174192161
196,1486.43,0.059843428959878625
197,1493.29,0.059753378800595905
198,1503.6399999999999,0.0589083904261679
199,1510.58,0.057455929419546595
200,1517.55,0.05790522934517333
201,1524.5600000000002,0.057244783847130776
202,1535.1200000000001,0.055421411998439
203,1545.76,0.05610261930240866
204,1556.48,0.05489503575903974
205,1563.66,0.054646492210402714
206,1574.5,0.05519677239602594
207,1585.4199999999998,0.05527573173431059
208,1596.41,0.05536169658117397
209,1603.77,0.054409758626025165
210,1614.8899999999999,0.05393387084596338
211,1626.08,0.05287577857448034
212,1633.5900000000001,0.05328626528057169
213,1644.91,0.053076450382163465
214,1656.32,0.05135111828049935
215,1659.58691,0.051885537753689
216,1663.9599999999998,0.05264629350350934
217,1671.64,0.050818050309449164
218,1675.49,0.052321186130135144
219,1683.23,0.052647187442371374
220,1694.9,0.05143826391702211
221,1706.64,0.05070609231568533
222,1714.52,0.05025124747594651
223,1726.4099999999999,0.04978891714035075
224,1734.38,0.05038991906005652
225,1746.3999999999999,0.04965353515476963
226,1754.4599999999998,0.05026651383392002
227,1766.6200000000001,0.04851405377665807
228,1774.77,0.04905326921525307
229,1782.97,0.048943011742428405
230,1795.33,0.049413930039487804
231,1803.61,0.049028941908391674
232,1816.11,0.048050394053476025
233,1824.5,0.04780232751725663
234,1832.92,0.04720517323418545
235,1845.6200000000001,0.04572581373359115
236,1854.1399999999999,0.04572304362768065
237,1867.0,0.04578317281054342
238,1875.6100000000001,0.046169699464077514
239,1884.2700000000002,0.04515652320619195
240,1892.97,0.04457711661917066
241,1905.46072,0.0446643251158584
242,1906.09,0.04467279727119606
243,1914.8899999999999,0.04431047108558355
244,1923.7299999999998,0.04390870382640007
245,1937.06,0.04355088855887566
246,1946.0,0.04438277361576476
247,1954.98,0.043475007599082904
248,1968.54,0.04410952365852544
249,1977.62,0.04412026995791616
250,1982.18,0.04340345757082604
251,1995.9199999999998,0.042747213799199234
252,2005.1299999999999,0.042624139109484316
253,2014.39,0.04225645557780569
254,2023.6899999999998,0.04221284097255611
255,2033.0300000000002,0.041924975293735546
256,2047.1200000000001,0.042042009628362784
257,2056.57,0.041266618497222074
258,2066.06,0.0411376162925104
259,2075.6,0.04178423524583502
260,2080.38,0.041491451954104586
261,2085.1800000000003,0.041572393125588664
262,2094.8,0.040746739931771345
263,2104.47,0.04057484789599033
264,2114.19,0.0405228270182456
265,2123.94,0.040471542835322644
266,2133.75,0.03930794204204324
267,2143.6,0.03967980017519287
268,2153.4900000000002,0.039663647234771525
269,2163.4300000000003,0.03893432545238648
270,2173.42,0.038679274828037735
271,2183.4500000000003,0.03857844313011802
272,2187.7616199999998,0.038755146603374736
273,2193.5299999999997,0.03902472045081827
274,2203.65,0.03842799826821046
275,2213.82,0.03761702474082691
276,2224.04,0.037271159868667636
277,2234.31,0.03817623365173264
278,2244.62,0.03735884635897705
279,2254.98,0.03671482772144573
280,2265.39,0.03658947773913869
281,2275.85,0.036870816412055904
282,2286.35,0.037162204009152544
283,2296.91,0.03624719999251831
284,2307.51,0.036339004900063476
285,2312.83,0.03590740181592578
286,2323.5,0.03368205484078493
287,2334.23,0.03486889625191321
288,2345.0,0.0338683765872209
289,2355.83,0.03502567530879772
290,2366.7,0.033702772954553956
291,2377.62,0.034136449255534454
292,2383.1,0.03280184186811441
293,2394.11,0.03343446574849861
294,2405.16,0.03294363855306221
295,2416.26,0.03296977001285008
296,2427.4100000000003,0.03377086012786222
297,2433.0099999999998,0.03326044951298043
298,2444.2400000000002,0.0337752774763514
299,2455.52,0.03346400409494665
300,2466.85,0.03315389936876617
301,2472.54,0.03258100633328806
302,2483.9500000000003,0.0324750394554664
303,2495.42,0.03187984096391387
304,2506.9399999999996,0.03304772112758562
305,2511.88643,0.031757384264358146
306,2512.71,0.03154507087265036
307,2518.5099999999998,0.0313342667389415
308,2524.31,0.03084878260523262
309,2535.96,0.030957846284938074
310,2547.67,0.030882162301191368
311,2553.5400000000004,0.031857450893454965
312,2565.33,0.03135594002510539
313,2577.1699999999996,0.031945081103879
314,2583.11,0.03175580242211508
315,2595.0299999999997,0.031446896616285816
316,2607.01,0.03081616314700438
317,2613.02,0.03050722719121295
318,2625.0800000000004,0.031140786837328634
319,2637.2000000000003,0.03163954881999216
320,2643.28,0.03303131559017321
321,2655.48,0.03353786068823386
322,2667.7400000000002,0.03196100812284234
323,2673.89,0.03248966761899587
324,2686.23,0.03264083816900147
325,2692.4199999999996,0.03152259922285355
326,2704.85,0.031949613277680915
327,2717.33,0.03080815927963148
328,2723.6,0.030546953448880684
329,2736.17,0.031195662955653007
330,2742.48,0.029144918682600766
331,2755.14,0.02953502169419485
332,2767.85,0.03017784665291213
333,2774.2299999999996,0.030672335105832373
334,2787.04,0.029439013958796046
335,2793.46,0.02619049396941485
336,2806.36,0.026911816327200282
337,2812.83,0.030215838284942287
338,2825.8100000000004,0.030922373758124837
339,2832.33,0.03049927766299004
340,2845.4,0.029643476640994353
341,2851.96,0.02859088210355811
342,2865.12,0.03030941458638419
343,2871.73,0.030652571996071146
344,2884.0315,0.03040292673622584
345,2884.9799999999996,0.0303861748134321
346,2898.2999999999997,0.03044823707136318
347,2911.68,0.03187504960973539
348,2931.86,0.03102939726476911
349,2952.18,0.030589058907498804
350,2972.65,0.030687171251331323
351,2993.25,0.03067015086945296
352,3007.07,0.030737648797726797
353,3027.91,0.030720989537612965
354,3048.9,0.030784620978601955
355,3070.03,0.030727516407286916
356,3091.31,0.030589982537074706
357,3112.74,0.03069426936796532
358,3127.11,0.03023776653361619
359,3148.7900000000004,0.030096751199678185
360,3170.6099999999997,0.030318539853436157
361,3192.59,0.02930191592170381
362,3207.33,0.02987830148340832
363,3229.5600000000004,0.028908265386847348
364,3251.94,0.03024603999138921
365,3266.96,0.031047353528485665
366,3289.6,0.030769042681605754
367,3311.31121,0.030421993339263178
368,3312.3999999999996,0.03040659911284442
369,3320.0400000000004,0.0296950812958391
370,3327.6899999999996,0.02974291865184818
371,3335.36,0.030823286353886037
372,3343.05,0.029422884401952676
373,3350.7599999999998,0.029845492796048097
374,3358.48,0.029767476363157908
375,3366.23,0.028473345449310898
376,3373.9900000000002,0.027266289708478268
377,3381.7599999999998,0.028717449140660038
378,3389.56,0.029749894091884978
379,3397.37,0.02884584421612431
380,3405.2,0.02946639468639242
381,3413.05,0.02909862550268931
382,3420.92,0.02947714666501499
383,3428.81,0.02973739817336945
384,3436.71,0.029872074854738296
385,3444.64,0.02727172705515032
386,3452.58,0.030680284428576732
387,3460.53,0.029168306975017537
388,3468.51,0.02938280504050151
389,3476.5099999999998,0.029219353452014273
390,3484.52,0.02952167703654142
391,3492.5499999999997,0.02922878096709735
392,3500.61,0.028366950416696457
393,3508.6699999999996,0.029366219866295562
394,3516.7599999999998,0.028052804834937838
395,3524.87,0.028827850149608897
396,3533.0,0.029598085810308736
397,3541.14,0.03022289664402297
398,3549.3,0.03068608782376598
399,3557.49,0.029835014522552168
400,3565.69,0.030748626394352746
401,3573.9100000000003,0.027433748612182104
402,3582.15,0.027749201176040246
403,3590.4,0.02615829891291278
404,3598.6800000000003,0.029163022168828483
405,3606.98,0.028613735770772974
406,3615.29,0.028743724545731847
407,3621.47,0.029240291468625456
408,3624.21,0.028202148874568574
409,3626.96,0.02612759145352609
410,3629.7000000000003,0.021529018859469208
411,3632.45,0.03139494143842672
412,3635.1899999999996,0.02874615884436984
413,3637.94,0.025040171423327345
414,3640.68,0.021027298829270468
415,3643.42,0.02064001623521359
416,3646.17,0.020586088814171098
417,3648.9100000000003,0.02138340622011422
418,3651.66,0.024917288799071728
419,3654.4,0.03037274620501485
420,3657.15,0.02749048878397236
421,3659.89,0.03120209618991548
422,3662.64,0.031637468768872995
423,3665.3799999999997,0.031626186174816114
424,3668.13,0.02999559875377362
425,3670.87,0.02855881615971674
426,3673.61,0.032603903565659856
427,3676.36,0.03149759614461737
428,3679.1000000000004,0.030055153550560487
429,3681.85,0.027994746129518
430,3684.5899999999997,0.029690453535461125
431,3687.34,0.03185927611441863
432,3690.08,0.03170063352036175
433,3692.83,0.03297486609931927
434,3695.57,0.03237695350526239
435,3698.32,0.031546486084219894
436,3701.06,0.032350443490163014
437,3703.81,0.027871716069120527
438,3706.55,0.02763181347506364
439,3709.29,0.029443710881006765
440,3712.04,0.02899300345996428
441,3714.7799999999997,0.030531900865907395
442,3717.53,0.03164082344486491
443,3720.27,0.03966671085080802
444,3723.0200000000004,0.04417826342976554
445,3725.76,0.06319718083570866
446,3728.5099999999998,0.08674160341466616
447,3731.25,0.09081045082060929
448,3734.0,0.0791238133995668
449,3736.7400000000002,0.05152671080550992
450,3739.48,0.04004162821145304
451,3742.2299999999996,0.03021137079041055
452,3744.9700000000003,0.030647858196353663
453,3747.72,0.02802632077531118
454,3750.46,0.0267709081812543
455,3753.21,0.030958480760211807
456,3755.9500000000003,0.031975928166154924
457,3758.7,0.03215814074511244
458,3761.4399999999996,0.034243058151055564
459,3764.19,0.03067969073001307
460,3766.93,0.03363557813595619
461,3769.6800000000003,0.0312124207149137
462,3772.42,0.03096024812085682
463,3775.1600000000003,0.03475783552679994
464,3777.91,0.03160160810575745
465,3780.6499999999996,0.036410925511700575
466,3783.4,0.03748298809065808
467,3786.14,0.038941615496601203
468,3788.89,0.03560778807555871
469,3791.6299999999997,0.036071675481501836
470,3794.38,0.03136148806045934
471,3797.12,0.03145506546640246
472,3799.8700000000003,0.03174306804535997
473,3801.8939600000003,0.02999164637796299
474,3802.61,0.029372956386448552
475,3805.35,0.03362848611055625
476,3808.1,0.03595486400883952
477,3810.8399999999997,0.03614458373294722
478,3813.59,0.03661470163123049
479,3816.33,0.038281871355338185
480,3819.0800000000004,0.035693179253621456
481,3821.82,0.04009796897772915
482,3824.5699999999997,0.03681683687601242
483,3827.31,0.03719738660012012
484,3830.06,0.031137084498403394
485,3832.8,0.031857694222511085
486,3835.54,0.029171853946618784
487,3838.29,0.029483281844902058
488,3841.03,0.02998945156900975
489,3843.78,0.03147508946729302
490,3846.52,0.03417476919140072
491,3849.27,0.03938328708968399
492,3852.01,0.037947256813791685
493,3854.7599999999998,0.038550564712074964
494,3857.5,0.03968211443618266
495,3860.25,0.03771973233446593
496,3862.9900000000002,0.03193921205857363
497,3865.74,0.0401564599568569
498,3868.4800000000005,0.038629749680964595
499,3871.2200000000003,0.042950479405072295
500,3873.97,0.03884275730335556
501,3876.71,0.03948875702746326
502,3879.46,0.03585338492574653
503,3882.2000000000003,0.03771798464985422
504,3884.95,0.0311041125481375
505,3887.6899999999996,0.03283172227224519
506,3890.44,0.03271522017052846
507,3893.18,0.035441339894636166
508,3895.9300000000003,0.03516328779291943
509,3898.67,0.031344817517027126
510,3901.4100000000003,0.03903135724113482
511,3904.16,0.0394325051394181
512,3906.8999999999996,0.041391584863525795
513,3909.65,0.03866685276180907
514,3912.39,0.04019705248591676
515,3915.14,0.041275520384200036
516,3917.88,0.03876258010830773
517,3920.63,0.035686448006591
518,3923.37,0.0361236577306987
519,3926.1200000000003,0.037647075628981966
520,3928.86,0.03586339535308967
521,3931.6099999999997,0.03353355325137294
522,3934.35,0.030275262975480634
523,3937.0899999999997,0.027997512699588334
524,3939.84,0.0326713805978716
525,3942.58,0.0339795703219793
526,3945.3300000000004,0.03643253822026257
527,3948.07,0.03576922794437026
528,3950.8199999999997,0.03724540584265354
529,3953.56,0.03853471556676123
530,3956.31,0.03785045346504451
531,3959.05,0.03515518318915221
532,3961.7999999999997,0.03191752108743548
533,3964.5399999999995,0.032466200811543174
534,3967.28,0.03022341053565087
535,3970.0299999999997,0.02926144843393414
536,3972.77,0.029593798158041838
537,3975.52,0.030886726056325108
538,3978.26,0.0325973357804328
539,3981.0099999999998,0.03453545367871608
540,3983.75,0.03874092340282377
541,3986.5,0.03922331130110704
542,3989.24,0.03999495102521474
543,3991.9900000000002,0.03811191892349801
544,3994.73,0.041661798647605705
545,3997.48,0.04036066654588898
546,4000.22,0.03993164626999668
547,4002.96,0.04173957599410437
548,4005.71,0.042515743892387645
549,4008.4500000000003,0.04053181361649534
550,4011.2,0.04041151151477862
551,4013.9399999999996,0.04179718123888631
552,4016.69,0.04133962913716958
553,4019.43,0.04307009886127728
554,4022.1800000000003,0.041631046759560544
555,4024.92,0.04475960648366824
556,4027.67,0.042057554381951516
557,4030.41,0.04222744410605921
558,4033.1499999999996,0.04153486383016691
559,4035.9,0.040641821728450184
560,4038.64,0.04217675145255788
561,4041.3900000000003,0.04383239935084114
562,4044.13,0.045573269074948845
563,4046.88,0.041693206973232116
564,4049.62,0.044525156697339814
565,4052.3700000000003,0.04282820459562309
566,4055.11,0.04294236431973078
567,4057.8599999999997,0.045847792218014057
568,4060.6,0.04426063194212175
569,4063.35,0.04058083984040502
570,4066.09,0.04281197956451272
571,4068.83,0.043289839288620416
