,lambda (Angstroms),Total Flux (erg/s/cm^2/Angstrom)
0,102.06,33.85159232370342
1,103.96000000000001,33.75510789103027
2,104.712855,33.716876950210036
3,105.89,33.40287747679891
4,108.11,32.810699936249975
5,110.11999999999999,32.274539190089584
6,113.99,31.242229693758745
7,118.0,30.17257566787485
8,120.22644299999999,29.578679479187674
9,121.02,29.401209142799026
10,124.99,28.51336210002353
11,127.02,28.059374821266367
12,127.89999999999999,27.862572454197668
13,130.88,27.19612807470397
14,132.09,26.92552482031396
15,133.93,26.51402896205752
16,137.05,25.816275116249727
17,138.038426,25.59522446146669
18,139.92,25.29444819908606
19,142.85,24.826077344171427
20,146.85,24.18666323266413
21,150.96,23.529665206309033
22,154.84,22.909433500527786
23,158.489319,22.326076971108247
24,159.17000000000002,22.243815175431212
25,162.13000000000002,21.88609267277252
26,165.91000000000003,21.42927138227169
27,170.17000000000002,20.91444103791607
28,172.93,20.580888998747888
29,176.96,20.093854683154667
30,179.82999999999998,19.74700891798354
31,181.92,19.49442785615966
32,181.970086,19.48837485386443
33,186.15,19.102992345398743
34,190.92999999999998,18.662282745008742
35,194.03,18.376466910569587
36,198.09,18.002140376901345
37,201.78,17.66192739204434
38,205.06,17.35951583995689
39,208.929613,17.002742758823455
40,209.83,16.940331307250517
41,216.21,16.498093835729133
42,220.23000000000002,16.219442663626076
43,222.78,16.042686341609798
44,226.92000000000002,15.755717301682353
45,230.08,15.536679892101759
46,233.81,15.27813449488031
47,239.81,14.862240576049825
48,239.88329199999998,14.857160257406651
49,245.96,14.532569285387895
50,252.26999999999998,14.195518682462708
51,256.96,13.944997592100325
52,259.94,13.785822071169239
53,264.15999999999997,13.56041009459119
54,269.07,13.298140717018056
55,274.08,13.03052975631549
56,275.42287,12.958799887719808
57,279.17,12.805190778995403
58,283.71,12.619079297381136
59,290.32,12.348108863223201
60,295.71,12.127153463932931
61,301.21,11.901687308530004
62,308.23,11.613911920186704
63,316.227766,11.286054740790018
64,318.32,11.221994633500344
65,328.0,10.925611686346649
66,337.96,10.620655255925241
67,348.23,10.306206992014578
68,357.16999999999996,10.032481548665546
69,363.078055,9.851588801612243
70,366.33,9.777023464813768
71,374.85999999999996,9.58143466526822
72,385.36,9.340671535062556
73,395.25,9.113901259592463
74,405.39,8.881396585432709
75,413.88,8.686724705286705
76,416.86938299999997,8.618179289931032
77,421.57,8.535869772873879
78,430.40000000000003,8.3812528136325
79,441.44000000000005,8.187939958400696
80,450.67999999999995,8.026144255226253
81,460.11999999999995,7.860845675945436
82,469.75000000000006,7.692221386678561
83,478.630092,7.536728606295919
84,479.59000000000003,7.523801656607785
85,489.63,7.388591513478545
86,499.89,7.250421991608027
87,505.67,7.172584208432627
88,511.53,7.093697123487673
89,519.84,6.981788982337575
90,529.51,6.85156530890503
91,540.59,6.702346224171567
92,549.38,6.583995112704136
93,549.5408739999999,6.581828947346929
94,559.59,6.478612780213501
95,569.99,6.371789967374924
96,580.59,6.262889949443296
97,590.03,6.1659447595313575
98,599.61,6.067534288084283
99,609.36,5.9673894941231165
100,620.68,5.851152835196512
101,629.32,5.762419860856768
102,630.957344,5.745601018996398
103,639.54,5.675714823568946
104,649.9399999999999,5.591068307387338
105,657.46,5.5298556999006365
106,665.0699999999999,5.467913574689097
107,674.33,5.392518749955472
108,685.2800000000001,5.303342415399836
109,694.82,5.225800848666707
110,704.48,5.147109152833792
111,715.9300000000001,5.054009281129042
112,724.43596,4.984783045387708
113,725.89,4.976001082192431
114,734.3,4.925212855627797
115,744.51,4.8636222356161545
116,754.87,4.801087043925595
117,765.3699999999999,4.737685931401379
118,774.23,4.684287014499992
119,785.0,4.619305121153724
120,794.0899999999999,4.564466729811332
121,805.14,4.497778846797751
122,814.46,4.441543923014351
123,825.79,4.37327111833346
124,831.763771,4.336952292759738
125,835.35,4.320623917960953
126,845.03,4.27742907360486
127,854.8100000000001,4.23335322365831
128,864.71,4.188864986203214
129,874.7199999999999,4.143883499698617
130,884.8499999999999,4.098420712685473
131,895.1,4.052356660163782
132,905.46,4.0056247355925905
133,915.9499999999999,3.9600633440538076
134,924.42,3.9530551672422254
135,935.13,3.9500122576044396
136,945.96,3.9783334964581067
137,954.71,4.0092630947932495
138,954.992586,4.008810654218981
139,965.76,3.9926222630228314
140,974.7,3.7332181508397584
141,985.99,3.867262276069413
142,995.11,3.8447973115605074
143,1004.3199999999999,3.924327835888685
144,1015.95,3.863807571169542
145,1025.35,3.6217527608204505
146,1034.8300000000002,3.678348951659876
147,1044.41,3.8799187189849507
148,1054.07,3.8326278874985444
149,1063.8300000000002,3.6881774324977847
150,1076.14,3.716173327881049
151,1086.1,3.574690225851586
152,1096.15,3.662741312659205
153,1096.4782,3.6605920480140495
154,1103.75,3.618798825868292
155,1113.96,3.5673464190411472
156,1124.27,3.483945222920886
157,1134.67,3.5733798364368208
158,1145.1699999999998,3.4885569606596407
159,1155.77,3.4893433955893425
160,1163.78,3.4823683532107497
161,1174.55,3.2666502063421556
162,1185.4199999999998,3.397464670180445
163,1193.6299999999999,3.193950849215621
164,1204.68,3.0443448323263005
165,1215.82,2.9139869250731776
166,1224.25,3.088582427663497
167,1235.58,3.2606318407534536
168,1244.1399999999999,3.296407357262723
169,1255.66,3.2286504906957574
170,1258.92541,3.1842696771397625
171,1264.36,3.11605546286858
172,1276.06,3.2589902943335454
173,1284.8999999999999,3.278169331440409
174,1293.81,3.093192029248344
175,1305.78,3.0608634091317324
176,1314.83,3.202725728341813
177,1323.95,3.149133208252965
178,1336.1999999999998,3.035697630940644
179,1345.46,3.147458432253941
180,1354.79,3.103199794268311
181,1364.18,2.9983490225978864
182,1373.63,3.0157793172426666
183,1386.3400000000001,2.9968450816802488
184,1395.95,2.870793286498909
185,1405.6299999999999,2.876926952018642
186,1415.37,2.879386783853579
187,1425.18,2.8776079763895885
188,1435.06,2.853797929626671
189,1441.6899999999998,2.8807817074568187
190,1445.43977,2.879368053528208
191,1448.34,2.8805348206239847
192,1455.03,2.8501981756018395
193,1465.1100000000001,2.77468425126354
194,1475.27,2.7613829259384293
195,1485.4899999999998,2.760058724873209
196,1495.79,2.758932422821177
197,1506.16,2.702393232405684
198,1513.11,2.6121557591764004
199,1516.6,2.6556153536267315
200,1523.6,2.6255039172806898
201,1534.1599999999999,2.5196934870215193
202,1544.79,2.558093768398888
203,1555.5,2.507924648789445
204,1566.28,2.507454940816541
205,1573.51,2.541924414133416
206,1584.42,2.559777542056943
207,1595.3999999999999,2.55862808161701
208,1606.46,2.528473220190264
209,1613.88,2.521909753663461
210,1625.0600000000002,2.4667432407564975
211,1636.33,2.4952695142393715
212,1643.88,2.4975115836089983
213,1655.28,2.423803192988303
214,1659.58691,2.4420788431298326
215,1666.75,2.4763400354125853
216,1670.5900000000001,2.390669183367801
217,1678.3000000000002,2.472708531996632
218,1686.05,2.496729017583331
219,1693.8300000000002,2.4403494558884287
220,1705.57,2.3988659530223435
221,1713.45,2.353066933722109
222,1725.32,2.3364412259690908
223,1733.2900000000002,2.3779993648240563
224,1745.3,2.3487415364235726
225,1753.36,2.3909967334337385
226,1765.5100000000002,2.314530484385788
227,1773.6599999999999,2.323506439551155
228,1785.96,2.325942254095205
229,1794.2,2.369961767415772
230,1806.6399999999999,2.3503794613123565
231,1814.97,2.2785256327881234
232,1823.35,2.289722825461224
233,1835.99,2.2466715041471423
234,1844.47,2.1762059392149107
235,1852.98,2.172066727001079
236,1865.82,2.1811001904763305
237,1874.44,2.2308020048966326
238,1883.0900000000001,2.1593086720353347
239,1896.14,2.1159644045393877
240,1904.8899999999999,2.1509024140727573
241,1905.46072,2.148502155823964
242,1913.69,2.116666403227828
243,1926.95,2.0926252771542724
244,1935.8500000000001,2.109866089518176
245,1944.7800000000002,2.137008466755215
246,1953.76,2.0796245187808164
247,1967.3,2.1400682315232045
248,1976.38,2.1563019331259277
249,1985.5,2.1048282545595005
250,1994.67,2.0783223507816344
251,2003.8700000000001,2.095149811876905
252,2013.12,2.063030047760737
253,2027.08,2.0885410687270394
254,2036.4299999999998,2.0397178541879937
255,2045.83,2.061897914437509
256,2055.2799999999997,2.0116683494755865
257,2064.7599999999998,2.0135293493868
258,2074.3,2.0657717790442867
259,2079.08,2.023780348830743
260,2083.87,2.049273073574911
261,2093.4900000000002,1.9995201428940959
262,2103.15,1.9996960320441302
263,2112.86,2.0017932959827256
264,2122.61,2.0058720797521703
265,2137.33,1.942865577504603
266,2147.19,1.9517104658088824
267,2157.1,1.9739860289017228
268,2167.06,1.9424459667831249
269,2177.06,1.9295324244953753
270,2187.1099999999997,1.9093677569961878
271,2187.7616199999998,1.9111468573438941
272,2197.2,1.9397385888444223
273,2207.35,1.9147182477316422
274,2217.54,1.8740856877376297
275,2222.65,1.851731425660161
276,2232.91,1.8932318826239918
277,2243.21,1.8580335207065892
278,2253.57,1.8238201304673378
279,2263.97,1.834536921346854
280,2274.42,1.8473675386248296
281,2284.92,1.860702582301264
282,2295.46,1.8113869070964659
283,2306.06,1.811703503569819
284,2316.7,1.7742145811619394
285,2327.4,1.631154330432211
286,2332.76,1.7218308003470382
287,2343.53,1.6979430665751525
288,2354.35,1.7406762592017264
289,2365.21,1.682837432947067
290,2376.13,1.694701178370559
291,2387.1,1.64500745019251
292,2392.6,1.6796742540230236
293,2403.65,1.6496470880825091
294,2414.74,1.6580273032607629
295,2425.89,1.687709590117167
296,2437.08,1.6565817580923388
297,2442.7,1.6887326052791543
298,2453.98,1.6734189807715523
299,2465.3,1.663066437382718
300,2476.68,1.633400565672035
301,2482.39,1.6426375203760768
302,2493.85,1.587200810902928
303,2505.3599999999997,1.659598927828239
304,2511.14,1.5839339994901236
305,2511.88643,1.5858505735016442
306,2516.93,1.5996048748427403
307,2522.7300000000005,1.5738635024155414
308,2534.3700000000003,1.5775777163719913
309,2546.07,1.5629877685447116
310,2557.82,1.6011554192309903
311,2563.72,1.582493843830909
312,2575.5499999999997,1.6124736121388814
313,2587.4399999999996,1.6003696186631244
314,2593.41,1.5894368211820251
315,2605.38,1.563076545327962
316,2617.3999999999996,1.5496812679874572
317,2623.44,1.5738208484253402
318,2635.5499999999997,1.5895204284092412
319,2647.7099999999996,1.6373788069067006
320,2653.81,1.6507995255608539
321,2666.06,1.5803158613827186
322,2672.21,1.6065202785504304
323,2684.5400000000004,1.6025401319939894
324,2696.94,1.5625694633565304
325,2703.15,1.5800011187405123
326,2715.63,1.5406276677247472
327,2721.8900000000003,1.536090321622288
328,2734.45,1.560297388228217
329,2747.08,1.4723414327531275
330,2753.41,1.4831888645696507
331,2766.1200000000003,1.5009037267162548
332,2772.4900000000002,1.5257038173436246
333,2785.2900000000004,1.4839973368146346
334,2798.1499999999996,1.3675717945019152
335,2804.6,1.4002017027509788
336,2817.54,1.499736978059953
337,2824.04,1.528845684822575
338,2837.0699999999997,1.4972673174559552
339,2843.6099999999997,1.4777439830294243
340,2856.74,1.4459723126899213
341,2863.3199999999997,1.5053553370742374
342,2876.5400000000004,1.5009246240591394
343,2883.17,1.4944133469570144
344,2884.0315,1.4940115904973954
345,2896.48,1.4899105007137257
346,2909.85,1.5405497467619602
347,2930.02,1.5067800160060059
348,2950.33,1.4895102071982005
349,2970.78,1.495167020338544
350,2991.37,1.4883877554270368
351,3012.11,1.4887205211742605
352,3032.99,1.4836488088696334
353,3046.99,1.4808422036845386
354,3068.11,1.477524500433881
355,3089.3700000000003,1.4741649191313728
356,3110.79,1.468912177198178
357,3132.35,1.4509512572131316
358,3146.81,1.449789852714812
359,3168.62,1.4462459504943181
360,3190.5899999999997,1.4034811876431372
361,3212.7,1.4209048467401053
362,3227.53,1.3844130645333226
363,3249.9,1.4194965501054244
364,3272.43,1.43797437504684
365,3287.54,1.4273916367363555
366,3310.3300000000004,1.4161503881529045
367,3311.31121,1.4164285005327297
368,3325.6000000000004,1.4218502306968785
369,3333.27,1.4333226411849695
370,3340.95,1.3924090203959913
371,3348.66,1.4451161057758064
372,3356.3700000000003,1.410934291155621
373,3364.11,1.3411058827042293
374,3371.8700000000003,1.3461757116986992
375,3379.64,1.4092463094161003
376,3387.4300000000003,1.4130787445793633
377,3395.24,1.3944273171884887
378,3403.07,1.4228015272434757
379,3410.91,1.3706654060213939
380,3418.78,1.3778917909681052
381,3426.6600000000003,1.3982852446377474
382,3434.55,1.4290137670303205
383,3442.4700000000003,1.3705736955916867
384,3450.41,1.3871375615989154
385,3458.3599999999997,1.3741729963290747
386,3466.34,1.3631726372280273
387,3474.33,1.3909441468499106
388,3482.33,1.361284025194725
389,3490.36,1.3909867097083326
390,3498.4100000000003,1.341265731667802
391,3506.47,1.3815853223502028
392,3514.56,1.3464965192013962
393,3522.6600000000003,1.383454984775521
394,3530.78,1.3427184877955076
395,3538.9199999999996,1.3853784282613564
396,3547.0800000000004,1.3950145061730672
397,3555.25,1.3911708528077091
398,3563.4500000000003,1.377758605611144
399,3571.66,1.3331901271375095
400,3579.8999999999996,1.3187406548326686
401,3588.15,1.2586741512507584
402,3596.42,1.3256166851147104
403,3604.71,1.3586840564245244
404,3613.02,1.3074587651802005
405,3621.35,1.3144040113817383
406,3629.7000000000003,1.4235240950291388
407,3635.76,1.4576085411253357
408,3638.48,1.4231734337625725
409,3641.2,1.4211975263998093
410,3643.92,1.3651703190370466
411,3646.63,1.359461442951352
412,3649.35,1.3587203355885893
413,3652.07,1.362319028225826
414,3654.79,1.3622484208630632
415,3657.5099999999998,1.4477355135003
416,3660.2200000000003,1.4314425374146058
417,3662.94,1.3844825300518429
418,3665.66,1.4093560226890798
419,3668.38,1.4294663153263167
420,3671.09,1.3797614392406226
421,3673.81,1.3768682318778596
422,3676.53,1.3584511245150965
423,3679.25,1.3472315171523332
424,3681.96,1.3572936410666392
425,3684.6800000000003,1.3095574337038762
426,3687.4,1.314567426341113
427,3690.12,1.33058511897835
428,3692.84,1.3789914116155868
429,3695.55,1.3987913355298929
430,3698.27,1.3589582281671297
431,3700.9900000000002,1.3839022208043668
432,3703.71,1.3888416134416035
433,3706.42,1.3436526373559095
434,3709.1400000000003,1.3330328299931464
435,3711.86,1.3411474226303834
436,3714.58,1.4103345152676203
437,3717.29,1.429746539181926
438,3720.01,1.5265945318191632
439,3722.73,1.7806224244564
440,3725.4500000000003,2.151748317093637
441,3728.17,2.2796432097308736
442,3730.8799999999997,2.13669243364518
443,3733.6000000000004,1.7565313262824165
444,3736.32,1.5125582189196534
445,3739.04,1.4110180115568904
446,3741.75,1.3942308354711965
447,3744.47,1.4071085281084335
448,3747.19,1.3636416207456703
449,3749.9100000000003,1.349387713382907
450,3752.63,1.365511306020144
451,3755.3399999999997,1.36664702993445
452,3758.06,1.4335763225716869
453,3760.78,1.4782073152089237
454,3763.5,1.5169458078461608
455,3766.21,1.4593739317604666
456,3768.93,1.4454728243977035
457,3771.6499999999996,1.4001005170349405
458,3774.3700000000003,1.4818122096721775
459,3777.08,1.5594389335864833
460,3779.7999999999997,1.5709758262237203
461,3782.52,1.6442907188609572
462,3785.2400000000002,1.697671611498194
463,3787.96,1.723603504135431
464,3790.67,1.557258728049737
465,3793.39,1.4814731206869738
466,3796.1099999999997,1.4012072133242108
467,3798.8300000000004,1.4096392059614475
468,3801.54,1.5113636298757536
469,3801.8939600000003,1.5185535585367456
470,3804.2599999999998,1.5667744998934667
471,3806.98,1.6057673025554264
472,3809.7,1.7098911052173866
473,3812.41,1.7011205630166184
474,3815.13,1.6936483656785783
475,3817.85,1.6390391683405383
476,3820.5699999999997,1.6312839710024982
477,3823.29,1.6448387736644579
478,3826.0,1.6144412314636898
479,3828.72,1.5311130341256498
480,3831.44,1.4431280367876096
481,3834.16,1.4241539394495697
482,3836.87,1.3935431972488015
483,3839.59,1.4239280999107615
484,3842.31,1.4987677025727213
485,3845.0299999999997,1.6032435052346812
486,3847.7400000000002,1.6109849630339133
487,3850.46,1.682931765695873
488,3853.18,1.735296568357833
489,3855.9,1.6766303710197927
490,3858.62,1.7380271736817525
491,3861.33,1.7473566314809847
492,3864.05,1.7663454341429445
493,3866.77,1.7380562368049042
494,3869.49,1.7518940394668643
495,3872.2000000000003,1.7616814972660961
496,3874.92,1.670768299928056
497,3877.64,1.646995102590016
498,3880.36,1.6154249052519756
499,3883.08,1.5747527079139356
500,3885.79,1.5424841657131676
501,3888.51,1.5055169683751277
502,3891.23,1.4850607710370876
503,3893.95,1.5119525736990473
504,3896.6600000000003,1.5167650314982795
505,3899.38,1.6018718341602391
506,3902.1,1.669654636822199
507,3904.82,1.6532204394841588
508,3907.53,1.733183897283391
509,3910.25,1.7575346999453507
510,3912.9700000000003,1.760434502607311
511,3915.69,1.7760713052692707
512,3918.41,1.7593201079312304
513,3921.1200000000003,1.7194665657304624
514,3923.84,1.7077953683924223
515,3926.56,1.6718501710543823
516,3929.28,1.542761973716342
517,3931.9900000000002,1.466921031515574
518,3934.71,1.429565134177534
519,3937.4300000000003,1.508286036839494
520,3940.15,1.6101158395014536
521,3942.86,1.6992512973006857
522,3945.5800000000004,1.7225450999626455
523,3948.3,1.6869169026246054
524,3951.02,1.7291917052865653
525,3953.7400000000002,1.7119815079485252
526,3956.4500000000003,1.645772965747757
527,3959.17,1.602524768409717
528,3961.8900000000003,1.5363075710716767
529,3964.61,1.4444065737336367
530,3967.3199999999997,1.356674931532869
531,3970.0400000000004,1.3504023341948286
532,3972.76,1.3889373368567883
533,3975.48,1.4137123395187483
534,3978.2000000000003,1.521611042180708
535,3980.91,1.6332564999799404
536,3983.63,1.6966643026419002
537,3986.3500000000004,1.7139241053038599
538,3989.07,1.7524939079658197
539,3991.7799999999997,1.777312365765052
540,3994.5000000000005,1.8438601684270117
541,3997.2200000000003,1.8773849710889716
542,3999.94,1.8306787737509314
543,4002.6499999999996,1.8253662315501638
544,4005.37,1.8332410342121233
545,4008.09,1.842914836874083
546,4010.8100000000004,1.8764396395360432
547,4013.53,1.8998024421980029
548,4016.24,1.8877518999972351
549,4018.9599999999996,1.892521702659195
550,4021.6800000000003,1.9177195053211546
551,4024.4,1.8380963079831145
552,4027.1099999999997,1.9261037657823468
553,4029.83,1.9074465684443065
554,4032.5499999999997,1.8422533711062663
555,4035.2700000000004,1.9134931737682261
556,4037.98,1.9274806315674582
557,4040.7,1.9116114342294184
558,4043.4199999999996,1.897470236891378
559,4046.14,1.9175170395533376
560,4048.86,1.8892628422152977
561,4051.5699999999997,1.8579483000145296
562,4054.29,1.8952481026764898
563,4057.0099999999998,1.8743329053384494
564,4059.7299999999996,1.8753627080004094
565,4062.44,1.8283831657996412
566,4065.16,1.8583439684616012
567,4067.8799999999997,1.799042771123561
568,4070.6,1.8894765737855208
569,4073.31,1.798006031584753
570,4076.0299999999997,1.8254268342467128
571,4078.75,1.8051826369086728
572,4081.47,1.7962274395706324
573,4084.1899999999996,1.7740432422325925
574,4086.9,1.7842547000318245
575,4089.62,1.7532135026937843
576,4092.3399999999997,1.7025563053557442
577,4095.06,1.671974108017704
578,4097.77,1.714044565816936
579,4100.49,1.652767368478896
580,4103.21,1.6967351711408556
581,4105.93,1.6294959738028156
582,4108.65,1.6407227764647754
583,4111.36,1.6532972342640075
584,4114.08,1.7436250369259674
585,4116.8,1.7812078395879272
586,4119.5199999999995,1.763855642249887
587,4122.2300000000005,1.752334100049119
588,4124.95,1.823644902711079
589,4127.67,1.8022717053730388
590,4130.39,1.8100755080349986
591,4133.1,1.7829939658342309
592,4135.82,1.7664187684961905
593,4138.54,1.8417165711581505
594,4141.26,1.8265173738201104
595,4143.98,1.8164691764820702
596,4146.6900000000005,1.822517634281302
597,4149.41,1.8363194369432623
598,4152.13,1.829446239605222
599,4154.85,1.8199270422671818
