,lambda (Angstroms),Total Flux (erg/s/cm^2/Angstrom)
0,100.05999999999999,0.474653338847236
1,101.92,0.4733329161030937
2,104.06,0.47181372004263245
3,104.712855,0.47135025520897555
4,105.99000000000001,0.466587748828451
5,107.96,0.45924156842640396
6,109.97,0.45174622700110434
7,114.1,0.4363453513362782
8,118.11,0.4213919587420838
9,120.22644299999999,0.41349968865245973
10,121.14,0.410643547275996
11,125.10000000000001,0.3982630172654765
12,127.14,0.39188516847277716
13,128.01999999999998,0.3891339395829335
14,131.0,0.3798172781136681
15,131.91,0.3769722573358135
16,134.05,0.37028176890050735
17,136.86,0.3614965948491169
18,138.038426,0.3578123679720477
19,140.05,0.353317109437257
20,142.98,0.3467694472228331
21,146.98,0.33783065964864595
22,151.1,0.32862370800081775
23,154.98,0.31995308376203513
24,158.489319,0.31211081934224644
25,158.95,0.3113325117720919
26,161.91,0.3063316752383153
27,166.06,0.2993203674251643
28,169.93,0.2927821118627969
29,173.09,0.2874433813223031
30,177.11999999999998,0.28063481061650486
31,180.0,0.27576913249012674
32,181.970086,0.2724407282371823
33,182.07999999999998,0.2722990594890276
34,185.89999999999998,0.26737544118763445
35,191.1,0.26067313380088053
36,194.21,0.2566646388251181
37,197.82000000000002,0.2520116917409273
38,201.95999999999998,0.24667562520997208
39,204.76999999999998,0.2430538027709488
40,208.929613,0.23769245661338712
41,210.02,0.23663585298181056
42,215.91,0.23092834686688846
43,219.92000000000002,0.2270425914584345
44,222.98,0.2240774012270615
45,227.13,0.2200559847724909
46,229.76,0.21750750575118988
47,234.03,0.21336987447616632
48,239.88329199999998,0.20769799834453653
49,240.03,0.2075884482462274
50,246.19,0.20298858502073058
51,251.92,0.1987098519374874
52,257.2,0.1947670759729187
53,260.18,0.1925418720505758
54,263.8,0.18983874115985788
55,268.7,0.18617978088679
56,273.7,0.18244614820791666
57,275.42287,0.18115963626302953
58,278.79,0.17923001092339164
59,283.96999999999997,0.17626147250059232
60,289.90999999999997,0.17285737168343096
61,295.99,0.16937307640833446
62,300.79,0.16662230645651618
63,307.8,0.16260505608472925
64,316.227766,0.15777532778564596
65,317.88,0.15706812746520188
66,328.29999999999995,0.1526080738536208
67,338.27000000000004,0.1483406355187737
68,347.75,0.14428293584221705
69,356.66999999999996,0.14046493587784942
70,363.078055,0.13772212458480693
71,365.82000000000005,0.136843214418552
72,375.21,0.133833299473503
73,384.83000000000004,0.13074962085200653
74,394.7,0.1275859090494151
75,404.83,0.12433882379540483
76,414.26,0.12131608406006061
77,416.86938299999997,0.12047965586219234
78,421.96,0.11923353879086754
79,429.79999999999995,0.1173144240544661
80,440.83,0.1146144648418822
81,451.09999999999997,0.11210050548849534
82,459.48,0.11004919216287493
83,470.19,0.10742753550253188
84,478.630092,0.10536154772817945
85,480.03,0.1050980049242874
86,490.08000000000004,0.10320593524960225
87,500.35,0.10127255656897075
88,506.14,0.10018257066151932
89,512.0,0.0990806331552213
90,520.32,0.0975144763728869
91,529.99,0.09569419152765454
92,539.85,0.09383787729169575
93,549.5408739999999,0.09201481061009935
94,549.88,0.0919661550233424
95,560.11,0.09049803060227085
96,570.52,0.08900411360635051
97,579.7900000000001,0.08767265809513902
98,590.5699999999999,0.08612666258141849
99,600.16,0.0847502918229203
100,609.92,0.08335070183267608
101,619.83,0.0819299267408912
102,629.9000000000001,0.08048570725746299
103,630.957344,0.08033390767181871
104,640.13,0.07929005977156367
105,650.53,0.07810951579017619
106,658.07,0.07725369470392025
107,665.69,0.07638786620080751
108,674.95,0.0753342625171298
109,684.3399999999999,0.07426587462230977
110,695.4599999999999,0.07300991172921084
111,705.1300000000001,0.07190866932039187
112,716.59,0.07061227546815144
113,724.43596,0.069721690633772
114,726.56,0.06954291569353666
115,734.97,0.06883549320536268
116,745.19,0.06798125910789082
117,755.56,0.06711140771362635
118,764.31,0.06637826971072237
119,774.9399999999999,0.06548914733401733
120,785.72,0.06458737964051962
121,794.8199999999999,0.0638248253750995
122,805.8800000000001,0.06289707448358885
123,815.2099999999999,0.062115217529086685
124,824.65,0.06133228225893657
125,831.763771,0.06071320504466997
126,834.1999999999999,0.0605531854773661
127,845.8000000000001,0.05985653924034162
128,855.6,0.05924481222285541
129,865.51,0.05863428699639744
130,875.5300000000001,0.05801800186096765
131,885.6700000000001,0.057399548697568664
132,895.9200000000001,0.05676809292519789
133,904.21,0.05624490017632436
134,914.68,0.05573958638601002
135,925.27,0.05775055786772647
136,935.99,0.060953933102476245
137,944.65,0.06731010645069763
138,954.992586,0.07314960180472575
139,955.59,0.07348772107750717
140,964.4300000000001,0.0744221842349478
141,975.5999999999999,0.05462034130153286
142,984.6199999999999,0.06774039413864988
143,996.02,0.07005724051815476
144,1005.24,0.08222948688824556
145,1014.5400000000001,0.08188021867152587
146,1023.93,0.06298203779464438
147,1035.79,0.06925835279998893
148,1045.3700000000001,0.09358940852943251
149,1055.04,0.09267251159871429
150,1064.8,0.08031721200783427
151,1074.66,0.08858536168344111
152,1084.6,0.07702683677223751
153,1094.64,0.09129750112752075
154,1096.4782,0.09081779445957675
155,1104.76,0.08874930764806259
156,1114.99,0.08551239004579189
157,1125.3,0.08012302405562464
158,1135.72,0.09410104153209964
159,1146.22,0.08845076062067811
160,1154.17,0.09269120207345893
161,1164.8500000000001,0.09408467228927017
162,1175.63,0.07451163202021074
163,1183.78,0.09300335250325022
164,1194.73,0.07315122940991062
165,1205.78,0.060986725831700325
166,1214.1399999999999,0.055865149296511374
167,1225.3799999999999,0.0754921407970468
168,1233.87,0.09795303563152596
169,1245.29,0.10324045825929415
170,1253.92,0.09864268841495434
171,1258.92541,0.09442457924813703
172,1265.52,0.08896306822870048
173,1274.29,0.10644133737178862
174,1286.09,0.1097121681914511
175,1295.0,0.08901689678494201
176,1303.9799999999998,0.08983278010363432
177,1316.04,0.10743253133118767
178,1325.1599999999999,0.10282794410028276
179,1334.35,0.0927126915945792
180,1343.6000000000001,0.10798291456761971
181,1356.03,0.1053150179140947
182,1365.43,0.09570740958399532
183,1374.9,0.09945301597909734
184,1384.43,0.1003663678529434
185,1394.02,0.0890710752055335
186,1403.6899999999998,0.09202249652978234
187,1413.4199999999998,0.09382880333277523
188,1426.49,0.09604748845252002
189,1436.3799999999999,0.09614938319883037
190,1443.0100000000002,0.1001901236000475
191,1445.43977,0.10082108238477107
192,1446.3400000000001,0.10106466007398002
193,1456.36,0.09853151622132109
194,1466.46,0.09214423788680459
195,1476.62,0.09292536869089493
196,1483.44,0.09425344411253826
197,1493.72,0.09538258319384227
198,1504.08,0.0901834077932887
199,1511.0199999999998,0.0820638714921457
200,1517.9899999999998,0.0867420297603061
201,1525.0,0.08548421078753772
202,1535.57,0.07641337737210809
203,1546.21,0.08105272128505309
204,1553.35,0.07854070877926617
205,1564.12,0.08022609915919265
206,1574.96,0.08382419686749376
207,1585.88,0.08712171009393731
208,1593.1999999999998,0.08779242500397091
209,1604.24,0.08751487650762813
210,1615.3600000000001,0.08839524352942778
211,1626.56,0.0846986460693699
212,1634.07,0.08955440658499178
213,1645.3899999999999,0.09017565740214756
214,1656.8,0.08547719192721358
215,1659.58691,0.08763264100779306
216,1664.45,0.09143053730063597
217,1672.13,0.08504416977914525
218,1675.98,0.0913803896544396
219,1683.72,0.09461272394918724
220,1695.3899999999999,0.09010968720754703
221,1703.22,0.08739526422665218
222,1715.02,0.0826124047535284
223,1726.91,0.08240218800476216
224,1734.88,0.08699003592842348
225,1746.91,0.08530514008421339
226,1754.9699999999998,0.08967623073223224
227,1763.07,0.08444300592441
228,1775.29,0.0846578791649547
229,1783.49,0.0867269407175297
230,1795.85,0.09117454486263056
231,1804.1399999999999,0.0916735691395631
232,1816.6399999999999,0.08378740418922012
233,1825.03,0.08674695482654991
234,1833.45,0.08377921637199887
235,1846.16,0.07813641777849012
236,1854.6799999999998,0.07693337568433635
237,1863.24,0.07904131813434148
238,1876.16,0.08615137589766697
239,1884.8200000000002,0.07920389470806935
240,1893.52,0.07572658806263063
241,1905.46072,0.08070100872457737
242,1906.64,0.08119784548781306
243,1915.4399999999998,0.0770920220989704
244,1924.29,0.07605441249769111
245,1933.1699999999998,0.07972783516894986
246,1946.57,0.08125305023593943
247,1955.55,0.07617727048232498
248,1969.1100000000001,0.0831586176695174
249,1978.2,0.08577049624854241
250,1982.76,0.08122102167432393
251,1996.5,0.07946971249674457
252,2005.72,0.08268507092343441
253,2014.98,0.07994406238017496
254,2024.28,0.08425175686696622
255,2033.62,0.0788485143838082
256,2043.01,0.08160867568821357
257,2057.17,0.07854391832616672
258,2066.66,0.07912914720569889
259,2076.2,0.08388665987279444
260,2085.79,0.08209755632745339
261,2095.41,0.07805012505465037
262,2105.09,0.07949288832692342
263,2114.8,0.08023943387173452
264,2124.56,0.08129672320410901
265,2134.37,0.0775462563240469
266,2144.22,0.0777021124740355
267,2154.12,0.08076758241158749
268,2164.06,0.07931421537919019
269,2174.0499999999997,0.07874912213435628
270,2184.09,0.07676787267708578
271,2187.7616199999998,0.07781966926413839
272,2194.17,0.07968224562692519
273,2204.2999999999997,0.07827949009989471
274,2214.4700000000003,0.07578472481757487
275,2224.69,0.07351543234114333
276,2234.96,0.07672654267060008
277,2245.28,0.07482439580594515
278,2255.64,0.07231604918600085
279,2266.05,0.07423548537194485
280,2276.5099999999998,0.07538393436377715
281,2287.02,0.07655455616149774
282,2297.5699999999997,0.07315039820392899
283,2302.87,0.07310400562808875
284,2313.5,0.07025520815994127
285,2324.1800000000003,0.05752113349768208
286,2334.91,0.0668375416413112
287,2345.69,0.06638304259082861
288,2356.51,0.06886666378505667
289,2367.39,0.0657178403463507
290,2372.85,0.06650798874935303
291,2383.8,0.06405540323889065
292,2394.8,0.06692371053431659
293,2405.86,0.0646763731968085
294,2416.96,0.06576406610401102
295,2422.5299999999997,0.06766810267996762
296,2433.7200000000003,0.06537941863776908
297,2444.95,0.0680983148402812
298,2456.23,0.06737537384868161
299,2467.57,0.06702854822414799
300,2473.2599999999998,0.0652749755342365
301,2484.68,0.06700416039912414
302,2496.14,0.06307940550872243
303,2507.67,0.06793206854656435
304,2511.88643,0.06461971289132434
305,2513.45,0.06339488402367505
306,2519.24,0.06561604255519667
307,2525.0499999999997,0.06343665078803615
308,2536.7000000000003,0.0639475018056919
309,2542.55,0.06251410944116713
310,2554.29,0.06514664411475328
311,2566.08,0.06423140304163408
312,2577.92,0.06671476622180955
313,2583.86,0.06617974751321515
314,2595.79,0.06585541434932102
315,2607.77,0.06420057543872153
316,2613.78,0.06380438068473965
317,2625.85,0.06492747543007056
318,2637.9700000000003,0.06570638442869613
319,2644.05,0.06832365362932677
320,2656.2599999999998,0.06876690628388273
321,2662.3799999999997,0.0648130948871491
322,2674.67,0.0668446063469765
323,2687.01,0.06626128206009857
324,2693.2099999999996,0.06461380946863642
325,2705.6400000000003,0.06526947883768885
326,2718.13,0.06360726731069491
327,2724.39,0.06368728382318634
328,2736.9700000000003,0.06543885595212277
329,2743.28,0.06053423671790886
330,2755.94,0.06090696765211675
331,2762.29,0.06202082782053856
332,2775.0399999999995,0.06372185241067685
333,2787.85,0.06256141610476872
334,2794.28,0.05619199507846198
335,2807.1800000000003,0.05856239242848424
336,2813.6499999999996,0.06323064080481323
337,2826.6400000000003,0.06399638181076589
338,2833.1499999999996,0.06168023958973061
339,2846.23,0.06112897425161364
340,2852.79,0.060509956283873026
341,2865.96,0.06313449460168645
342,2872.56,0.06261034603658155
343,2884.0315,0.06243266061100103
344,2885.82,0.06240838088733925
345,2892.48,0.06202022750441685
346,2912.5299999999997,0.06423581527805142
347,2932.71,0.06291804490757485
348,2953.04,0.061983644370816285
349,2966.67,0.062401271261321965
350,2987.24,0.06206726645851213
351,3007.94,0.062213483511591186
352,3028.79,0.062118900398388216
353,3049.79,0.06166283711890321
354,3070.93,0.06144798968422164
355,3092.22,0.06123153208325803
356,3106.4900000000002,0.060929294264293686
357,3128.0200000000004,0.060242652397278815
358,3149.7000000000003,0.06014414036398191
359,3171.54,0.05957800215331751
360,3193.5200000000004,0.057879109787456536
361,3208.26,0.05871951944747515
362,3230.5,0.05737496079339198
363,3252.89,0.05828830197302678
364,3267.91,0.05879302332265226
365,3290.56,0.058231038214064855
366,3311.31121,0.058033031745778126
367,3313.37,0.05801614995604155
368,3321.0099999999998,0.058334050855662525
369,3328.66,0.05888750916483797
370,3336.3399999999997,0.059095159702676855
371,3344.03,0.056790527650070206
372,3351.7400000000002,0.05835076041657253
373,3359.46,0.05662980059262932
374,3367.21,0.056939702997349545
375,3374.97,0.05483414281162425
376,3382.75,0.05545649744500791
377,3390.5499999999997,0.05776833689750053
378,3398.36,0.058086823759547615
379,3406.2,0.056147752850258144
380,3414.05,0.05667785935052315
381,3421.92,0.057667940669897104
382,3429.81,0.05741512680838002
383,3437.71,0.05796093035641742
384,3445.64,0.05482233613311824
385,3453.58,0.057566559319373545
386,3461.54,0.0547718173247378
387,3469.52,0.05550561014921101
388,3477.52,0.05450560779279318
389,3485.54,0.055018450255484304
390,3493.5699999999997,0.055428470127729904
391,3501.63,0.05551172222863894
392,3509.7,0.05450949173910245
393,3517.79,0.05394969606867492
394,3525.9,0.05488914521735635
395,3534.03,0.055959319185146725
396,3542.17,0.056941980562491584
397,3550.34,0.057256134168499874
398,3558.52,0.05599194518406264
399,3566.73,0.05674960842828884
400,3574.9500000000003,0.053660409082069524
401,3583.19,0.05237990455495915
402,3591.45,0.051234904846957745
403,3599.73,0.054543929958065285
404,3608.0299999999997,0.053554249888281794
405,3616.34,0.054060137228052765
406,3624.6800000000003,0.05533684679648718
407,3633.04,0.05768021118403055
408,3641.41,0.056173042981128386
409,3649.8,0.05492713959733519
410,3658.22,0.05702456844220542
411,3666.65,0.056429924696630135
412,3674.51,0.06988619860644962
413,3677.2500000000005,0.056352288824376505
414,3679.9900000000002,0.0490432490423034
415,3682.73,0.06750956926023029
416,3685.4700000000003,0.05598003947815718
417,3688.21,0.05458671969608408
418,3690.9500000000003,0.057961399914010975
419,3693.68,0.04967480272238339
420,3696.42,0.057925112940310275
421,3699.1600000000003,0.057453003158237176
422,3701.9,0.051509633376164064
423,3704.6400000000003,0.04580068359409095
424,3707.38,0.04510662381201785
425,3710.12,0.051810604029944744
426,3712.86,0.05526173424787164
427,3715.6,0.04987213446579853
428,3718.34,0.07463520468372543
429,3721.08,0.13450235490165233
430,3723.8100000000004,0.24816575771002475
431,3726.55,0.39796362792795165
432,3729.29,0.4236999981458785
433,3732.03,0.33161436836380537
434,3734.77,0.1764026385817323
435,3737.51,0.07875710879965919
436,3740.25,0.06958693901758609
437,3742.99,0.04290179923551298
438,3745.73,0.048803459453439876
439,3748.47,0.05473455967136677
440,3751.21,0.05078935988929366
441,3753.94,0.051593742697666076
442,3756.68,0.04828098291559297
443,3759.42,0.060649293133519855
444,3762.16,0.059635893351446756
445,3764.9,0.05607229356937365
446,3767.64,0.05013064378730054
447,3770.3799999999997,0.04994447400522743
448,3773.12,0.05260120422315433
449,3775.8599999999997,0.06107739444108121
450,3778.6,0.05472808465900811
451,3781.33,0.06541053746738053
452,3784.0699999999997,0.06570166768530741
453,3786.81,0.05829522790323431
454,3789.5499999999997,0.0500774081211612
455,3792.29,0.049428648339088097
456,3795.0299999999997,0.056749788557014985
457,3797.77,0.05550311877494188
458,3800.51,0.05521728899286878
459,3801.8939600000003,0.053506280161336704
460,3803.2500000000005,0.051831070966930334
461,3805.9900000000002,0.06297951108766908
462,3808.73,0.06460268120840781
463,3811.46,0.06083588446739205
464,3814.2,0.05891630458813079
465,3816.9399999999996,0.060182204708869536
466,3819.68,0.05888998482960828
467,3822.42,0.05924429495034702
468,3825.1600000000003,0.055554205071085765
469,3827.9,0.051758225191824506
470,3830.6400000000003,0.050598505312563255
471,3833.38,0.056786425433302
472,3836.12,0.06016085555404074
473,3838.86,0.05872142567477949
474,3841.5899999999997,0.056201398933763705
475,3844.3300000000004,0.05980516905450245
476,3847.07,0.05267592917524119
477,3849.8100000000004,0.05847147929597994
478,3852.55,0.06666999941671868
479,3855.29,0.05874807953745743
480,3858.03,0.06382057965819617
481,3860.77,0.06800978977893492
482,3863.51,0.07167808989967367
483,3866.25,0.08122358002041241
484,3868.98,0.08952953327939663
485,3871.7200000000003,0.08195297340013537
486,3874.46,0.07068475352087411
487,3877.2000000000003,0.06783602364161286
488,3879.94,0.0644720537623516
489,3882.68,0.06540558388309034
490,3885.42,0.0728957840038291
491,3888.16,0.07604883412456782
492,3890.9,0.07547626424530657
493,3893.64,0.06423638436604531
494,3896.3799999999997,0.05831770448678407
495,3899.11,0.05584636774576829
496,3901.85,0.05918797786650703
497,3904.59,0.06056994798724578
498,3907.33,0.06378019810798452
499,3910.0699999999997,0.06248797822872326
500,3912.81,0.05934030834946201
501,3915.5499999999997,0.06194131847020075
502,3918.29,0.05505669859093949
503,3921.0299999999997,0.059717558711678234
504,3923.77,0.06304329883241698
505,3926.5099999999998,0.06263776895315572
506,3929.24,0.05296882221213995
507,3931.98,0.05221337233287869
508,3934.72,0.05280322245361743
509,3937.46,0.05515511257435618
510,3940.2,0.05954929269509492
511,3942.9399999999996,0.06128401281583367
512,3945.68,0.06362910293657241
513,3948.42,0.06648207305731116
514,3951.1600000000003,0.060648883178049895
515,3953.9,0.06269784329878865
516,3956.6400000000003,0.06394901341952738
517,3959.37,0.0630517466785116
518,3962.1099999999997,0.05274098679925036
519,3964.85,0.0545527169199891
520,3967.5899999999997,0.06283503704072785
521,3970.3300000000004,0.06279923716146658
522,3973.07,0.06554179728220533
523,3975.8100000000004,0.056274007402944075
524,3978.55,0.056242167523682815
525,3981.29,0.06032493764442156
526,3984.03,0.061454947765160306
527,3986.7599999999998,0.06434389102414453
528,3989.5000000000005,0.06496035114488327
529,3992.2400000000002,0.06452933126562202
530,3994.98,0.06116876138636076
531,3997.7200000000003,0.0593601615070995
532,4000.46,0.06749414162783825
533,4003.2000000000003,0.06347337174857699
534,4005.94,0.06542607186931573
535,4008.68,0.07279170199005448
536,4011.42,0.06771779211079322
537,4014.16,0.06403110223153197
538,4016.8900000000003,0.07288617549051618
539,4019.63,0.07530317561125492
540,4022.37,0.07448145573199368
541,4025.11,0.07629260585273241
542,4027.85,0.07585025597347116
543,4030.59,0.07174454609420991
544,4033.33,0.07244028621494865
545,4036.0699999999997,0.0666472963356874
546,4038.81,0.06343054645642615
547,4041.5499999999997,0.06750084657716489
548,4044.29,0.07516089669790363
549,4047.02,0.07323543995688785
550,4049.76,0.0685918400776266
551,4052.5,0.06909506019836534
552,4055.24,0.06945106031910409
553,4057.98,0.06727612043984282
554,4060.72,0.06912691056058158
555,4063.46,0.06473811068132032
556,4066.2,0.07041078080205906
557,4068.9399999999996,0.07135564092279781
558,4071.68,0.07536366104353655
559,4074.41,0.07444039430252077
560,4077.15,0.07082162442325951
561,4079.89,0.06688013454399826
562,4082.6299999999997,0.06651138466473701
563,4085.37,0.06349846478547574
564,4088.1099999999997,0.06629481490621449
565,4090.85,0.06411422502695324
566,4093.5899999999997,0.06259947514769199
567,4096.33,0.06462805526843073
568,4099.070000000001,0.07610999538916946
569,4101.81,0.0845627055099082
570,4104.54,0.08631197876889243
571,4107.28,0.07961870888963118
572,4110.0199999999995,0.07385400901036993
573,4112.759999999999,0.06504879913110867
574,4115.5,0.06058524925184741
575,4118.24,0.06052395937258615
576,4120.9800000000005,0.0643502494933249
