,lambda (Angstroms),Total Flux (erg/s/cm^2/Angstrom)
0,100.00999999999999,2.865391917891904
1,102.10000000000001,2.8564357686306665
2,104.0,2.848293814828633
3,104.712855,2.845239060981265
4,105.94,2.817616353042056
5,107.89999999999999,2.7734972741407207
6,109.91000000000001,2.728252709768788
7,114.03999999999999,2.6352875097324118
8,118.04,2.545248576871979
9,120.22644299999999,2.4960323655846444
10,121.07,2.4801127318701948
11,125.03999999999999,2.405190724871644
12,127.07,2.3668804793476546
13,127.95,2.350273086415519
14,130.93,2.294034404171007
15,132.14,2.271199257424495
16,133.98,2.2364747084037098
17,137.1,2.1775939900518257
18,138.038426,2.1598839840255843
19,139.97,2.1338281797625287
20,142.9,2.0943048291702873
21,146.91,2.0402140294857274
22,151.02,1.9847729145213868
23,154.9,1.9324344665897397
24,158.489319,1.8840171708733024
25,158.86999999999998,1.8801349492751378
26,161.82,1.8500506007447295
27,165.97,1.8077286635962568
28,169.84,1.7682622077177992
29,173.0,1.7360364021526296
30,177.03,1.6949383732631635
31,179.89999999999998,1.6656701298807597
32,181.970086,1.6445594102693515
33,181.99,1.644404478737184
34,185.79999999999998,1.614762667620442
35,191.0,1.5743066540492978
36,194.11,1.5501110178749018
37,198.17000000000002,1.518524365422893
38,201.85999999999999,1.489816633859639
39,205.14000000000001,1.4642984620823019
40,208.929613,1.4348151055584757
41,209.91,1.4290807378443122
42,215.79000000000002,1.3946901433380883
43,219.81,1.3711778287178127
44,222.86,1.353338546489295
45,227.01,1.329066113576722
46,230.17,1.3105980261077992
47,233.91,1.2887543495640104
48,239.88329199999998,1.2538371562585144
49,239.91,1.2537168696752832
50,246.06,1.225994965161258
51,251.79,1.2001777229582395
52,257.06,1.1764092028325142
53,260.04,1.1629937502991818
54,264.27,1.1439354394169012
55,269.18,1.121807343597753
56,274.18,1.0992731116619603
57,275.42287,1.093671691830125
58,279.28000000000003,1.080331283468264
59,283.82,1.064629576821955
60,289.76,1.0440788787754625
61,295.83000000000004,1.0230873038232384
62,301.33,1.004062873965375
63,308.35,0.9797846568558839
64,316.227766,0.9525407991430794
65,317.72,0.9486867030047448
66,328.13,0.9217953911265979
67,338.1,0.8960392142928683
68,348.37,0.8695072190833996
69,357.31,0.8464117355263743
70,363.078055,0.8315114182854914
71,365.63,0.8265748275174337
72,375.01,0.8084267502002317
73,384.63,0.7898092570806704
74,395.4,0.768977509262305
75,404.60999999999996,0.7511597808092738
76,414.04,0.7329137362790802
77,416.86938299999997,0.7274385944796348
78,421.74,0.7202408423116355
79,429.58000000000004,0.708656318027477
80,440.6,0.6923740977293358
81,450.86,0.6772122630276182
82,460.3,0.6632621155773049
83,469.94,0.6490168661437222
84,478.630092,0.6361765077979392
85,479.78,0.6348697770176501
86,489.82,0.6234561331409549
87,500.08,0.6117981516044118
88,505.87,0.6052153689565964
89,511.73,0.5985668300170114
90,520.04,0.5891223259654838
91,529.7099999999999,0.5781299413167145
92,539.56,0.5669299191462515
93,549.5408739999999,0.5555887396963509
94,549.59,0.5555461584249016
95,559.8100000000001,0.5466917319244048
96,570.22,0.5376713583783997
97,579.48,0.5296391982446814
98,590.26,0.520298541446897
99,599.85,0.5119793435183487
100,609.59,0.503521534401241
101,619.5,0.49495499611709987
102,629.56,0.4862339350443995
103,630.957344,0.4850226358368239
104,639.79,0.4789530603126091
105,650.1899999999999,0.47180937067754575
106,657.72,0.46663471272811996
107,665.3299999999999,0.46141013867073233
108,674.59,0.4550460106491277
109,685.5500000000001,0.44750601165833015
110,695.09,0.44097226630885855
111,704.76,0.43431571164644867
112,716.21,0.42646714700688365
113,724.43596,0.42081604637241676
114,726.17,0.41993191299399973
115,734.5799999999999,0.4156455599183984
116,744.8000000000001,0.41044434436945115
117,755.16,0.4051672196568198
118,765.67,0.39980110962595533
119,774.53,0.3953051396956547
120,785.3100000000001,0.38981459729197065
121,794.4,0.385186484407046
122,805.45,0.37955875413054235
123,814.78,0.3748057256364448
124,824.2099999999999,0.37001602599685857
125,831.763771,0.3661281699585531
126,835.6800000000001,0.3646170400601293
127,845.36,0.3609875816350924
128,855.15,0.35726105070522557
129,865.05,0.35350669437052873
130,875.07,0.34970774694874457
131,885.2,0.34587412122213057
132,895.45,0.3419840366084293
133,905.8199999999999,0.3380265116076408
134,914.2,0.3350637203760489
135,924.7800000000001,0.3348234012478577
136,935.4899999999999,0.3361284489503221
137,944.15,0.3421568685155267
138,954.992586,0.3468868672906983
139,955.0799999999999,0.3469257210375381
140,963.9200000000001,0.3456411046111133
141,975.0799999999999,0.31575675754336446
142,984.1,0.33093888369649216
143,995.5,0.32996767373481317
144,1004.71,0.34208316355524626
145,1014.0100000000001,0.33822877516545546
146,1025.75,0.3104651541873756
147,1035.24,0.3159405084648902
148,1044.8200000000002,0.34209907453218097
149,1054.48,0.33758720330149516
150,1064.24,0.3197775529483385
151,1074.0900000000001,0.326062524384958
152,1084.03,0.3093414876113537
153,1094.06,0.32218034262752565
154,1096.4782,0.3207712720172632
155,1104.18,0.3168042922681533
156,1114.3999999999999,0.3107109690674768
157,1124.71,0.3018007636566182
158,1135.1200000000001,0.3142477313455572
159,1145.62,0.3047601168243143
160,1156.22,0.3063019954028689
161,1164.23,0.3056332586966635
162,1175.01,0.28160733285485406
163,1185.8799999999999,0.2973769548028626
164,1194.1,0.2733927796062323
165,1205.1499999999999,0.2578589671338765
166,1216.3,0.2483693777613185
167,1224.73,0.26660228407426345
168,1236.06,0.2871189702813412
169,1244.63,0.29129285093400287
170,1256.15,0.28352491803069624
171,1258.92541,0.27924235502520495
172,1264.85,0.2706201052735244
173,1273.6200000000001,0.2887699270399894
174,1285.4099999999999,0.29067931223116633
175,1294.32,0.26817255707029997
176,1306.29,0.26474991478347965
177,1315.3500000000001,0.28179955505761556
178,1324.46,0.275979147143419
179,1333.65,0.2632769481278902
180,1345.99,0.27675335324740874
181,1355.3200000000002,0.2720294073045487
182,1364.71,0.26009915553568963
183,1374.17,0.2626466603031649
184,1383.6999999999998,0.26139704160697463
185,1396.5,0.2485800753938333
186,1406.1799999999998,0.2489530321326453
187,1415.93,0.24818144540779158
188,1425.74,0.2488371228569388
189,1435.62,0.24605482684242042
190,1442.25,0.24914849306951986
191,1445.43977,0.250078920438453
192,1445.57,0.25012547156074705
193,1455.59,0.24591376472453602
194,1465.68,0.23792550777070665
195,1475.84,0.2365317806992591
196,1486.07,0.23680719351019328
197,1496.3799999999999,0.2369629361867066
198,1503.28,0.23146337459290856
199,1513.7,0.22156134708459319
200,1517.1899999999998,0.22602330122048378
201,1524.19,0.22261431945865964
202,1534.76,0.21214017169830524
203,1545.4,0.21700304382033256
204,1556.11,0.2120963358247417
205,1563.29,0.21186870376047068
206,1574.1299999999999,0.2142156555464459
207,1585.04,0.21627554721480288
208,1596.03,0.215898028748739
209,1603.39,0.21377094638202107
210,1614.5100000000002,0.21265534769752328
211,1625.6999999999998,0.20704851889540737
212,1633.1999999999998,0.21039388629345296
213,1644.52,0.20984549727290308
214,1655.9199999999998,0.2027248281179324
215,1659.58691,0.2051069090060714
216,1663.57,0.20787578344145397
217,1671.25,0.1986643836614901
218,1675.1,0.20694952417544055
219,1686.7099999999998,0.20942599814088583
220,1694.5,0.2038376578041777
221,1706.24,0.1998363420207434
222,1714.1200000000001,0.19515281031942633
223,1726.0,0.19362437019104478
224,1733.97,0.19730949712511875
225,1745.98,0.19448213724785762
226,1754.04,0.19839519281732265
227,1766.2,0.19095292399904654
228,1774.3500000000001,0.1917407082039026
229,1786.6499999999999,0.19170213504067934
230,1794.9,0.19587207328485876
231,1803.19,0.19452702314476758
232,1815.68,0.1872011026562587
233,1824.0700000000002,0.18800409655549088
234,1836.71,0.18399279712596708
235,1845.1899999999998,0.17772080966059037
236,1853.7,0.17694122840701063
237,1866.55,0.17748311246006593
238,1875.1699999999998,0.18227792064974196
239,1883.82,0.17577474505121493
240,1896.8799999999999,0.17209380258684936
241,1905.46072,0.17470881995426266
242,1905.64,0.17476855590950455
243,1914.43,0.17161369056985487
244,1923.27,0.17004174446035508
245,1936.6,0.17091163921831526
246,1945.54,0.17273045156911526
247,1954.52,0.16797841330403518
248,1968.0700000000002,0.17289766467465484
249,1977.15,0.1740356048698745
250,1986.28,0.16968596429524407
251,1995.45,0.16723420310473355
252,2004.66,0.16852537129834294
253,2013.9099999999999,0.16540052887607226
254,2023.21,0.1679001156839514
255,2037.2299999999998,0.16319086981798006
256,2046.64,0.165112494932189
257,2056.08,0.16120171958448784
258,2065.5699999999997,0.1607195834669366
259,2075.11,0.16468659657953524
260,2079.89,0.16117466298186456
261,2084.68,0.16338246923022387
262,2094.31,0.15912765095709228
263,2103.97,0.15876852222205068
264,2113.69,0.1586713325631889
265,2123.44,0.1588518924424171
266,2133.2400000000002,0.15366059155179515
267,2143.09,0.15441346989132307
268,2152.98,0.15614169761497096
269,2162.92,0.15338468456876872
270,2172.9,0.15208805090668637
271,2182.93,0.15028549647475395
272,2187.7616199999998,0.15127485445532568
273,2193.0099999999998,0.15248198989264775
274,2203.13,0.1502476940808011
275,2213.3,0.14682060920861928
276,2223.52,0.14459561527610224
277,2233.7799999999997,0.14773404009531704
278,2244.09,0.1448293558541966
279,2254.4500000000003,0.14179240255274095
280,2264.85,0.14253287800301717
281,2275.31,0.1434247765808911
282,2285.81,0.1444828139104969
283,2296.36,0.14064917217976747
284,2306.96,0.1403218913887028
285,2317.61,0.13720690153730294
286,2322.95,0.12599971989350248
287,2333.67,0.1328188453576333
288,2344.45,0.1311087239493619
289,2355.27,0.13436499129282234
290,2366.14,0.12975282957594755
291,2377.06,0.13062079879873756
292,2382.54,0.1270435377859985
293,2393.54,0.12958858451225214
294,2404.59,0.1272597821781706
295,2415.69,0.12789542078375385
296,2426.84,0.13029300032900187
297,2432.43,0.12821290338352537
298,2443.66,0.13057423043223707
299,2454.94,0.12941535842061352
300,2466.27,0.12837220734865484
301,2477.65,0.12603351721636089
302,2483.36,0.12675612652607984
303,2494.83,0.12289084608518254
304,2506.34,0.12811471439601707
305,2511.88643,0.12237101632927358
306,2512.12,0.12213228164247869
307,2517.91,0.12340518134052349
308,2523.72,0.12137237450902785
309,2535.3599999999997,0.12183477431649617
310,2547.07,0.12055584127057295
311,2552.94,0.12407321485045601
312,2564.72,0.12220364895114132
313,2576.56,0.12471091346320529
314,2582.5,0.12374569418969686
315,2594.42,0.1226115625835991
316,2606.3999999999996,0.12051507138888007
317,2612.4,0.11969868252675031
318,2624.46,0.12160188521386955
319,2636.58,0.12350987831236748
320,2642.66,0.12769728333207603
321,2654.8500000000004,0.1296764235771824
322,2667.1099999999997,0.12260909096889733
323,2673.25,0.12506950639998457
324,2685.59,0.12495761767353772
325,2697.9900000000002,0.1214626293584696
326,2704.21,0.1231879986713951
327,2716.69,0.11963370423816524
328,2722.96,0.11876295722723967
329,2735.52,0.12106497667584809
330,2748.1499999999996,0.11356074327106502
331,2754.4800000000005,0.11473351667151811
332,2767.2000000000003,0.11631060388380307
333,2773.58,0.11840106096040515
334,2786.38,0.11462490205452835
335,2792.7999999999997,0.10562108607204954
336,2805.69,0.10798551778324081
337,2812.1600000000003,0.1164372054769109
338,2825.14,0.11916007780517024
339,2838.1800000000003,0.11659987054480828
340,2844.7299999999996,0.11442667212031665
341,2857.8599999999997,0.11157635547702277
342,2864.4399999999996,0.11739218725822048
343,2877.67,0.11824781796722439
344,2884.0315,0.1173411799207554
345,2884.3,0.11730601528073833
346,2897.61,0.11769614413819918
347,2910.99,0.12317459881985401
348,2931.17,0.11996699070892684
349,2951.48,0.11829455198578856
350,2971.94,0.11900093717163743
351,2992.5400000000004,0.11878112400587432
352,3013.29,0.11883238474909838
353,3027.2,0.11900594924250785
354,3048.18,0.1187872519795122
355,3069.31,0.11940710862550374
356,3090.58,0.11905023691988328
357,3112.01,0.1199818313838491
358,3133.5800000000004,0.11804240749620298
359,3148.0399999999995,0.11808415632256539
360,3169.8599999999997,0.11858446894989785
361,3191.84,0.11411862774681664
362,3206.57,0.11638275760935592
363,3228.7900000000004,0.11211799066065414
364,3251.1800000000003,0.11797365214213784
365,3273.71,0.12098461527200954
366,3288.82,0.1199581710373163
367,3311.31121,0.11867285181827134
368,3311.6200000000003,0.11865770676649826
369,3319.2500000000005,0.11828757360114359
370,3326.9100000000003,0.11931449025296315
371,3334.57,0.12181504690478273
372,3342.26,0.1177896033737765
373,3349.97,0.12121027638755312
374,3357.69,0.11970300267372112
375,3365.43,0.11225062550467196
376,3373.1899999999996,0.11049179488040561
377,3380.96,0.11623999752853068
378,3388.76,0.12026216999382996
379,3396.5699999999997,0.11565181573152067
380,3404.4,0.12062964801399417
381,3412.25,0.11597474684125053
382,3420.11,0.11856935894089826
383,3428.0,0.11850623085772025
384,3435.9,0.11924641604693363
385,3443.82,0.11110083778092983
386,3451.7599999999998,0.11879845605970886
387,3459.72,0.1166643108832707
388,3467.69,0.11597218897922394
389,3475.69,0.11700600689235142
390,3483.7000000000003,0.1163093180778703
391,3491.73,0.11719210580817199
392,3499.78,0.11175314008325653
393,3507.85,0.11900891090312388
394,3515.93,0.11325489499538263
395,3524.04,0.11741234890481561
396,3532.16,0.11832541608663999
397,3540.3,0.12025989981324721
398,3548.4700000000003,0.12242717335702863
399,3556.64,0.11829653690081007
400,3564.84,0.11990369026176573
401,3573.06,0.11124089016750423
402,3581.3,0.11131828661802552
403,3589.55,0.10374309634093823
404,3597.8300000000004,0.11504282588102517
405,3606.12,0.11609958869350352
406,3614.44,0.1133225813231561
407,3622.77,0.11004427722520008
408,3627.3100000000004,0.11950392289089992
409,3630.05,0.10661324952614609
410,3632.79,0.09862239616139226
411,3635.54,0.11979833606902981
412,3638.2799999999997,0.130635922704276
413,3641.03,0.12271801261191354
414,3643.77,0.09972972924715973
415,3646.51,0.12171879588240586
416,3649.2599999999998,0.11857634579004345
417,3652.0000000000005,0.1231208224252896
418,3654.75,0.12768729233292717
419,3657.49,0.12411561896817333
420,3660.23,0.1170844156034195
421,3662.98,0.12082893551105708
422,3665.7200000000003,0.11208589214630321
423,3668.47,0.1173763420539408
424,3671.2099999999996,0.12010150868918698
425,3673.9500000000003,0.12076795532443313
426,3676.7,0.12320972523207069
427,3679.44,0.12198334186731685
428,3682.19,0.11558499177495442
429,3684.9300000000003,0.11412670841020059
430,3687.67,0.10659777504544674
431,3690.4199999999996,0.12364113495308432
432,3693.16,0.12236573158833047
433,3695.8999999999996,0.12196509822357665
434,3698.65,0.1158551981312142
435,3701.39,0.11414049476646038
436,3704.1400000000003,0.12122574467409793
437,3706.88,0.12218629130934411
438,3709.6200000000003,0.11643519794459026
439,3712.37,0.11995157785222782
440,3715.1099999999997,0.11928889448747401
441,3717.86,0.12799735439511156
442,3720.6,0.14175338103035773
443,3723.34,0.1839623276656039
444,3726.09,0.20707982757324145
445,3728.8300000000004,0.20288612420848762
446,3731.58,0.1645772241161252
447,3734.3199999999997,0.13136322075137136
448,3737.06,0.1166965973866175
449,3739.81,0.12416266729425508
450,3742.55,0.10166831392950124
451,3745.2999999999997,0.11777468383713882
452,3748.0400000000004,0.10195615047238496
453,3750.78,0.11666044710763113
454,3753.5299999999997,0.12421135701526873
455,3756.27,0.12425943365051487
456,3759.02,0.12079081355815244
457,3761.76,0.1206239601933986
458,3764.5,0.12313986682864475
459,3767.2499999999995,0.11802728673628235
460,3769.99,0.1170648333715285
461,3772.7300000000005,0.12131898000677464
462,3775.48,0.12421886991441222
463,3778.22,0.12776981654965838
464,3780.9700000000003,0.13784131645729594
465,3783.71,0.1378554830925421
466,3786.4500000000003,0.13823727972778826
467,3789.2,0.13100746963542584
468,3791.9399999999996,0.11852590627067203
469,3794.69,0.11456525617830957
470,3797.43,0.11921529281355574
471,3800.17,0.12482119944880189
472,3801.8939600000003,0.12577989668137327
473,3802.92,0.12635633361920473
474,3805.6600000000003,0.13534878383596513
475,3808.41,0.13772889438198377
476,3811.1499999999996,0.13868814459874415
477,3813.89,0.13449300481550455
478,3816.64,0.1316961253615232
479,3819.38,0.13239895557828357
480,3822.13,0.1262670161243022
481,3824.8700000000003,0.11664034634106259
482,3827.61,0.11677566655782298
483,3830.3599999999997,0.11530042710384163
484,3833.1,0.108028457320602
485,3835.85,0.10441156786662065
486,3838.59,0.10866433808338102
487,3841.33,0.12332205830014142
488,3844.0800000000004,0.12802299884616006
489,3846.82,0.13456268906292043
490,3849.5600000000004,0.13042408927968083
491,3852.31,0.13027039982569946
492,3855.0499999999997,0.13397839004245987
493,3857.8,0.13434502058847847
494,3860.54,0.14109214080523888
495,3863.28,0.14495097102199928
496,3866.0299999999997,0.14170156156801791
497,3868.7700000000004,0.13998936178477828
498,3871.52,0.14082538233079694
499,3874.2599999999998,0.1359101025475573
500,3877.0,0.1316150227643177
501,3879.75,0.12777370331033633
502,3882.4900000000002,0.11995502352709672
503,3885.24,0.11506929407311535
504,3887.9799999999996,0.12070966428987576
505,3890.72,0.12293202450663615
506,3893.47,0.12598711505265478
507,3896.21,0.13664992526941516
508,3898.96,0.1403195758154338
509,3901.7000000000003,0.13463506603219416
510,3904.44,0.13566594624895456
511,3907.19,0.1400388167949732
512,3909.93,0.1421839070117336
513,3912.68,0.1437061975577522
514,3915.42,0.1408817277745126
515,3918.16,0.13731811799127303
516,3920.9100000000003,0.13853313853729166
517,3923.65,0.13078610875405203
518,3926.3900000000003,0.12396660897081241
519,3929.14,0.11306679951683106
520,3931.8799999999997,0.10179232973359145
521,3934.63,0.10684589027961008
522,3937.37,0.11710897049637048
523,3940.11,0.12782268071313085
524,3942.86,0.1354590012591495
525,3945.6000000000004,0.13366572147590988
526,3948.35,0.13722226202192853
527,3951.0899999999997,0.14072662223868893
528,3953.83,0.1348441724554493
529,3956.58,0.1251358330014679
530,3959.32,0.1189611132182283
531,3962.0699999999997,0.11153024376424697
532,3964.81,0.10370399398100735
533,3967.55,0.10407118419776773
534,3970.2999999999997,0.10499407474378637
535,3973.04,0.11993646496054677
536,3975.79,0.1274936155065654
537,3978.53,0.13778690572332578
538,3981.27,0.1411611959400862
539,3984.02,0.1422781864861048
540,3986.7599999999998,0.1472154167028652
541,3989.51,0.1503760072488838
542,3992.25,0.1509318374656442
543,3994.99,0.15508096768240462
544,3997.7400000000002,0.14953715822842323
545,4000.48,0.16058458844518364
546,4003.2200000000003,0.154979318661944
547,4005.97,0.15408650920796266
548,4008.7099999999996,0.15739673942472304
549,4011.46,0.15806502997074168
550,4014.2,0.15367196018750207
551,4016.94,0.15919359040426245
552,4019.69,0.1547319809502811
553,4022.4300000000003,0.15624741116704147
554,4025.18,0.15826360171306011
555,4027.9199999999996,0.1574243319298205
556,4030.66,0.15255046214658088
557,4033.41,0.16077685269259953
558,4036.15,0.1608801829093599
559,4038.9,0.15705387345537855
560,4041.6400000000003,0.15792080367213895
561,4044.38,0.14990983388889934
562,4047.13,0.15758572443491797
563,4049.87,0.15686895465167836
564,4052.62,0.163685045197697
565,4055.36,0.16047787541445738
566,4058.1,0.15855270563121776
567,4060.85,0.15105199617723641
568,4063.59,0.15232602639399678
569,4066.34,0.14888621694001541
570,4069.08,0.15412324715677583
571,4071.8199999999997,0.1484255773735362
572,4074.57,0.15511916791955482
573,4077.31,0.14859189813631524
574,4080.05,0.1575241283530756
575,4082.7999999999997,0.14945591889909426
576,4085.5399999999995,0.14962144911585465
577,4088.29,0.15047073966187327
578,4091.0299999999997,0.14715036987863367
579,4093.77,0.13660178009539403
580,4096.52,0.1345307306414127
581,4099.26,0.13473775085817308
582,4102.01,0.1349234014041917
