,lambda (Angstroms),Total Flux (erg/s/cm^2/Angstrom)
0,102.05000000000001,19.167897559979007
1,103.95,19.113265684430882
2,104.712855,19.091330842630214
3,105.88,18.915046949058716
4,108.10000000000001,18.57974135829773
5,110.11,18.27615386396009
6,113.98,17.691634658444322
7,117.97999999999999,17.08748044085698
8,120.22644299999999,16.748180937602132
9,121.01,16.64895913709936
10,124.97,16.147504450342716
11,127.0,15.89044560839425
12,127.88000000000001,15.77901123355946
13,130.86,15.401653918778015
14,132.07,15.248431653380255
15,133.91,15.015432505998495
16,137.03,14.620346995220949
17,138.038426,14.492650039678866
18,139.9,14.324153330258763
19,143.16,14.02908084176114
20,147.17,13.666123578309977
21,150.94,13.324889442843007
22,155.17,12.94201931207016
23,158.489319,12.64157768096299
24,159.14999999999998,12.596367601970528
25,162.10999999999999,12.393816243879545
26,165.89,12.135152685247103
27,170.14000000000001,11.844327255572889
28,172.91,11.6547775049535
29,176.93,11.37969086326923
30,179.81,11.18261386625723
31,181.89000000000001,11.040280479530706
32,181.970086,11.03480023356504
33,186.13000000000002,10.81763115244599
34,190.9,10.568612418725342
35,194.0,10.406776344429122
36,198.07000000000002,10.194301240468121
37,202.21,9.978171773603098
38,205.03,9.830953151315617
39,208.929613,9.627373132402402
40,209.79999999999998,9.593211655721161
41,216.17999999999998,9.342805547961065
42,220.20000000000002,9.185026151056798
43,222.75,9.08494220536703
44,226.89000000000001,8.922452975973489
45,230.04,8.798819869052684
46,233.78,8.652030087646345
47,239.78,8.4165384576368
48,239.88329199999998,8.412484390651054
49,245.93,8.229599757978644
50,252.24,8.038751778425178
51,256.93,7.89690121345155
52,259.9,7.807072613844948
53,264.13,7.6791349061026795
54,269.04,7.53063037898553
55,274.04,7.379403773553874
56,275.42287,7.337578426570419
57,279.13,7.251528768319111
58,284.32,7.131058830892287
59,290.28000000000003,6.992715701054445
60,295.67,6.86760338277721
61,301.17,6.7399377456331075
62,308.19,6.576989978878278
63,316.227766,6.390417900671271
64,318.28000000000003,6.354838244508663
65,327.95,6.187189105379904
66,337.92,6.014338857695882
67,348.19000000000005,5.836287502886393
68,357.12,5.681467789822754
69,363.078055,5.578172797954839
70,366.28000000000003,5.536600033779059
71,374.81,5.425849947059592
72,385.31,5.2895221467021685
73,395.2,5.161114414537384
74,405.33,5.029590616044124
75,413.82,4.919359901521568
76,416.86938299999997,4.87976794638353
77,421.51,4.833755862726501
78,430.34000000000003,4.746205715543752
79,441.37999999999994,4.636743306438414
80,450.62,4.5451280229016975
81,460.06,4.4515296910768
82,469.68999999999994,4.3560475492993325
83,478.630092,4.267405936647461
84,479.53000000000003,4.260543605524454
85,489.57,4.18398258440553
86,499.82,4.105820336587306
87,505.61,4.061668786908253
88,511.46,4.017066009461688
89,519.77,3.953698558604069
90,529.43,3.8800369909423957
91,540.52,3.795469442243984
92,549.5408739999999,3.726688117016961
93,550.57,3.7207024485819056
94,559.52,3.66864583683569
95,569.92,3.6081545474887458
96,580.51,3.5465510249883945
97,589.9499999999999,3.4916519913165533
98,599.53,3.435930766841676
99,610.68,3.3710877180791825
100,620.6,3.3133983250397887
101,630.68,3.254778105781212
102,630.957344,3.2531649605049573
103,639.46,3.21396141135793
104,649.85,3.1660766584152875
105,657.37,3.131419718909545
106,664.99,3.0962963277593105
107,674.24,3.0536501172438686
108,685.1899999999999,3.0031633048720763
109,694.72,2.9593002717920585
110,704.39,2.9147083356297534
111,715.8299999999999,2.862032194919954
112,724.43596,2.8223761698813834
113,725.7900000000001,2.8177459665955165
114,734.2,2.7889925746286606
115,744.41,2.754132901625499
116,754.77,2.7187350585609766
117,765.27,2.6828612993658543
118,774.13,2.6526271896149214
119,784.9000000000001,2.615857699489352
120,795.82,2.5785497540024243
121,805.0300000000001,2.547102134574988
122,814.3499999999999,2.515274540909221
123,825.6800000000001,2.4766518820612453
124,831.763771,2.4556946353753086
125,835.24,2.4467247186150103
126,844.91,2.422346763074149
127,854.7,2.3973882206361927
128,864.5899999999999,2.3722586089506588
129,874.61,2.346808233543272
130,884.7299999999999,2.321161533888307
131,894.9799999999999,2.2951229085114893
132,905.34,2.2686634380623345
133,915.8199999999999,2.2434406267160862
134,924.3,2.248963842321411
135,935.0,2.2622989498304893
136,945.83,2.306768468617715
137,954.58,2.3545495969545778
138,954.992586,2.3545307471377184
139,965.63,2.3546326815390373
140,974.57,2.125833950702718
141,985.85,2.2647691738085705
142,994.98,2.267308514531658
143,1004.18,2.37376601635558
144,1015.8100000000001,2.341988024965603
145,1025.21,2.11673254422048
146,1034.7,2.186645256319286
147,1044.27,2.4282741953904745
148,1053.93,2.4042335273055926
149,1066.14,2.259519256465385
150,1076.0,2.3312142058114578
151,1085.96,2.1964795138730078
152,1096.0,2.3277236489069404
153,1096.4782,2.3259455203740087
154,1106.15,2.2943705892088198
155,1113.81,2.260084093748349
156,1124.12,2.1907770647408484
157,1134.52,2.3264098651600515
158,1145.02,2.2502576982755933
159,1155.61,2.2814192608178407
160,1166.31,2.2898453593260597
161,1174.39,2.06582500119021
162,1185.26,2.2497484552822042
163,1196.22,2.0076641388009038
164,1204.52,1.8612964525969988
165,1215.6599999999999,1.7518885949691079
166,1224.0900000000001,1.9782173512704424
167,1235.41,2.2270687524959603
168,1243.98,2.2967366545721695
169,1255.49,2.2375947179207305
170,1258.92541,2.1849048256805643
171,1264.19,2.107258448700003
172,1275.89,2.320555668573551
173,1284.73,2.365240556922454
174,1293.64,2.131224762826156
175,1305.6100000000001,2.1145368646967855
176,1314.66,2.320802505710086
177,1323.77,2.2711321760560708
178,1336.02,2.1378727481458966
179,1345.2800000000002,2.3150317418235935
180,1354.6,2.2766776648339757
181,1363.99,2.1540837053991564
182,1373.45,2.1992001635191363
183,1386.1599999999999,2.200297293826213
184,1395.77,2.065528775277905
185,1405.44,2.093448286062282
186,1415.18,2.1008704144014576
187,1424.9899999999998,2.123304060295433
188,1434.8700000000001,2.1084611237442066
189,1441.49,2.1608146267837696
190,1445.43977,2.1664955085789366
191,1448.15,2.1715894945736856
192,1454.83,2.1388137333252706
193,1464.92,2.0509053470982472
194,1475.07,2.0461505657103105
195,1485.29,2.0602117899679744
196,1495.59,2.0747774206777527
197,1505.96,2.0084726570331313
198,1512.91,1.8979954175606029
199,1516.3999999999999,1.9609038990341108
200,1523.4,1.9293395635941541
201,1533.95,1.8042721144667913
202,1544.5900000000001,1.8761242725980574
203,1555.29,1.8249767355684101
204,1566.07,1.8324894049908769
205,1573.3,1.8812020881007505
206,1584.21,1.920267968007904
207,1595.19,1.9263382535606581
208,1606.25,1.905541745565527
209,1613.66,1.9129495431926584
210,1624.85,1.8535352456822143
211,1636.1100000000001,1.9039722538173698
212,1643.66,1.9137674627357024
213,1655.06,1.8341200821620594
214,1659.58691,1.8627584219108386
215,1666.53,1.9088038026429377
216,1670.37,1.8084873539058064
217,1678.0800000000002,1.898774626363285
218,1685.8300000000002,1.9428671253964187
219,1693.6100000000001,1.8815616943612934
220,1705.35,1.8329498943160016
221,1713.22,1.7709659730761
222,1725.09,1.7606277094016862
223,1733.06,1.8175684546009219
224,1745.07,1.7882961839413005
225,1753.12,1.8460084822918459
226,1765.28,1.75945346129093
227,1773.42,1.771796469436699
228,1785.72,1.7855970414505755
229,1793.96,1.8426170160354813
230,1806.3899999999999,1.8310405244202363
231,1814.73,1.7389986654442795
232,1823.11,1.7638830330439772
233,1835.7499999999998,1.7169043309509204
234,1844.22,1.6384471083458418
235,1857.0,1.6212299992675772
236,1865.57,1.6408455431016358
237,1874.19,1.722242070155263
238,1882.8400000000001,1.6330941671406318
239,1895.89,1.579980487448037
240,1904.6399999999999,1.637171050872543
241,1905.46072,1.6327672942410212
242,1913.43,1.5915273450285365
243,1926.69,1.5687098374515824
244,1935.5900000000001,1.6064063904353767
245,1944.5200000000002,1.6242714391033857
246,1953.5,1.5576668139117533
247,1967.04,1.6340533327208067
248,1976.1200000000001,1.6591275598098907
249,1985.24,1.596428847811262
250,1994.4,1.5672929967249196
251,2003.6100000000001,1.5963223717789357
252,2012.85,1.557195242517167
253,2026.81,1.5989653009052305
254,2036.1599999999999,1.5323738891522503
255,2045.56,1.558602903539628
256,2055.0,1.517923678839293
257,2064.49,1.519003480279316
258,2074.02,1.566815542631626
259,2078.8,1.5036590216498882
260,2083.5899999999997,1.5384728658962226
261,2093.21,1.4845342153011774
262,2102.87,1.4926798256184193
263,2112.58,1.4934067620760192
264,2127.22,1.496326455972957
265,2137.04,1.4378187099393456
266,2146.9,1.4398060248180207
267,2156.81,1.4675938658370544
268,2166.77,1.4400795329964464
269,2176.77,1.4256111610681252
270,2186.8199999999997,1.3970733152801624
271,2187.7616199999998,1.399719082247394
272,2196.91,1.4269732289558827
273,2207.05,1.4014522693121156
274,2217.2400000000002,1.3661702017805588
275,2227.47,1.3321215679387703
276,2232.6099999999997,1.3728233970739812
277,2242.91,1.3359707721892868
278,2253.27,1.3094393978392447
279,2263.67,1.3284318571789706
280,2274.12,1.3430385086309071
281,2284.61,1.3563546937726114
282,2295.16,1.3169784294489684
283,2305.75,1.3114872988150932
284,2316.3900000000003,1.2785738602934282
285,2327.09,1.1335347723064157
286,2332.4500000000003,1.2403313867353516
287,2343.22,1.2304463077054335
288,2354.03,1.261737462365283
289,2364.9,1.2210863675597854
290,2375.81,1.2306457064440557
291,2386.78,1.1969941958629784
292,2392.2799999999997,1.2353708282061029
293,2403.33,1.2041481850045619
294,2414.42,1.216611075492789
295,2425.56,1.2373084580932265
296,2436.76,1.206976791228316
297,2442.38,1.242284224640745
298,2453.65,1.2270763667329287
299,2464.98,1.224521059359765
300,2476.35,1.2001868856763696
301,2487.78,1.2257448625276264
302,2493.52,1.1818268970093597
303,2505.0299999999997,1.2372626412401528
304,2510.8,1.1830773509892123
305,2511.88643,1.1882180837974081
306,2516.59,1.2108989167318356
307,2522.39,1.1782997267952267
308,2534.0299999999997,1.1811981918189975
309,2545.73,1.1643686241882514
310,2557.4799999999996,1.194940562678742
311,2563.38,1.187052584984605
312,2575.21,1.2173869132690731
313,2587.1,1.2108405088990244
314,2593.06,1.2075683985503711
315,2605.0299999999997,1.1850342839743004
316,2617.05,1.1801645755194656
317,2623.09,1.19445265496479
318,2635.19,1.1976135363039333
319,2647.36,1.2309975462128069
320,2653.46,1.2276062930036147
321,2665.71,1.1859686927064663
322,2678.01,1.207307698530554
323,2684.19,1.2005832351153396
324,2696.58,1.1790838919576523
325,2702.79,1.1871851122151795
326,2715.27,1.1674834200757171
327,2727.8,1.167243634057491
328,2734.09,1.193506144108996
329,2746.71,1.1289394091089948
330,2753.04,1.1318385640574888
331,2765.75,1.1439884800757127
332,2772.1200000000003,1.1664076799211955
333,2784.92,1.1563572469576444
334,2797.77,1.0603809201153296
335,2804.2200000000003,1.0964194097547901
336,2817.17,1.1605452951549478
337,2823.66,1.1637454296913972
338,2836.69,1.1307792048855323
339,2843.23,1.1226223455432178
340,2856.36,1.1205776329798254
341,2862.94,1.1446057185344998
342,2876.16,1.1311378569893324
343,2882.79,1.1341984486652432
344,2884.0315,1.133096708730724
345,2896.09,1.1233304110333222
346,2909.46,1.148641965013585
347,2929.6299999999997,1.1329632644737122
348,2949.9399999999996,1.1223292733996013
349,2970.38,1.1231672554008405
350,2990.97,1.1190520832582536
351,3011.71,1.1198500569718401
352,3032.5800000000004,1.1173459037607767
353,3046.58,1.1095677503369683
354,3067.7,1.1020658068861942
355,3088.96,1.099447872901182
356,3110.37,1.0886068847723431
357,3131.93,1.081041242499678
358,3146.39,1.0797705630348013
359,3168.2,1.0705367305224252
360,3190.1600000000003,1.0486572438662225
361,3212.27,1.0552931030661936
362,3227.1,1.0443975700465449
363,3249.47,1.0446357753972164
364,3272.0,1.041693162994473
365,3287.1,1.0370580125159365
366,3309.88,1.032475409873482
367,3311.31121,1.033233099242814
368,3325.16,1.041317510785221
369,3332.83,1.035374550215444
370,3340.5099999999998,1.0091820696188485
371,3348.2099999999996,1.033106248968616
372,3355.93,1.0099889882647464
373,3363.66,1.0073306075340585
374,3371.42,0.987953466722915
375,3379.19,1.0127890058849531
376,3386.98,1.0337957049933544
377,3394.79,1.0262340640481185
378,3402.6099999999997,1.0155900030760643
379,3410.46,0.9927946820235545
380,3418.32,1.0101491409442263
381,3426.2,1.018422659811261
382,3434.1,1.0156756386246588
383,3442.0099999999998,1.0050786974112382
384,3449.95,1.002346196117362
385,3457.8999999999996,0.9811265747966675
386,3465.87,0.981157813422336
387,3473.8599999999997,0.9918794119943675
388,3481.8700000000003,0.9842527705127617
389,3489.9,0.9966113889775194
390,3497.94,0.9920090874154585
391,3506.0099999999998,0.9782402257729421
392,3514.09,0.9722060441036072
393,3522.19,0.9843781223806354
394,3530.31,0.9782779606040266
395,3538.4500000000003,0.9844146587737808
396,3546.6,0.9875286369167166
397,3554.78,0.9906511549791968
398,3562.97,0.9891320530148586
399,3568.73,0.7902572175674119
400,3571.4,0.7057504704068768
401,3574.0699999999997,0.9519092232463416
402,3576.74,1.2626097760858066
403,3579.3999999999996,0.9623453489520898
404,3582.07,0.4742461017915546
405,3584.7400000000002,0.3016734416310194
406,3587.41,0.7228868074704844
407,3590.07,0.6810113803367676
408,3592.74,1.4951543331762325
409,3595.41,1.4930378860156974
410,3598.0800000000004,1.106069638855162
411,3600.75,0.542642291694627
412,3603.4100000000003,0.44863306456091023
413,3606.08,0.6920181174003751
414,3608.75,0.8576890702398399
415,3611.42,1.2739777230793048
416,3614.08,0.4881717959455881
417,3616.7500000000005,0.6225415487850529
418,3619.42,0.49096410162451776
419,3622.09,0.6269239544639826
420,3624.76,0.7730236073034473
421,3627.42,0.20785938016973074
422,3630.09,0.8733621330091955
423,3632.7599999999998,0.5454483858486605
424,3635.43,0.26490866868812535
425,3638.09,0.10524171155440856
426,3640.76,1.0755179643938733
427,3643.43,1.4804091172333382
428,3646.1,0.8523977700728032
429,3648.7599999999998,0.6434166429390864
430,3651.43,0.5460092957785513
431,3654.1,0.8893632486180161
432,3656.7699999999995,1.2654483014574809
433,3659.44,1.1227286542969457
434,3662.1,0.9804148271632291
435,3664.77,0.581908180002694
436,3667.44,1.3581897328421588
437,3670.1099999999997,1.2506059856816236
438,3672.77,0.8003222585479068
439,3675.4399999999996,1.0068184113873717
440,3678.11,1.2397560642268366
441,3680.78,1.3379988170663015
442,3683.45,0.5493135699057662
443,3686.11,0.9791484427720496
444,3688.7799999999997,0.8565606956115144
445,3691.45,0.7187891484509792
446,3694.1200000000003,1.0446543012904441
447,3696.78,1.2281191741567274
448,3699.4500000000003,0.6862037269961923
449,3702.12,0.8469067798356571
450,3704.79,0.7855568326751219
451,3707.46,0.7468227855145867
452,3710.12,0.8678868583808701
453,3712.7900000000004,1.0478406112203347
454,3715.46,1.1853863640597997
455,3718.13,0.7061122168992645
456,3720.79,1.0194021897655479
457,3723.46,1.4653989426050127
458,3726.13,1.6158254954444775
459,3728.7999999999997,2.2296070482839423
460,3731.4700000000003,1.9813186011234072
461,3734.13,1.7429154739896906
462,3736.8,1.1234964268291554
463,3739.47,0.8925364796686202
464,3742.14,0.9485929325080851
465,3744.7999999999997,0.9905719053743683
466,3747.47,1.2095877582138332
467,3750.1400000000003,1.202803811053298
468,3752.81,0.9669962638927628
469,3755.4700000000003,0.8026066367590461
470,3758.14,1.1687369895985111
471,3760.81,1.2607503424379758
472,3763.48,1.1413675952774407
473,3766.1499999999996,1.1904527481169056
474,3768.8100000000004,0.9073750209831888
475,3771.48,0.7111301738226536
476,3774.15,1.0073888266621185
477,3776.82,1.1661281795015834
478,3779.48,0.8872971523678665
479,3782.15,1.1240414052073315
480,3784.8199999999997,1.2597241580467964
481,3787.4900000000002,1.1086310108862611
482,3790.1600000000003,0.954633663725726
483,3792.82,0.4787962365920093
484,3795.4900000000002,0.9588598894314742
485,3798.16,1.287129342270939
486,3800.83,0.7755632951104039
487,3801.8939600000003,0.7292158267084328
488,3803.49,0.6597513719052104
489,3806.1600000000003,1.1506422449203328
490,3808.8300000000004,1.2506304179354555
491,3811.5,1.3071691909505783
492,3814.17,1.3546139639657009
493,3816.83,1.187022274160542
494,3819.5,1.3237484471756646
495,3822.1699999999996,1.4547462201907875
496,3824.8399999999997,0.7940653932059101
497,3827.5,0.9953191034007514
498,3830.17,0.959651676415874
499,3832.84,1.0748441494309966
500,3835.5099999999998,0.9132366224461193
501,3838.18,0.8404704954612419
502,3840.8399999999997,1.0895403056560833
503,3843.5099999999998,1.2610022786712058
504,3846.1800000000003,0.6467550516863285
505,3848.85,0.9888681247014512
506,3851.51,1.3849925348962926
507,3854.18,1.540148307911415
508,3856.85,1.3261370809265376
509,3859.52,1.0335210539416604
510,3862.18,1.2917065641365015
511,3864.8500000000004,1.1120494371516243
512,3867.52,1.5391181101667468
513,3870.19,1.4842998831818695
514,3872.86,1.4094296561969923
515,3875.52,1.4420773663918336
516,3878.19,1.0667487394069561
517,3880.8599999999997,1.4505479124220788
518,3883.53,1.3506176854372014
519,3886.19,1.3562023956320426
520,3888.86,1.0033096686471654
521,3891.53,0.585394341662288
522,3894.2,0.5449800146774106
523,3896.87,1.3516704876925334
524,3899.5299999999997,1.2074366978873745
525,3902.2000000000003,1.2841879709024973
526,3904.87,0.7473835439176199
527,3907.54,1.1058827169327425
528,3910.2,1.1679158271275838
529,3912.87,1.5910580001427066
530,3915.54,1.4461367731578292
531,3918.2099999999996,1.4032175461729517
532,3920.88,1.3351183191880742
533,3923.54,1.2411036293829156
534,3926.21,1.486582802398038
535,3928.88,1.6154165754131609
536,3931.5499999999997,0.9621676484282835
537,3934.21,0.7368026586231248
538,3936.8799999999997,1.3448598316382476
539,3939.55,0.79148880465337
540,3942.2200000000003,0.9685597776684927
541,3944.89,1.0684677506836153
542,3947.55,1.0408381608784567
543,3950.22,1.4701106338935794
544,3952.89,1.365132406908702
545,3955.5600000000004,1.4382171799238246
546,3958.2200000000003,1.083648290118666
547,3960.8900000000003,1.4305696631337885
548,3963.56,1.4015924361489112
549,3966.23,1.0455756091640338
550,3968.9,1.1372303821791565
551,3971.56,0.6940393923739977
552,3974.2300000000005,0.9090109653891203
553,3976.9,0.9268087384042429
554,3979.57,0.8249964114193655
555,3982.23,1.356315721614207
556,3984.9,1.3007964946293296
557,3987.5699999999997,1.0696977676444521
558,3990.24,1.1605113406595748
559,3992.8999999999996,1.430335750854416
560,3995.57,1.3531415238695388
561,3998.2400000000002,1.9770022968846614
562,4000.91,1.2915220698997842
563,4003.58,1.2496240429149066
564,4006.24,1.252403353109748
565,4008.91,1.3699793261248707
566,4011.58,1.2523413991399932
567,4014.2499999999995,1.651964872155116
568,4016.9100000000003,1.5484165823499572
569,4019.58,1.33809135536508
570,4022.25,1.5690271283802024
571,4024.92,1.633537901395325
572,4027.5899999999997,1.3495156744104477
573,4030.25,1.201776184605289
574,4032.9199999999996,1.2958151576204118
575,4035.59,1.5670549306355344
576,4038.26,1.378764703650657
577,4040.92,1.3431634138454982
578,4043.59,1.508916186860621
579,4046.2599999999998,1.4232889598757434
580,4048.93,1.364063732890866
581,4051.6000000000004,1.3027545059059886
582,4054.26,0.95417531610083
583,4056.9300000000003,1.0417439891159526
584,4059.6,1.4256637621310753
585,4062.27,1.477294535146198
586,4064.93,1.5032912453410392
587,4067.6,1.788835018356162
588,4070.2700000000004,1.2782117913712847
589,4072.94,1.1687263643864072
590,4075.6,1.0673794745812484
591,4078.27,1.382170047596371
592,4080.94,1.5348618206114937
593,4083.6099999999997,1.2990955936266164
594,4086.2799999999997,1.277049366641739
595,4088.9399999999996,1.4987980768365803
596,4091.61,1.290354849851703
597,4094.28,1.2840136228668255
598,4096.95,1.3690983958819483
599,4099.610000000001,1.3466181060767894
600,4102.28,1.2138552790919122
601,4104.95,1.128368352107035
602,4107.62,0.9922812251221576
