,lambda (Angstroms),Total Flux (erg/s/cm^2/Angstrom)
0,101.99,20.071288429506243
1,103.89,20.014105962591668
2,104.712855,19.989342905741793
3,106.07000000000001,19.77473742558045
4,108.03999999999999,19.46323266114427
5,110.05,19.1454421833835
6,113.91,18.53510499216033
7,117.92,17.90105036776994
8,120.22644299999999,17.537140570756716
9,120.94000000000001,17.44279182649019
10,124.89999999999999,16.918057792737713
11,126.92999999999999,16.64902792100601
12,128.10999999999999,16.492669913817142
13,131.09,16.09773321683169
14,132.0,15.977446609262305
15,134.14000000000001,15.693823736648588
16,136.95000000000002,15.321881830571703
17,138.038426,15.177650745874061
18,140.14000000000001,14.978636055698404
19,143.07999999999998,14.705558192485618
20,147.09,14.337232718569533
21,150.86,13.980982308895307
22,155.09,13.581505590507522
23,158.489319,13.260680665477377
24,159.06,13.220015614856925
25,162.02,13.008986905351046
26,166.18,12.712776227667112
27,170.04999999999998,12.436804894292875
28,172.81,12.240284879483337
29,176.83999999999997,11.952968462352025
30,180.12,11.719001055331997
31,181.79000000000002,11.600110913617533
32,181.970086,11.587268061857948
33,186.03,11.366702105207978
34,190.8,11.107701035196573
35,193.9,10.939625251394613
36,197.96,10.719037503124948
37,202.1,10.494315421982973
38,204.91,10.34176821734313
39,208.929613,10.121980675893928
40,210.17000000000002,10.070984830112236
41,216.06,9.832865311902493
42,220.07999999999998,9.66926895161333
43,223.14000000000001,9.543960772288742
44,226.76000000000002,9.396990684068154
45,229.92,9.292585476726424
46,234.19,9.166892116394404
47,239.88329199999998,8.9638777302034
48,240.2,8.95556990520179
49,245.79,8.767028872891482
50,252.1,8.575501746437446
51,256.79,8.398397806806791
52,259.76,8.326662430963925
53,263.98,8.20070844306598
54,268.89,8.043800194113635
55,273.89,7.883334945893321
56,275.42287,7.833853526608181
57,278.98,7.74522380443049
58,284.17,7.618749716431937
59,290.12,7.465824291847854
60,296.19,7.31766093517132
61,301.0,7.19540341546553
62,308.02,7.025401138057084
63,316.227766,6.825920185572788
64,318.11,6.7917524917396355
65,327.77,6.613339437045103
66,337.72999999999996,6.427768260155089
67,347.98999999999995,6.236927061069593
68,356.92,6.073424463717399
69,363.078055,5.9627693575884395
70,366.08000000000004,5.922510313634441
71,374.6,5.803075483521641
72,385.1,5.651098180213613
73,394.97999999999996,5.520912998815202
74,405.10999999999996,5.383997160195172
75,413.59,5.265589199237831
76,416.86938299999997,5.219103861086088
77,422.25,5.160120483618829
78,430.1,5.07524020064104
79,441.14,4.960392554516865
80,451.41,4.850737485703884
81,459.8,4.758695897209152
82,470.51000000000005,4.644916212789774
83,478.630092,4.560615126340638
84,480.37000000000006,4.546722588099339
85,490.43,4.460224432255249
86,499.53999999999996,4.389504283046534
87,506.49,4.329457341871938
88,512.36,4.292376439714403
89,519.48,4.2325705461945295
90,530.36,4.141024516096746
91,540.22,4.054553350070629
92,549.5408739999999,3.9773483528541806
93,550.27,3.9726895663480164
94,560.5,3.9152044362290765
95,569.6,3.8616433242757666
96,580.19,3.793999614387245
97,589.62,3.735481605978487
98,600.58,3.6618950485490056
99,610.34,3.5938799336847973
100,620.26,3.5443472244785523
101,630.34,3.479180340930271
102,630.957344,3.4755175739949578
103,640.58,3.430572667588107
104,649.4900000000001,3.3846727843363538
105,658.53,3.3372088277823866
106,664.6199999999999,3.3105267407786636
107,675.4200000000001,3.2583806525947185
108,684.81,3.2067278325347908
109,694.3399999999999,3.1638646950724776
110,705.62,3.1020618800803583
111,715.4399999999999,3.060241603713107
112,724.43596,3.016036713293998
113,725.3900000000001,3.0125358225895535
114,735.48,2.9753942478046795
115,745.71,2.9364163300495503
116,754.35,2.9039959595994707
117,764.8399999999999,2.8600227077567233
118,775.48,2.826096942017273
119,784.46,2.790165430068
120,795.38,2.7522065183880375
121,804.59,2.7190764851304867
122,815.78,2.67826289843646
123,825.23,2.6438092129441846
124,831.763771,2.6155327318464656
125,834.78,2.6052091803260513
126,844.45,2.584027085458609
127,854.23,2.5565181786019817
128,864.12,2.53013021975617
129,874.12,2.502699068921173
130,884.25,2.474822065735321
131,894.48,2.446689850741119
132,904.8399999999999,2.417617373396062
133,915.32,2.389143653880985
134,925.92,2.395432822195888
135,934.49,2.4073249972202957
136,945.3100000000001,2.408129821556829
137,954.0500000000001,2.4024486035070414
138,954.992586,2.4007654221573445
139,965.1,2.3833014594021473
140,974.0300000000001,2.271681517889482
141,985.31,2.2988478359787465
142,994.4300000000001,2.2696260561360244
143,1005.94,2.26527822993101
144,1015.25,2.2427149317582318
145,1024.64,2.1680486416570077
146,1034.1200000000001,2.1731575481362837
147,1046.1,2.1844022818516557
148,1055.78,2.151994258509819
149,1065.55,2.1008338317484823
150,1075.41,2.086888601567644
151,1085.36,2.0372350679673064
152,1095.4,2.0356200309474675
153,1096.4782,2.031972104792502
154,1105.54,2.0056179528761824
155,1115.77,1.9790571590569639
156,1126.09,1.9401319189578106
157,1133.89,1.9440616746968227
158,1144.39,1.9131733420378003
159,1154.98,1.8901069630988443
160,1165.66,1.8645147378799534
161,1173.74,1.8065488940813914
162,1184.6,1.8161278763026316
163,1195.56,1.772864351546167
164,1203.8500000000001,1.7384234130944247
165,1214.99,1.693256235778091
166,1226.23,1.7028305914840522
167,1234.73,1.7042245983791298
168,1246.16,1.6827651208274512
169,1254.79,1.6599648386515127
170,1258.92541,1.6487918538205175
171,1266.41,1.633181905302515
172,1275.1799999999998,1.6333281049273225
173,1284.02,1.6210782117327147
174,1295.9,1.5835755303806858
175,1304.8899999999999,1.569270352573048
176,1313.93,1.5706019798943998
177,1326.0900000000001,1.5459500272647133
178,1335.28,1.5225034699730347
179,1344.54,1.5183155198619416
180,1353.8600000000001,1.5002534759056356
181,1366.38,1.4714168602046762
182,1375.8500000000001,1.4569298316353398
183,1385.3899999999999,1.4410105102465898
184,1395.0000000000002,1.4030520960384245
185,1404.66,1.3862079969592498
186,1414.4,1.3882845860864583
187,1424.2099999999998,1.370864992394253
188,1434.0800000000002,1.3579274048568346
189,1440.7,1.3492688839350813
190,1445.43977,1.3420170231165613
191,1447.3500000000001,1.3399769132818689
192,1454.03,1.3292130317103108
193,1464.1100000000001,1.3124447961652048
194,1474.26,1.3016063885677023
195,1484.47,1.2911502677824314
196,1494.76,1.2792690560801359
197,1505.13,1.2634062534608155
198,1512.0700000000002,1.2486684014089269
199,1515.56,1.2477225776537266
200,1526.06,1.2351067397942415
201,1536.6399999999999,1.2128664110177316
202,1543.74,1.2014046971317938
203,1554.44,1.1886769919797469
204,1565.21,1.1825341547753034
205,1576.06,1.1746811866538351
206,1583.33,1.16857499206922
207,1594.31,1.157031558707587
208,1605.3600000000001,1.143025793293557
209,1616.4899999999998,1.1298812369625029
210,1623.95,1.119628673949954
211,1635.21,1.1106056023787345
212,1646.54,1.0983293387551185
213,1654.14,1.0873891316377766
214,1659.58691,1.0829137007222016
215,1665.61,1.079891974292123
216,1673.3,1.0676041646905268
217,1677.15,1.0728962802345912
218,1684.89,1.0672908040816194
219,1696.57,1.0546116796802356
220,1704.41,1.046336610424512
221,1716.22,1.033872974989551
222,1724.14,1.0268360912516263
223,1736.0900000000001,1.0211370554728132
224,1744.1100000000001,1.0134972386321368
225,1756.2,1.0065958825094716
226,1764.3,0.9966375811865942
227,1776.53,0.9868609347200766
228,1784.73,0.9816753302944475
229,1792.97,0.9779329586277178
230,1805.4,0.9679849259556971
231,1813.73,0.9567361104964909
232,1826.3,0.9482432474806182
233,1834.73,0.9401256489186605
234,1843.2,0.928916503115602
235,1855.98,0.9196322745839509
236,1864.5400000000002,0.9146347949884159
237,1873.15,0.9107982088415054
238,1886.13,0.896534074104351
239,1894.8400000000001,0.8882604948546888
240,1903.59,0.8844427983639266
241,1905.46072,0.8827132914497514
242,1916.78,0.8745104412749057
243,1925.63,0.8672980674010325
244,1934.5200000000002,0.8633349896678426
245,1943.4499999999998,0.8618023980753359
246,1956.92,0.8504063584503562
247,1965.9499999999998,0.8501696672095569
248,1975.0300000000002,0.8457520011446114
249,1984.14,0.8390866121851783
250,1993.3000000000002,0.8328390784015989
251,2007.1200000000001,0.826216635007596
252,2016.38,0.8201891115757243
253,2025.69,0.8150863133197066
254,2035.04,0.8090308912043719
255,2044.43,0.80590738522972
256,2053.87,0.7956119644309223
257,2063.35,0.7914271497728074
258,2072.87,0.7914276512553756
259,2077.65,0.7990931200670012
260,2087.24,0.8026856447957648
261,2096.88,0.7924148447003821
262,2106.56,0.7862541407456826
263,2116.28,0.7854885529316661
264,2126.0499999999997,0.7759109102935036
265,2135.86,0.7671881337960238
266,2145.7200000000003,0.7702672624743979
267,2155.62,0.7655733772934555
268,2165.57,0.7535728872883664
269,2175.57,0.7482578624591314
270,2185.61,0.7519542537705795
271,2187.7616199999998,0.7507347493508578
272,2195.7,0.7476427367546111
273,2205.83,0.7421868519298755
274,2216.0099999999998,0.7264914164100527
275,2226.24,0.728335220195142
276,2236.52,0.7394567732851438
277,2246.84,0.7319828538190756
278,2257.21,0.7143124036579198
279,2262.42,0.7092812932297982
280,2272.8599999999997,0.7096818860955201
281,2283.35,0.7216721082661541
282,2293.89,0.7053370897417007
283,2304.48,0.7126045905221599
284,2315.12,0.6981690106075313
285,2325.8,0.6807013181368329
286,2336.54,0.6752552968320295
287,2347.32,0.6602346029711558
288,2352.73,0.679704679762684
289,2363.59,0.6563865507896703
290,2374.5,0.6598884111215692
291,2385.46,0.6418668407583806
292,2396.47,0.6435692297001043
293,2407.54,0.638973779807723
294,2413.09,0.6414739226530062
295,2424.22,0.6609683139265199
296,2435.41,0.6571898863659285
297,2446.65,0.6650615781102495
298,2452.3,0.6678127795653576
299,2463.61,0.650751604336556
300,2474.99,0.6388441221346322
301,2486.41,0.612069767376638
302,2492.14,0.6156741637196059
303,2503.64,0.6378821538494719
304,2511.88643,0.6080651540356747
305,2515.2000000000003,0.596397343943405
306,2526.81,0.5901889623863704
307,2532.64,0.6066574844124244
308,2544.3300000000004,0.605547069830018
309,2556.0699999999997,0.6480074408567548
310,2567.87,0.6179413446144627
311,2573.7900000000004,0.6377909207369736
312,2585.67,0.6232714414693101
313,2597.6,0.6113147178107895
314,2603.59,0.5997936637861006
315,2615.6099999999997,0.5902966942240371
316,2627.68,0.6075389402711162
317,2633.74,0.6693631660992274
318,2645.9,0.7154728062427635
319,2652.0,0.7996581505581888
320,2664.24,0.6860144876763538
321,2676.5299999999997,0.7069888104036615
322,2682.7000000000003,0.7400090145718866
323,2695.09,0.66934630851748
324,2707.53,0.7090421880722162
325,2713.77,0.6472033520932414
326,2726.29,0.6086868286226061
327,2732.58,0.6405695782527743
328,2745.19,0.574609258878596
329,2757.8599999999997,0.6013411222353893
330,2764.22,0.6361264317183573
331,2776.98,0.6419719991716075
332,2783.3799999999997,0.5759195571418898
333,2796.23,0.5232442486915971
334,2802.67,0.5302230551491937
335,2815.61,0.6113363007953581
336,2822.1000000000004,0.6758175928620975
337,2835.13,0.6588490626047192
338,2848.21,0.5963149179564835
339,2854.78,0.5370202169978514
340,2867.96,0.6483750335679015
341,2874.57,0.7280678710965836
342,2884.0315,0.7057470451430156
343,2887.8399999999997,0.6970714381779681
344,2894.5,0.7620237018758775
345,2907.8500000000004,0.87884447550457
346,2928.0099999999998,0.8147638439955396
347,2948.31,0.7782547949065852
348,2968.7400000000002,0.7905536794934157
349,2989.3199999999997,0.7915527952446137
350,3010.04,0.7866365934158879
351,3030.91,0.8123825227515293
352,3051.92,0.8250177345072469
353,3073.07,0.8670100286830409
354,3087.26,0.8506728968321904
355,3108.66,0.9304542096152632
356,3130.2000000000003,0.881852004818412
357,3151.9,0.8809409799302195
358,3166.4500000000003,0.9313957028738507
359,3188.4,0.8474973965929369
360,3210.5,0.8947788214763904
361,3232.75,0.8049597775242114
362,3247.68,0.9941924527509065
363,3270.19,1.1016394761502974
364,3292.86,1.0821528794583468
365,3308.05,1.026635022036612
366,3311.31121,1.01835830438852
367,3323.32,0.9885643320076445
368,3330.99,1.014127755112238
369,3338.66,0.9444829782168317
370,3346.3599999999997,1.047617254997193
371,3354.07,1.0230461496694767
372,3361.81,0.9632280980175283
373,3369.56,0.9749083642575022
374,3377.3199999999997,0.9540955483893987
375,3385.11,0.9585581861970629
376,3392.9100000000003,1.0299969418966497
377,3400.73,1.1066470333800815
378,3408.57,1.0247125606473584
379,3416.43,0.9472361236984803
380,3424.31,1.1085494225334476
381,3432.2000000000003,1.1507649392603372
382,3440.11,1.0328319917710718
383,3448.04,0.8912261800656517
384,3455.99,1.0056753041440767
385,3463.96,0.8927901640063467
386,3471.94,1.046024041760539
387,3479.95,0.8656822731904995
388,3487.9700000000003,0.9654814225123822
389,3496.0099999999998,0.9210126076181101
390,3504.07,1.1204976285076829
391,3512.15,1.045252785181101
392,3520.2400000000002,1.1218136597464416
393,3528.3599999999997,0.84216608798755
394,3536.49,1.0651816341205806
395,3538.4700000000003,1.265827476721245
396,3541.17,1.1567918075403327
397,3543.87,1.1050464383594205
398,3546.58,1.2687411870704306
399,3549.28,1.2760623178895183
400,3551.98,1.082569248708606
401,3554.6899999999996,1.1026874974196166
402,3557.3900000000003,1.127437728238704
403,3560.09,1.0854291590577918
404,3562.7999999999997,0.9657364077688021
405,3565.5,1.0558463385878896
406,3568.2000000000003,1.0537531694069775
407,3570.91,0.9468096181179877
408,3573.6099999999997,1.0277207489370754
409,3576.31,1.0940538797561632
410,3579.02,0.9484323284671734
411,3581.72,0.9419278592862612
412,3584.4199999999996,0.8740976901053489
413,3587.13,0.848104338816359
414,3589.83,0.9165456696354468
415,3592.5299999999997,1.0512514004545346
416,3595.2400000000002,1.1663163491655446
417,3597.94,1.1259218799846324
418,3600.64,1.0786415108037202
419,3603.3500000000004,1.1074205595147304
420,3606.05,1.0220001903338183
421,3608.75,1.0579933211529058
422,3611.46,1.070741869863916
423,3614.1600000000003,1.0240532006830039
424,3616.86,1.0204536315020916
425,3619.5699999999997,1.106254780213102
426,3622.2700000000004,1.1307361110321894
427,3624.9700000000003,1.1639858418512772
428,3627.68,1.2216521905622875
429,3630.38,1.1519399213813752
430,3633.0800000000004,1.140647952200463
431,3635.79,1.1095002009114732
432,3638.49,1.167979431730561
433,3641.19,1.1507701625496487
434,3643.9,1.1145119112606587
435,3646.6,1.0647569420797467
436,3649.2999999999997,1.1343717728988343
437,3652.0099999999998,1.1367377216098447
438,3654.71,1.2571880524289323
439,3657.41,1.22265718324802
440,3660.12,1.2315856319590304
441,3662.82,1.373392162778118
442,3665.52,1.2548348935972058
443,3668.23,1.234230442308216
444,3670.93,1.2140089731273038
445,3673.63,1.1855567039463915
446,3676.34,1.1485451526574015
447,3679.04,1.1858294834764893
448,3681.7400000000002,1.186964214295577
449,3684.4500000000003,1.1460795630065874
450,3687.15,1.168731793825675
451,3689.85,1.2242526246447627
452,3692.56,1.328235773355773
453,3695.26,1.3371706041748606
454,3697.96,1.3523994349939485
455,3700.6699999999996,1.3067266837049587
456,3703.3700000000003,1.2036081145240463
457,3706.07,1.1985027453431343
458,3708.7799999999997,1.1555199940541443
459,3711.4799999999996,1.158429824873232
460,3714.1800000000003,1.2133588556923196
461,3716.89,1.23697330440333
462,3719.5899999999997,1.143967935222418
463,3722.29,1.0058825660415054
464,3725.0,1.0873803147525156
465,3727.7,1.1252025455716035
466,3730.3999999999996,1.0454841763906912
467,3733.11,0.9785096251017014
468,3735.81,0.9921242559207891
469,3738.5099999999998,0.9367743867398769
470,3741.2200000000003,1.037530835450887
471,3743.92,0.9967594662699748
472,3746.62,1.0129560970890625
473,3749.3300000000004,0.9961180458000728
474,3752.03,1.0681533766191604
475,3754.73,1.1080198074382481
476,3757.44,1.0743437561492584
477,3760.1400000000003,1.051216986968346
478,3762.84,1.1198095177874339
479,3765.5499999999997,1.1355703664984442
480,3768.25,1.137135297317532
481,3770.9500000000003,1.1853400281366195
482,3773.66,1.24080077684763
483,3776.36,1.2780852076667175
484,3779.0600000000004,1.2743786384858051
485,3781.77,1.2662541871968154
486,3784.47,1.2819136180159032
487,3787.18,1.2004141667269135
488,3789.88,1.1317775975460012
489,3792.58,1.122099428365089
490,3795.29,1.0570613770760993
491,3797.99,1.024036407895187
492,3800.69,1.0873033387142745
493,3801.8939600000003,1.1149301106840621
494,3803.4,1.1495489574173472
495,3806.1,1.2169586184152936
496,3808.8,1.1855485794132399
497,3811.51,1.076453859155623
498,3814.21,1.0701654201535693
499,3816.91,1.1044915811515157
500,3819.6200000000003,1.0070704608938987
501,3822.32,0.9417158218918451
502,3825.02,0.9479611828897916
503,3827.7299999999996,0.8510785626321746
504,3830.4300000000003,0.804492423630121
505,3833.13,0.8552308846280673
506,3835.8399999999997,0.8773951643704505
507,3838.5399999999995,0.8602936253683968
508,3841.2400000000002,0.8319489863663432
509,3843.95,0.9656825661087263
510,3846.6499999999996,0.9458377271066727
511,3849.3500000000004,0.9827456881046189
512,3852.06,0.9850057678470021
513,3854.7599999999998,0.9955008288449485
514,3857.4599999999996,0.9390220898428949
515,3860.17,0.9799064695852779
516,3862.87,0.9982017305832243
517,3865.5699999999997,0.9672751915811707
518,3868.28,1.0526473713235538
519,3870.98,1.0294136323215002
520,3873.68,1.0231788933194466
521,3876.3900000000003,1.0217806730618295
522,3879.09,0.998762034059776
523,3881.79,0.9829517950577223
524,3884.5,1.0018341748001056
525,3887.2000000000003,1.0491247357980518
526,3889.9,1.1426784967959982
527,3892.61,1.1886187765383813
528,3895.31,1.2283246375363277
529,3898.01,1.220583898534274
530,3900.72,1.2249947782766573
531,3903.42,1.2409774392746036
532,3906.1200000000003,1.2579282002725498
533,3908.83,1.313874480014933
534,3911.5299999999997,1.3335145410128795
535,3914.23,1.3521876020108257
536,3916.94,1.3201256817532088
537,3919.64,1.2549863427511552
538,3922.34,1.1645635037491016
539,3925.0499999999997,1.0210944834914846
540,3927.75,0.967951044489431
541,3930.45,0.8350841054873774
542,3933.16,0.7066408852297605
543,3935.86,0.7513109462277068
544,3938.56,0.8332124072256533
545,3941.27,0.9266541869680363
546,3943.97,1.0841691479659827
547,3946.67,1.1907413089639292
548,3949.38,1.2739608887063123
549,3952.08,1.2875765497042586
550,3954.7799999999997,1.2815576107022049
551,3957.4900000000002,1.207643690444588
552,3960.19,1.1620855514425343
553,3962.89,1.0331459124404807
554,3965.6000000000004,0.9234598921828638
555,3968.3,0.8667120531808101
556,3971.0,0.9084078141787565
557,3973.7099999999996,1.0106177939211398
558,3976.4100000000003,1.162645954919086
559,3979.11,1.3499092159170325
560,3981.8199999999997,1.4399072956594154
561,3984.5199999999995,1.521949356657362
562,3987.2200000000003,1.5921574176553082
563,3989.93,1.5557904973976913
564,3992.6299999999997,1.6169615583956376
565,3995.3300000000004,1.621378619393584
566,3998.04,1.6014196991359673
567,4000.74,1.6529607601339136
568,4003.4399999999996,1.71778982113186
569,4006.15,1.701165900874243
570,4008.85,1.7719109618721893
571,4011.5499999999997,1.8615390228701356
572,4014.26,1.8187711026125188
573,4016.96,1.7997881636104651
574,4019.66,1.7985572246084114
575,4022.37,1.8067853043507947
576,4025.07,1.782692365348741
577,4027.77,1.7503684263466872
578,4030.48,1.6974335060890706
579,4033.1800000000003,1.7132015670870169
580,4035.89,1.7427326468294
581,4038.59,1.7550047078273465
582,4041.29,1.7023457688252928
583,4044.0,1.659470848567676
584,4046.7,1.6718499095656223
585,4049.4,1.6758909705635685
586,4052.1099999999997,1.7386670503059518
587,4054.81,1.7267851113038981
588,4057.5099999999998,1.6707911723018445
589,4060.22,1.6504022520442274
590,4062.92,1.638465313042174
591,4065.62,1.6281433740401203
592,4068.33,1.6520804537825033
593,4071.0299999999997,1.6684405147804497
594,4073.73,1.648058575778396
595,4076.44,1.6856596555207792
596,4079.14,1.7154677165187255
