,lambda (Angstroms),Total Flux (erg/s/cm^2/Angstrom)
0,102.06,3.6431609991342637
1,103.95,3.6328318461178752
2,104.712855,3.628662721244372
3,105.89,3.594869609738946
4,108.10000000000001,3.5314256190658644
5,110.11,3.4737231661073458
6,113.98,3.362624413432653
7,117.99000000000001,3.247506584618244
8,120.22644299999999,3.1833034800232443
9,121.02,3.164203847733651
10,124.98,3.0688930556245295
11,127.01,3.0200342406141614
12,127.89,2.998854065129622
13,130.87,2.9271302882094674
14,132.07999999999998,2.898007549020237
15,133.92,2.853721728064863
16,137.04,2.778628384344476
17,138.038426,2.7545978880422033
18,139.91,2.7223999209301786
19,142.84,2.671993209272115
20,146.84,2.6031787307002845
21,150.95000000000002,2.5324716734101433
22,154.83,2.4657214916674794
23,158.489319,2.402767841889265
24,159.16,2.3940447852397955
25,162.12,2.3555462574505
26,165.9,2.3063826446640046
27,170.14999999999998,2.251106082299179
28,172.92,2.2150788242854
29,176.95,2.162663708711256
30,179.82000000000002,2.125335860106258
31,181.9,2.098282928112894
32,181.970086,2.097371374631835
33,186.14,2.0559954941553102
34,190.92000000000002,2.008566164110758
35,194.01999999999998,1.9778065977804378
36,198.07999999999998,1.937521499017128
37,202.23000000000002,1.896343446635037
38,205.04000000000002,1.868461529926453
39,208.929613,1.829867084955175
40,209.82,1.8232249765980777
41,216.19,1.7757067118453018
42,220.20999999999998,1.7457187413360877
43,222.76000000000002,1.726696550939436
44,226.89999999999998,1.6958135695527676
45,230.05999999999997,1.672246483302141
46,233.8,1.6443586457086523
47,239.8,1.5996092059859441
48,239.88329199999998,1.5989878720193973
49,245.95,1.5641136070422499
50,252.26,1.5278458542296045
51,256.95,1.5008802309291913
52,259.92,1.4838149333817656
53,264.14,1.4595608583299013
54,269.06,1.4312810348327518
55,274.06,1.4025411342849978
56,275.42287,1.39470738274119
57,279.15,1.3782664328004894
58,283.69,1.3582405368365593
59,290.3,1.3290794489695152
60,295.69,1.3053053829154657
61,301.19,1.2810430729170483
62,308.21000000000004,1.2500781815773587
63,316.227766,1.214712651071415
64,318.29999999999995,1.2078861680630026
65,327.98,1.1759964949985078
66,337.94,1.143183273900288
67,348.21,1.1093482140393724
68,357.14000000000004,1.079928904959141
69,363.078055,1.0603671071939362
70,366.3,1.0524190222508372
71,374.84000000000003,1.0313502337749174
72,385.34,1.005440218545508
73,395.22,0.9810705330024063
74,405.36,0.9560556688134337
75,413.84999999999997,0.935109181934797
76,416.86938299999997,0.9276592483461646
77,421.53999999999996,0.9188591480598528
78,430.37,0.9022221618274698
79,441.41,0.8814245549188053
80,450.65000000000003,0.8640151577039448
81,460.09000000000003,0.8462280424342171
82,469.71999999999997,0.8280842554823659
83,478.630092,0.8112980731896086
84,479.56,0.8099508278401173
85,489.59999999999997,0.7953994175905182
86,499.85,0.7805501884649811
87,505.64,0.7721577345284096
88,511.49,0.7636925401987128
89,519.81,0.7516361493520333
90,529.47,0.7376360723588931
91,540.56,0.7215587698296048
92,549.5408739999999,0.708546090127813
93,550.61,0.7073644831885275
94,559.55,0.6974904206615594
95,569.96,0.6859886895784792
96,580.5500000000001,0.6742785728599568
97,589.99,0.6638490115567603
98,599.57,0.6532538760482198
99,609.31,0.642466613419286
100,620.64,0.6299739625439452
101,629.28,0.6204222283427144
102,630.957344,0.6185685575445425
103,639.5000000000001,0.6110855012301099
104,649.8900000000001,0.6019842587505567
105,657.42,0.5953854257265881
106,665.0300000000001,0.5887236475584072
107,674.28,0.5806179350338774
108,685.24,0.5710055239768127
109,694.77,0.5626767760475404
110,704.44,0.5541905505658966
111,715.88,0.544187403443559
112,724.43596,0.5366925157586031
113,725.8399999999999,0.5357797464555036
114,734.25,0.530313274478562
115,744.46,0.5236835906017997
116,754.8199999999999,0.5169511241583855
117,765.32,0.510111559492763
118,774.1800000000001,0.5043775956158663
119,784.9499999999999,0.49737820705027075
120,795.87,0.4902858914180233
121,805.0799999999999,0.4843047116856059
122,814.41,0.47824286251986703
123,825.7399999999999,0.47089279386543825
124,831.763771,0.4669420546407863
125,835.3,0.46520378975137344
126,844.97,0.46056430855228037
127,854.75,0.45581534387874073
128,864.65,0.4510222139785318
129,874.66,0.44617776280387605
130,884.7900000000001,0.44127977290255116
131,895.04,0.4363148066745572
132,905.4,0.4312764800721162
133,915.89,0.4264124441907837
134,924.36,0.42598381315838274
135,935.0600000000001,0.4261665122803792
136,945.8900000000001,0.43009234212348385
137,954.64,0.43426214642885486
138,954.992586,0.43420439096250973
139,965.7,0.43256294108908255
140,974.63,0.4022086256997469
141,985.92,0.4181377266375297
142,995.04,0.41587129641012305
143,1004.25,0.4257362723646828
144,1015.88,0.4189470734343386
145,1025.28,0.39078645355082736
146,1034.76,0.3973657580512862
147,1044.34,0.4211187605317079
148,1054.0,0.41574023739609944
149,1066.21,0.39774932274953856
150,1076.07,0.4023385655738555
151,1086.03,0.38604642637813513
152,1096.08,0.3963687333643811
153,1096.4782,0.39609352623751537
154,1106.22,0.3902008458753629
155,1113.89,0.3851113287379028
156,1124.19,0.37581281013088336
157,1134.6000000000001,0.3859601478882549
158,1145.09,0.37620313936518374
159,1155.69,0.37634437720650343
160,1163.7,0.37548003337716107
161,1174.47,0.35156615287253973
162,1185.34,0.3657687945173649
163,1196.3,0.3417089840966917
164,1204.6,0.32627532250074404
165,1215.74,0.31250651794907436
166,1224.17,0.331137261147407
167,1235.5,0.3498495466796855
168,1244.06,0.3535797546722985
169,1255.57,0.3458661060735806
170,1258.92541,0.34067443329597563
171,1264.2700000000002,0.3330028093782483
172,1275.9699999999998,0.34854541820847784
173,1284.8200000000002,0.3502900105287795
174,1293.7199999999998,0.3298791666475011
175,1305.6899999999998,0.32597207998919736
176,1314.74,0.34086383750317817
177,1323.8600000000001,0.33506583433494674
178,1336.1100000000001,0.32233774494779377
179,1345.37,0.33422742041513787
180,1354.69,0.3290305524405855
181,1364.08,0.317600993783821
182,1373.54,0.3191688944448441
183,1386.25,0.31685700200315314
184,1395.86,0.3043530440594356
185,1405.5300000000002,0.3046369926738217
186,1415.28,0.3033808233656797
187,1425.09,0.30314382061564127
188,1434.96,0.30006769442370657
189,1441.5900000000001,0.3027259040941699
190,1445.43977,0.30249046905933635
191,1448.24,0.3025540728336341
192,1454.93,0.29910669520406963
193,1465.01,0.2910485803003312
194,1475.17,0.2890783170243409
195,1485.39,0.28874347246916165
196,1495.69,0.2884300295417306
197,1506.06,0.2822817467885791
198,1513.01,0.27291135694919594
199,1516.5,0.27711465420970716
200,1523.5000000000002,0.27364299163766653
201,1534.06,0.2630038465004168
202,1544.69,0.2673427615374466
203,1555.4,0.26177682820222453
204,1566.18,0.2607814650412821
205,1573.41,0.26367001589901734
206,1584.31,0.26521008017969705
207,1595.3,0.26482130754159333
208,1606.35,0.26140836362430075
209,1613.77,0.2604429420979377
210,1624.95,0.2544243270757358
211,1636.2199999999998,0.25688882513475053
212,1643.77,0.2567205525034782
213,1655.1599999999999,0.2488683980041151
214,1659.58691,0.25056752880902733
215,1666.64,0.2536842932901596
216,1670.48,0.2450432658288457
217,1678.19,0.25379188772292627
218,1685.9399999999998,0.2563876187059515
219,1693.72,0.2501724965056852
220,1705.46,0.2458111641109389
221,1713.3300000000002,0.24208008236079803
222,1725.21,0.24046696177735802
223,1733.17,0.24481666047734263
224,1745.18,0.2412216094329727
225,1753.24,0.24618968085531892
226,1765.39,0.23703840162225523
227,1773.5400000000002,0.23883929349472693
228,1785.83,0.23850348607296956
229,1794.0800000000002,0.24442002066780283
230,1806.51,0.24127352505735172
231,1814.8500000000001,0.23473094010231044
232,1823.23,0.23495188423621383
233,1835.87,0.2298837763427221
234,1844.34,0.22232639092675097
235,1857.12,0.2224048948445655
236,1865.7,0.2248573444231921
237,1874.31,0.2287061008185272
238,1882.9599999999998,0.22235317630280702
239,1896.01,0.21914587157099788
240,1904.76,0.22135439977763927
241,1905.46072,0.22111591765395336
242,1913.56,0.2186532303967446
243,1926.82,0.2151086857122767
244,1935.71,0.21283182109350443
245,1944.65,0.22023123164560526
246,1953.6200000000001,0.21564397730022988
247,1967.17,0.2222426886068256
248,1976.25,0.222439149637371
249,1985.37,0.21845359080461477
250,1994.53,0.215787822108557
251,2003.74,0.21574389858337226
252,2012.99,0.212575835194886
253,2026.94,0.21308541786846608
254,2036.3,0.21128609985590047
255,2045.7,0.21442924198003332
256,2055.14,0.2101048642408646
257,2064.62,0.20846864663839434
258,2074.15,0.2149462042067971
259,2078.94,0.21619364557643503
260,2083.73,0.21948160694607294
261,2093.35,0.21341442982204717
262,2103.0099999999998,0.2109429128347199
263,2112.72,0.21206141101826564
264,2127.36,0.21079764104989374
265,2137.18,0.20229195460936022
266,2147.04,0.2071253283055251
267,2156.96,0.2090146322067376
268,2166.91,0.20365481121047396
269,2176.91,0.20266009538508342
270,2186.96,0.20334237473056582
271,2187.7616199999998,0.20361674659820939
272,2197.06,0.2070985625953771
273,2207.2,0.2032863758727012
274,2217.38,0.19544129657912712
275,2222.5,0.19387796750416653
276,2232.75,0.20292217621152076
277,2243.06,0.19785752606252782
278,2253.42,0.19042727019991218
279,2263.82,0.19109585176639843
280,2274.27,0.19428880761926204
281,2284.76,0.19903254090122746
282,2295.31,0.19161948532684575
283,2305.9,0.19406424718156587
284,2316.55,0.18835617017993883
285,2327.24,0.16924457060741366
286,2332.6,0.17695966610706426
287,2343.37,0.1703780213927428
288,2354.19,0.18259487096479865
289,2365.0499999999997,0.16969719796595645
290,2375.97,0.17438247611076702
291,2386.94,0.1634998485419549
292,2392.44,0.16908915004346203
293,2403.48,0.1661609604755782
294,2414.58,0.16883880205134721
295,2425.7200000000003,0.17948435105621802
296,2436.92,0.17642797120474168
297,2442.54,0.18248087499355448
298,2453.81,0.1819628731430064
299,2465.1400000000003,0.1791134924361111
300,2476.52,0.1737865960155932
301,2482.22,0.17179152466260972
302,2493.68,0.1683699031002955
303,2505.19,0.18211352582435864
304,2510.9700000000003,0.16232075932957887
305,2511.88643,0.16199167079845667
306,2516.76,0.16032520736775732
307,2522.56,0.15894122927250476
308,2534.2,0.16285258688823928
309,2545.8999999999996,0.16276312521333325
310,2557.65,0.17396707579622678
311,2563.55,0.16758549221657332
312,2575.38,0.1744194804119461
313,2587.27,0.17157694931667833
314,2593.2300000000005,0.1687276064463843
315,2605.2,0.16391603296359586
316,2617.2200000000003,0.1605577817386069
317,2623.26,0.16942853648079217
318,2635.3700000000003,0.17969441131984243
319,2647.53,0.19571009841669224
320,2653.63,0.20591605386823694
321,2665.88,0.18368559702912596
322,2672.03,0.1918307047384702
323,2684.36,0.19410909551183847
324,2696.75,0.1823237769945662
325,2702.9700000000003,0.19025201386482982
326,2715.45,0.17775152141159675
327,2727.98,0.17537795121616317
328,2734.27,0.1832585972473462
329,2746.8900000000003,0.1579429531159518
330,2753.2200000000003,0.16479870295337445
331,2765.93,0.17249709488601928
332,2772.31,0.17899172698124144
333,2785.1,0.16194413652636555
334,2797.96,0.136170785232409
335,2804.41,0.14158355648855056
336,2817.35,0.1738514428070733
337,2823.85,0.1909887963210144
338,2836.88,0.1872588787035763
339,2843.4199999999996,0.18069337602375704
340,2856.5499999999997,0.16649557292191808
341,2863.1299999999997,0.19204471404833842
342,2876.35,0.19668356701053863
343,2882.98,0.19324364039475853
344,2884.0315,0.1934268813131251
345,2896.2799999999997,0.1957418439447963
346,2909.6499999999996,0.21747296024859045
347,2929.82,0.20685081124690963
348,2950.13,0.20309530325364555
349,2970.58,0.20902753626879816
350,2991.17,0.21000021029236743
351,3011.9,0.21380982532435344
352,3032.7799999999997,0.2142089271510716
353,3046.78,0.21674822799274085
354,3067.9,0.22117972869103047
355,3089.1600000000003,0.22370887039773682
356,3110.58,0.2277287446854908
357,3132.14,0.22294495998166147
358,3146.6,0.22502766699384272
359,3168.41,0.22914642694790033
360,3190.3700000000003,0.2146265736966901
361,3212.4799999999996,0.22512520724021212
362,3227.31,0.21002600834606602
363,3249.68,0.23382773233379042
364,3272.21,0.2480535889025624
365,3287.31,0.2460327262389343
366,3310.1000000000004,0.24466017325190875
367,3311.31121,0.24437174685468138
368,3325.38,0.2411668906969265
369,3333.04,0.25105740461915915
370,3340.73,0.23301886585440318
371,3348.43,0.2605271761939843
372,3356.15,0.25203628474223966
373,3363.89,0.21402719149916927
374,3371.6400000000003,0.223515247360436
375,3379.41,0.25303190143037696
376,3387.2000000000003,0.24862115370899213
377,3395.0099999999998,0.23736910419628157
378,3402.8399999999997,0.27099685289224523
379,3410.68,0.23916035069254601
380,3418.54,0.23783584670152103
381,3426.42,0.24723774091917033
382,3434.32,0.2663514333454938
383,3442.24,0.23790752398049156
384,3450.18,0.24734781282416352
385,3458.1299999999997,0.2502466507721726
386,3466.1,0.24416978692885594
387,3474.09,0.2575686212942135
388,3482.1000000000004,0.24734735386824527
389,3490.13,0.2573606846509513
390,3498.17,0.23349936453799447
391,3506.24,0.261725191738049
392,3514.32,0.2430831680424406
393,3522.42,0.26106364255550646
394,3530.54,0.23952731527724655
395,3538.6800000000003,0.2622551862076609
396,3546.84,0.26829615534674944
397,3555.01,0.26820497359017514
398,3563.21,0.2600916391466122
399,3571.42,0.23608125380738637
400,3579.66,0.2413510157811719
401,3587.9100000000003,0.21730902685929454
402,3596.18,0.2492958361460914
403,3604.4700000000003,0.26521004364156253
404,3611.73,0.22706019339031044
405,3614.5899999999997,0.2276245372307263
406,3617.45,0.25979798107114216
407,3620.32,0.25681237401589513
408,3623.18,0.270032717856311
409,3626.04,0.2561258616967268
410,3628.9,0.2607619055371426
411,3631.7700000000004,0.26085309848189564
412,3634.6299999999997,0.2574279423223115
413,3637.49,0.26100748616272734
414,3640.35,0.2687306300031432
415,3643.22,0.27389852294789613
416,3646.08,0.265109466788312
417,3648.94,0.2555511106287278
418,3651.8,0.25600275446914367
419,3654.6600000000003,0.2916221983095595
420,3657.5299999999997,0.2784932912543125
421,3660.39,0.2800423350947283
422,3663.25,0.26158177893514417
423,3666.11,0.28122242277556003
424,3668.98,0.292984815720313
425,3671.84,0.2776216595607289
426,3674.7000000000003,0.28574480340114466
427,3677.5600000000004,0.2665868472415605
428,3680.4300000000003,0.2552837401863135
429,3683.29,0.25187898402672937
430,3686.15,0.2629045278671452
431,3689.0099999999998,0.27110957170756106
432,3691.88,0.278154364652314
433,3694.7400000000002,0.2699191084927298
434,3697.6,0.2853546523331457
435,3700.46,0.2790885961735616
436,3703.32,0.2680329400139774
437,3706.1899999999996,0.2631705329587304
438,3709.0499999999997,0.26411437679914623
439,3711.91,0.27897562063956205
440,3714.77,0.28344756447997793
441,3717.64,0.2980714574247309
442,3720.5,0.28089300126514677
443,3723.36,0.32347624510556255
444,3726.2200000000003,0.3459065889459784
445,3729.0899999999997,0.3423360818907314
446,3731.95,0.31797852573114727
447,3734.81,0.2888312695715631
448,3737.67,0.26854521341197896
449,3740.54,0.2781437063567319
450,3743.4,0.27210325019714776
451,3746.26,0.26456539403756363
452,3749.1200000000003,0.2741345378779795
453,3751.9799999999996,0.2820524817183953
454,3754.85,0.28393847466314825
455,3757.71,0.2867182185035641
456,3760.5699999999997,0.29161066234398
457,3763.43,0.2986056061843958
458,3766.3,0.28611259912914877
459,3769.16,0.27937474296956466
460,3772.02,0.2921129868099805
461,3774.88,0.30590763065039633
462,3777.7500000000005,0.3194853235951493
463,3780.6099999999997,0.31970106743556514
464,3783.47,0.334408611275981
465,3786.33,0.3467161551163968
466,3789.2,0.3218850480611498
467,3792.06,0.29852229190156565
468,3794.92,0.2799695357419815
469,3797.78,0.27739557958239736
470,3800.6400000000003,0.2924722234228132
471,3801.8939600000003,0.2986555538998188
472,3803.5099999999998,0.3066360758407738
473,3806.37,0.3148825311050243
474,3809.23,0.30933468636927475
475,3812.09,0.3171196416335253
476,3814.96,0.3171187187693291
477,3817.82,0.2952331740335796
478,3820.6800000000003,0.28793152929783017
479,3823.5400000000004,0.2810810845620807
480,3826.4100000000003,0.2742908616978845
481,3829.27,0.267717416962135
482,3832.13,0.2553082722263855
483,3834.99,0.2509397274906361
484,3837.86,0.25625170462643987
485,3840.7200000000003,0.2675236598906904
486,3843.58,0.2878003151549409
487,3846.44,0.30689767041919147
488,3849.2999999999997,0.324723325683442
489,3852.1699999999996,0.3396243028192458
490,3855.0299999999997,0.3217077580834963
491,3857.89,0.3192572133477468
492,3860.75,0.32840636861199735
493,3863.62,0.33137954574780115
494,3866.48,0.3414106010120517
495,3869.34,0.34558545627630216
496,3872.2000000000003,0.3403761115405527
497,3875.0699999999997,0.32940118867635654
498,3877.93,0.30912584394060705
499,3880.79,0.29884999920485755
500,3883.65,0.2880304544691081
501,3886.52,0.28142483160491194
502,3889.38,0.2924711868691624
503,3892.2400000000002,0.3042252421334129
504,3895.1000000000004,0.3147484973976635
505,3897.9599999999996,0.325774352661914
506,3900.83,0.34450082979771784
507,3903.69,0.3455476850619683
508,3906.5499999999997,0.34979434032621887
509,3909.41,0.3497129955904693
510,3912.28,0.34687107272627316
511,3915.14,0.3580508279905237
512,3918.0,0.3453443832547742
513,3920.86,0.33211473851902473
514,3923.7300000000005,0.31324281565482853
515,3926.5899999999997,0.2887726709190791
516,3929.45,0.2556361261833296
517,3932.31,0.2439858814475801
518,3935.18,0.2534002585833839
519,3938.04,0.27859981384763444
520,3940.9,0.312588869111885
521,3943.76,0.3265992243761355
522,3946.6200000000003,0.334486679640386
523,3949.49,0.34287515677618985
524,3952.35,0.35230111204044035
525,3955.21,0.3453585673046909
526,3958.07,0.31960632256894134
527,3960.94,0.2964986997047452
528,3963.8,0.2596803549689957
529,3966.6600000000003,0.2320820102332462
530,3969.5200000000004,0.2330568654974967
531,3972.39,0.25840914263330056
532,3975.25,0.30838709789755103
533,3978.11,0.3432273531618016
534,3980.97,0.3598223084260521
535,3983.84,0.37441548556185594
536,3986.7000000000003,0.37791354082610645
537,3989.56,0.3802012960903569
538,3992.42,0.39064275135460746
539,3995.2799999999997,0.403371106618858
540,3998.1499999999996,0.39673438375466186
541,4001.0099999999998,0.40911403901891236
542,4003.87,0.4078738942831629
543,4006.73,0.42606874954741336
544,4009.6,0.4270726266832172
545,4012.46,0.42241708194746774
546,4015.32,0.4426632372117182
547,4018.1800000000003,0.4242749924759687
548,4021.0499999999997,0.4274838696117726
549,4023.91,0.4189209248760231
550,4026.77,0.42517788014027363
551,4029.63,0.4189634354045241
552,4032.5,0.40866521254032795
553,4035.36,0.4176193678045785
554,4038.2200000000003,0.425845523068829
555,4041.0800000000004,0.41993887833307947
556,4043.9399999999996,0.40541713359733
557,4046.81,0.41411301073313384
558,4049.67,0.40926266599738437
559,4052.5299999999997,0.4229039212616349
560,4055.39,0.42410467652588535
561,4058.26,0.4081450536616892
562,4061.12,0.40425870892593974
563,4063.98,0.4252741641901902
564,4066.8399999999997,0.41791101945444076
565,4069.7100000000005,0.4124433965902446
566,4072.5699999999997,0.40727515185449514
567,4075.43,0.4117372071187456
568,4078.29,0.41240456238299616
569,4081.16,0.41918263951879997
570,4084.02,0.42513179478305047
571,4086.88,0.41636375004730103
572,4089.7400000000002,0.3991856053115515
573,4092.6,0.399114560575802
574,4095.47,0.3775964377116059
575,4098.33,0.3787457929758564
576,4101.1900000000005,0.3593011482401069
577,4104.05,0.3690553035043574
578,4106.92,0.38564838064016127
579,4109.78,0.39636663590441173
580,4112.64,0.3976800911686622
581,4115.5,0.42513624643291276
582,4118.37,0.4146123235687166
583,4121.2300000000005,0.4130337788329671
584,4124.09,0.40855253409721765
585,4126.95,0.41358898936146815
586,4129.82,0.414162166497272
587,4132.68,0.4247266217615225
588,4135.54,0.429547577025773
589,4138.4,0.42534353229002353
