,lambda (Angstroms),Total Flux (erg/s/cm^2/Angstrom)
0,100.09,39.16448709130204
1,101.94999999999999,39.05553178523599
2,104.09,38.93017460507903
3,104.712855,38.89368892922198
4,106.02000000000001,38.4914773969615
5,107.99,37.88530385206268
6,110.0,37.26682221576381
7,114.13,35.9960116887071
8,117.87,34.845205062273884
9,120.22644299999999,34.12012213163368
10,120.89000000000001,33.94894030204642
11,125.14000000000001,32.85254197124394
12,126.88,32.40366359835826
13,128.06,32.0992518277698
14,131.04,31.330483121397197
15,131.95,31.095724901356693
16,134.09,30.543656101505448
17,136.9,29.818743350726994
18,138.038426,29.525056684353082
19,140.09,29.146752440083525
20,143.02,28.606469180149663
21,147.03,27.86703728717826
22,151.15,27.107321506179446
23,155.02,26.39370505499213
24,158.489319,25.75397303058621
25,159.0,25.682780271646905
26,161.95999999999998,25.270134126260597
27,166.11,24.691593145369342
28,169.98,24.152086335054147
29,173.14,23.711558852429228
30,177.17,23.14974699727714
31,180.05,22.748253757813263
32,181.970086,22.480579626774404
33,182.14000000000001,22.462508514993015
34,185.95000000000002,22.05729814970852
35,191.16,21.503191682235602
36,193.82,21.220289227227912
37,197.88,20.788490623723803
38,202.02,20.348183871578897
39,204.83,20.049328531121837
40,208.929613,19.613317010890906
41,210.09,19.520534083549148
42,215.97000000000003,19.050379191606684
43,219.99,18.728946711445204
44,223.04999999999998,18.48427412797617
45,227.19,18.153247134546884
46,229.82,17.94297045688248
47,234.1,17.600778352570757
48,239.88329199999998,17.138378367842513
49,240.1,17.125026429061524
50,246.26,16.745471629615324
51,252.0,16.39180625759955
52,257.27,16.067073590439247
53,260.25,15.883478169966246
54,263.87,15.660438888632601
55,268.78,15.357910174012664
56,273.78,15.049835551007634
57,275.42287,14.948610409999047
58,278.87,14.785609075447423
59,284.05,14.540667193464392
60,290.0,14.259307383013612
61,296.07,13.972286044782143
62,300.88,13.744836267197899
63,307.89,13.413366310234375
64,316.227766,13.019113296774545
65,317.98,12.957230318789264
66,327.64,12.616067825619018
67,338.37,12.237111787774941
68,347.85,11.902305025639542
69,356.78000000000003,11.58692330574396
70,363.078055,11.364494965058476
71,365.93,11.289066774707733
72,375.32000000000005,11.04071625372699
73,384.94,10.786270922174626
74,394.82000000000005,10.524974372858681
75,404.95000000000005,10.257054087643143
76,414.38000000000005,10.007642278806468
77,416.86938299999997,9.941800934229846
78,422.08000000000004,9.836559259624849
79,429.93,9.678008610117052
80,440.96000000000004,9.455234723779219
81,451.23,9.24780394753284
82,459.62,9.078344426691643
83,470.32,8.862227418740888
84,478.630092,8.694385461142284
85,480.16999999999996,8.67046584540708
86,490.22999999999996,8.514191916818696
87,500.49,8.354821998113646
88,506.29,8.264746427330284
89,512.15,8.173895519691923
90,520.47,8.044665344698547
91,530.15,7.894309965891835
92,540.0,7.741281471445954
93,549.5408739999999,7.59317957618797
94,550.04,7.587270577709694
95,560.27,7.466147572864189
96,569.37,7.358392826970338
97,579.96,7.2328816064411185
98,589.38,7.121394695383967
99,600.3399999999999,6.991536739790935
100,610.09,6.876095175190378
101,620.01,6.758760949128069
102,630.0799999999999,6.639530175364214
103,630.957344,6.629137626723194
104,640.32,6.541229455903999
105,650.72,6.4437149627229955
106,658.26,6.3729781991917696
107,664.3499999999999,6.3159011196088555
108,675.1400000000001,6.214614265021061
109,684.54,6.12630301601131
110,695.6600000000001,6.0223548433870056
111,705.34,5.931325619649303
112,716.8,5.8241961479267745
113,724.43596,5.752587416662125
114,726.7700000000001,5.736350159214685
115,735.18,5.677861744659139
116,745.41,5.606939304371003
117,755.7800000000001,5.534899381872665
118,764.53,5.474121148235208
119,775.1700000000001,5.400396429260058
120,784.15,5.338179804920131
121,795.0500000000001,5.262482927411753
122,804.26,5.1985607173693555
123,815.45,5.120816645496993
124,824.8900000000001,5.055626290752125
125,831.763771,5.007050103161744
126,834.44,4.992850419140448
127,844.11,4.943913837222991
128,855.8499999999999,4.88308005287853
129,865.76,4.832079397766635
130,875.7800000000001,4.780536856148959
131,885.9200000000001,4.728493628434066
132,894.12,4.686405233457525
133,904.48,4.632655434731066
134,914.95,4.583640883498823
135,925.54,4.618280783169365
136,934.1099999999999,4.702836294309735
137,944.9200000000001,4.871491448968709
138,954.992586,4.9938403292954145
139,955.87,5.004596826140218
140,964.71,5.0821938829221445
141,975.88,4.399423396525552
142,984.91,4.952911541631978
143,994.0200000000001,4.923873181822401
144,1005.5300000000001,5.143960074532807
145,1014.84,5.03357050243323
146,1024.23,4.412937025417652
147,1036.0900000000001,4.674873396620553
148,1045.6699999999998,5.2368726079294765
149,1055.3500000000001,5.184523013093395
150,1065.12,4.909516412726816
151,1074.97,5.053982807444234
152,1084.92,4.778220196016651
153,1094.96,5.023096579058568
154,1096.4782,5.009270075005047
155,1105.09,4.9388015189767325
156,1115.31,4.874735038800951
157,1125.6299999999999,4.724097990325993
158,1136.05,4.94868837355186
159,1143.9199999999998,4.7984017484067145
160,1154.51,4.834677265523982
161,1165.19,4.851043971171991
162,1175.97,4.409999108520825
163,1184.1200000000001,4.731068292137985
164,1195.08,4.282888806548303
165,1206.14,3.977607352659443
166,1214.5,3.6120610428483344
167,1225.74,4.093375966020958
168,1234.23,4.548967817420921
169,1245.6499999999999,4.663674517655029
170,1254.2900000000002,4.5864116166062265
171,1258.92541,4.49058533506026
172,1265.89,4.35495859723874
173,1274.67,4.69169151365473
174,1286.46,4.740432337634744
175,1295.3799999999999,4.407474505565341
176,1304.36,4.366479067002197
177,1316.43,4.651218394011422
178,1325.55,4.5649672069628835
179,1334.74,4.382552645671648
180,1343.99,4.608295477886672
181,1356.43,4.527907398184498
182,1365.8300000000002,4.344075714165171
183,1375.3000000000002,4.392138655903146
184,1384.83,4.396886991147383
185,1394.43,4.16738595214892
186,1404.1000000000001,4.202996538907762
187,1413.8300000000002,4.224991519172862
188,1423.6299999999999,4.227911125195267
189,1433.5,4.198528356974974
190,1443.43,4.2561729822609395
191,1445.43977,4.2656637677752585
192,1446.76,4.273085143767692
193,1453.44,4.225046279287547
194,1463.51,4.0933705913661305
195,1473.66,4.072264677522796
196,1483.87,4.079119094238024
197,1494.1599999999999,4.086262285031333
198,1504.52,3.9961590281429644
199,1511.46,3.827165929416586
200,1518.44,3.9052607177292487
201,1525.4499999999998,3.8567501713211927
202,1536.02,3.6619235713877893
203,1546.67,3.757576745532468
204,1553.81,3.6689000820012954
205,1564.5800000000002,3.677805917263097
206,1575.4199999999998,3.7529473048432216
207,1586.34,3.7948894665014272
208,1593.66,3.8268507946459387
209,1604.71,3.7606288391810283
210,1615.8300000000002,3.7452324360344393
211,1623.29,3.657161868815595
212,1634.54,3.72602834854589
213,1645.8700000000001,3.730429602354266
214,1653.47,3.6019201397720657
215,1659.58691,3.6644813634519453
216,1664.93,3.7224546089944033
217,1672.62,3.547933540031128
218,1676.4699999999998,3.7179717291717505
219,1684.2099999999998,3.7693868964310804
220,1695.8899999999999,3.6611572780317228
221,1703.71,3.5940230232472214
222,1715.5200000000002,3.5154082190266376
223,1723.44,3.500092436687347
224,1735.39,3.5795328938900592
225,1743.3999999999999,3.5323381367514592
226,1755.48,3.615283408132945
227,1763.59,3.4682181234395557
228,1775.81,3.5048506562443373
229,1784.01,3.516834396751638
230,1796.37,3.5976561909797145
231,1804.6599999999999,3.5729489566877053
232,1812.9899999999998,3.45867751137378
233,1825.56,3.4684466977368
234,1833.99,3.404404724868085
235,1846.7,3.265150172654401
236,1855.23,3.271023672230897
237,1863.79,3.3034205135409573
238,1876.71,3.389862353462216
239,1885.3700000000001,3.2644376672174866
240,1894.07,3.1998957699508424
241,1902.8200000000002,3.265595108906802
242,1905.46072,3.253437569476989
243,1916.01,3.2089718488551267
244,1924.85,3.170005426538858
245,1933.7299999999998,3.1937783462030596
246,1947.1399999999999,3.263884245155417
247,1956.13,3.162395855265908
248,1965.1499999999999,3.2804604718617525
249,1974.2299999999998,3.3113731014283
250,1983.3400000000001,3.2212537374801995
251,1997.08,3.16786070777143
252,2006.3,3.1928680342696207
253,2015.5600000000002,3.1481477027482803
254,2024.87,3.1928390487025275
255,2034.2099999999998,3.124467401142126
256,2043.6000000000001,3.164946431057311
257,2053.04,3.077799138448084
258,2067.27,3.0816045480000636
259,2072.03,3.186606243675919
260,2076.81,3.129509610342009
261,2086.4,3.167237350159541
262,2096.03,3.0816384319575425
263,2105.7000000000003,3.0829488557360136
264,2115.42,3.0922549569900717
265,2125.1800000000003,3.101747400224599
266,2134.99,2.9904155209347127
267,2144.85,3.0218813191204132
268,2154.75,3.0622744592865834
269,2164.69,3.000717941433223
270,2174.69,2.982341436550566
271,2184.72,2.9639469381532617
272,2187.7616199999998,2.9807064496157727
273,2194.81,3.021974755573577
274,2204.94,2.971424904126354
275,2215.12,2.8919519774005167
276,2225.34,2.8514701904517885
277,2235.61,2.9453913282244457
278,2245.93,2.877214390718489
279,2256.3,2.8106103779339175
280,2266.71,2.827709504926456
281,2277.18,2.8600613415846565
282,2282.43,2.897568437330172
283,2292.96,2.803253983654036
284,2303.54,2.813107454699286
285,2314.1800000000003,2.7504416354101986
286,2324.86,2.48555695589822
287,2335.5899999999997,2.647352201107627
288,2346.3700000000003,2.58298437103842
289,2357.2000000000003,2.688357465690599
290,2362.63,2.570224690433104
291,2373.54,2.6074360646395007
292,2384.5,2.496351363567283
293,2395.5,2.563870802272174
294,2406.56,2.513452950642728
295,2417.67,2.5301560237346674
296,2423.2400000000002,2.6119472376970534
297,2434.43,2.556140590343211
298,2445.66,2.618325082766477
299,2456.95,2.592233284855406
300,2462.62,2.5774373482605633
301,2473.98,2.5184100449594324
302,2485.4,2.5259214513239643
303,2496.87,2.4394377824098825
304,2502.63,2.5872229103135345
305,2511.88643,2.4579483387410366
306,2514.18,2.4263383605577973
307,2519.98,2.4417283799417713
308,2525.79,2.394438023497097
309,2537.44,2.4092331831218026
310,2543.2900000000004,2.396311323362534
311,2555.0299999999997,2.4823571005294056
312,2566.83,2.4392036227243863
313,2572.7400000000002,2.5051605079932284
314,2584.6200000000003,2.484506023559023
315,2596.55,2.457277659981576
316,2602.53,2.4080519144498798
317,2614.5499999999997,2.381693168414598
318,2626.62,2.4390285432360743
319,2632.6699999999996,2.4892761669038403
320,2644.82,2.60673253509613
321,2657.03,2.6482426483165296
322,2663.16,2.5018572653551088
323,2675.45,2.5513843719463223
324,2687.8,2.5619912235656455
325,2693.99,2.4727575856323347
326,2706.4300000000003,2.510918054793823
327,2712.6699999999996,2.423716537717271
328,2725.19,2.4027240002495724
329,2737.77,2.4634752078099846
330,2744.08,2.2759380599328938
331,2756.75,2.308804885035471
332,2763.1,2.3632532338437873
333,2775.8500000000004,2.4126480523171776
334,2782.25,2.312589521982252
335,2795.1,2.0574765821691594
336,2808.0,2.1204627632128252
337,2814.4700000000003,2.3722146020773613
338,2827.46,2.4441334006631923
339,2833.98,2.3980663603844867
340,2847.06,2.338938776512483
341,2853.62,2.2600782329191844
342,2866.79,2.406083266589345
343,2873.3999999999996,2.423350843852805
344,2884.0315,2.408230619907181
345,2886.67,2.4048947917368904
346,2893.3199999999997,2.4126080351486
347,2906.68,2.536587742213328
348,2926.82,2.4629313365459344
349,2947.11,2.4279639814818124
350,2967.54,2.444469473647411
351,2988.11,2.438729813042729
352,3008.8199999999997,2.448012999667768
353,3029.6800000000003,2.445952236896078
354,3050.68,2.443960321354109
355,3071.83,2.4493844564154106
356,3093.12,2.4434914387064333
357,3107.4,2.452207856137894
358,3128.94,2.415628922767702
359,3150.62,2.4095878366272308
360,3172.4599999999996,2.4224610044635826
361,3187.11,2.333388946716447
362,3209.2,2.3789411988915843
363,3231.44,2.291607501669994
364,3246.3599999999997,2.407733935008747
365,3268.86,2.4684395254994937
366,3291.52,2.4458073699670644
367,3306.71,2.4269282943917063
368,3311.31121,2.4200486421616647
369,3321.98,2.405278318751618
370,3329.64,2.4746433792919644
371,3337.31,2.4275027506163065
372,3345.0,2.401048743508639
373,3352.7200000000003,2.3595186687529575
374,3360.44,2.4154195939972753
375,3368.1899999999996,2.4048204515935794
376,3375.96,2.243886930757874
377,3383.7400000000002,2.2591587207061634
378,3391.54,2.4164821322224435
379,3399.35,2.466375854522719
380,3407.19,2.3521195091749796
381,3415.05,2.380478785395231
382,3422.92,2.482803372399478
383,3430.8100000000004,2.4307675809717146
384,3438.7200000000003,2.444160411111943
385,3446.6400000000003,2.2267285520361657
386,3454.59,2.402172625312374
387,3462.5499999999997,2.264887009372578
388,3470.54,2.3492233257847674
389,3478.54,2.2121579529809523
390,3486.5600000000004,2.320533201745127
391,3494.59,2.2835327612932974
392,3502.65,2.3892432531934538
393,3510.72,2.350736055877605
394,3518.8199999999997,2.294028790913742
395,3526.93,2.268622836733874
396,3535.06,2.365925504121997
397,3543.21,2.45666579307811
398,3551.37,2.4453923928182184
399,3559.56,2.401435924910312
400,3567.77,2.3662140785703967
401,3575.99,2.218280543014477
402,3584.23,2.133708629026547
403,3592.5,2.1730016473906026
404,3593.6400000000003,1.8153370767660588
405,3596.33,2.504723677660776
406,3599.02,2.3357282785554934
407,3601.71,2.0752938794502103
408,3604.3999999999996,2.6903774803449276
409,3607.09,2.8484930812396447
410,3609.78,2.0345916821343613
411,3612.47,2.417799283029079
412,3615.16,2.211537883923796
413,3617.8500000000004,1.9141824848185127
414,3620.54,2.3568540857132296
415,3623.23,2.484720686607947
416,3625.92,2.380596287502664
417,3628.6099999999997,1.9714428883973814
418,3631.3,2.0302984892920986
419,3633.9900000000002,2.3254020901868158
420,3636.68,1.6476246910815329
421,3639.37,1.79602229197625
422,3642.06,2.393046892870967
423,3644.75,1.877618493765684
424,3647.44,2.035734094660401
425,3650.1299999999997,2.3241666955551183
426,3652.82,2.082940296449835
427,3655.51,1.8693178973445521
428,3658.2,1.8994194982392696
429,3660.89,1.5137076991339866
430,3663.5800000000004,2.103279700028703
431,3666.27,2.4251813009234207
432,3668.96,2.458042901818138
433,3671.65,2.842629502712855
434,3674.3399999999997,2.3321471036075723
435,3677.03,1.706254704502289
436,3679.7200000000003,2.330354305397006
437,3682.41,1.6888549062917235
438,3685.0899999999997,2.4373821964024454
439,3687.7799999999997,2.9073147972971625
440,3690.4700000000003,1.8749893981918793
441,3693.16,2.310876999086597
442,3695.85,2.4541555999813136
443,3698.54,2.399374200876031
444,3701.23,2.8787378017707477
445,3703.92,2.284288402665465
446,3706.61,3.073742003560182
447,3709.2999999999997,2.662402604454899
448,3711.9900000000002,2.145821205349616
449,3714.6800000000003,1.829256806244333
450,3717.37,2.2465104071390503
451,3720.06,1.8954410080337674
452,3722.75,2.066899608928485
453,3725.44,2.561906209823202
454,3728.13,3.9993728107179187
455,3730.82,4.1665754116126354
456,3733.5099999999998,4.190466012507353
457,3736.2000000000003,3.09384661340207
458,3738.8900000000003,2.268441214296787
459,3741.58,2.1592558151915044
460,3744.27,2.6709394160862217
461,3746.9599999999996,3.078646016980939
462,3749.65,3.0483626178756555
463,3752.34,1.9610602187703727
464,3755.0299999999997,2.5998388196650897
465,3757.72,2.002975420559807
466,3760.4100000000003,2.974272021454524
467,3763.1,3.1815006223492412
468,3765.79,3.1938892232439584
469,3768.48,3.2620618241386756
470,3771.1699999999996,3.0493604250333926
471,3773.86,2.619273025928109
472,3776.55,2.8528416268228263
473,3779.24,3.462290227717544
474,3781.93,3.378637828612261
475,3784.6200000000003,2.4673154295069777
476,3787.31,3.506931030401695
477,3790.0,2.8548596312964123
478,3792.69,3.1409912321911295
479,3795.3799999999997,2.9607248330858464
480,3798.07,2.9626464339805634
481,3800.76,3.5129750348752804
482,3801.8939600000003,3.095355103585426
483,3803.45,2.522410999537841
484,3806.14,2.9020324077225372
485,3808.8300000000004,3.1768718159072336
486,3811.52,3.5265882240919297
487,3814.21,3.196892632276626
488,3816.8999999999996,3.2306550404613223
489,3819.59,2.893367448646018
490,3822.28,2.8018748568307146
491,3824.97,3.596136265015411
492,3827.66,3.6714196732001074
493,3830.3500000000004,2.681980081384803
494,3833.04,2.3963364895694994
495,3835.73,2.5484518977541954
496,3838.42,2.956482305938892
497,3841.1099999999997,2.6355277141235884
498,3843.8,2.610860122308284
499,3846.4900000000002,2.7703365304929806
500,3849.18,2.9658139386776767
501,3851.87,2.8799563468623726
502,3854.5600000000004,3.237493755047069
503,3857.25,3.2918431632317655
504,3859.94,3.4180795714164613
505,3862.63,3.4414899796011578
506,3865.3199999999997,3.3542523877858543
507,3868.01,3.5700867959705502
508,3870.7000000000003,3.4200502041552463
509,3873.38,3.7695545216031965
510,3876.0699999999997,3.685076929787893
511,3878.7599999999998,3.162148337972589
512,3881.4500000000003,3.267336746157285
513,3884.14,2.7495851543419816
514,3886.83,2.941612562526678
515,3889.52,3.0934979707113737
516,3892.21,3.14681337889607
517,3894.9,3.2832867870807663
518,3897.59,3.1136951952654623
519,3900.2799999999997,2.965037603450159
520,3902.9700000000003,3.126125011634855
521,3905.6600000000003,3.273755419819551
522,3908.35,3.096802828004247
523,3911.04,3.1026152361889436
524,3913.7300000000005,3.31120464437364
525,3916.42,3.659542052558336
526,3919.11,3.532622460743032
527,3921.7999999999997,2.7774728689277284
528,3924.49,2.915901277112425
529,3927.1800000000003,3.0554806852971206
530,3929.87,3.206790093481817
531,3932.56,2.7854245016665136
532,3935.25,2.8114799098512098
533,3937.9399999999996,3.2387193180359057
534,3940.63,3.405442726220602
535,3943.32,3.936888134405298
536,3946.0099999999998,3.7368175425899945
537,3948.7,3.3589289507746907
538,3951.3900000000003,3.7169273589593868
539,3954.08,3.5067347671440827
540,3956.77,3.5833981753287794
541,3959.46,3.3145465835134758
542,3962.1499999999996,3.0943489916981717
543,3964.84,2.969039399882868
544,3967.53,2.526050808067564
545,3970.22,2.4645772162522603
546,3972.91,2.2824496244369565
547,3975.6000000000004,2.3906280326216525
548,3978.29,2.744025440806349
549,3980.98,2.6449418489910452
550,3983.67,2.7883152571757415
551,3986.36,3.5549726653604377
552,3989.05,3.5710220735451337
553,3991.74,3.6574614817298303
554,3994.43,3.6967448899145268
555,3997.12,3.7034762980992224
556,3999.81,3.692840706283919
557,4002.5,3.757658114468615
558,4005.19,3.751507522653311
559,4007.8799999999997,3.4980699308380077
560,4010.57,3.7719883390227036
561,4013.26,3.8265687472074
562,4015.95,3.586242155392096
563,4018.64,3.5762965635767925
564,4021.3300000000004,3.9537329717614886
565,4024.02,3.706735379946185
566,4026.71,3.497233788130881
567,4029.4,3.692250196315577
568,4032.0899999999997,3.4983906045002735
569,4034.78,3.4220800126849693
570,4037.4700000000003,3.445145420869666
571,4040.16,3.579087829054362
572,4042.85,3.595251237239058
573,4045.5400000000004,3.5089346454237544
574,4048.23,3.5564980536084505
575,4050.92,3.593135461793147
576,4053.61,3.668187869977843
577,4056.2999999999997,3.6036092781625393
578,4058.9900000000002,3.8783336863472355
579,4061.68,3.9605170945319315
580,4064.37,3.943325502716628
581,4067.0499999999997,3.855301820164578
582,4069.7400000000002,3.473271228349274
583,4072.4300000000003,4.1555076365339705
584,4075.12,3.792340044718667
585,4077.81,3.501749452903363
586,4080.5000000000005,3.397834861088059
587,4083.19,3.524416269272755
588,4085.88,3.4586876774574513
589,4088.57,3.3467200856421475
590,4091.2599999999998,3.664462493826844
591,4093.9500000000003,3.21181190201154
592,4096.639999999999,2.7833133101962364
593,4099.33,3.2799097183809325
594,4102.02,3.102727126565629
595,4104.71,3.104054534750325
596,4107.4,3.053737942935021
597,4110.09,3.3069543511197175
598,4112.78,3.1325327593044134
599,4115.47,3.82972016748911
