,lambda (Angstroms),Total Flux (erg/s/cm^2/Angstrom)
0,102.07000000000001,1.384881807194738
1,103.97,1.3809345459980724
2,104.712855,1.3793912621651756
3,105.9,1.3664361120582125
4,108.12,1.3422095613370328
5,109.87,1.323112088322417
6,114.0,1.2780420025056678
7,118.0,1.234390602892617
8,120.22644299999999,1.2100943505828092
9,121.02999999999999,1.2027425977665172
10,125.0,1.1664202144557705
11,127.03,1.1478472916759126
12,127.91,1.1397960177024373
13,130.89,1.1125313474643503
14,132.1,1.1014610623023218
15,133.94,1.0846265374745097
16,137.06,1.0560814394859155
17,138.038426,1.0471296566560575
18,139.93,1.0347594479647653
19,142.86,1.015603908013381
20,146.85999999999999,0.9894586906988636
21,150.97,0.9625826314636968
22,154.84,0.9372766203354008
23,158.489319,0.9134136845390324
24,159.18,0.9099993533625357
25,162.14,0.8953670162121735
26,165.92,0.876681938267792
27,170.17999999999998,0.8556232269098384
28,172.94,0.841980281906798
29,176.97,0.8220589921982642
30,179.84,0.8078721923141967
31,181.93,0.7975410304246843
32,181.970086,0.7973428769666603
33,186.16,0.7815428589885599
34,190.94,0.7635185858965907
35,194.04000000000002,0.7518294935658157
36,198.10999999999999,0.7364821930736373
37,201.79,0.7226064297238786
38,205.07000000000002,0.7102382771658327
39,208.929613,0.69568235016079
40,209.84,0.6931012191467879
41,216.22,0.6750203435424414
42,220.23999999999998,0.6636263085256588
43,222.79,0.6563980925624011
44,226.93,0.6446643148067591
45,230.09,0.6357627374068009
46,233.83,0.6252743351473562
47,239.83,0.6083298851043971
48,239.88329199999998,0.6081786474938488
49,245.98,0.5948427249185216
50,252.29000000000002,0.5810790647531122
51,256.97999999999996,0.5707763488623406
52,259.95,0.5643346775421716
53,264.18,0.5551116330528401
54,269.09,0.5443845436309449
55,274.09,0.5334598654326806
56,275.42287,0.5305476236723476
57,279.19,0.5242310404550333
58,283.72,0.5166355470293014
59,290.33,0.5055346760513568
60,295.72999999999996,0.49648710624849757
61,301.23,0.4872585199344741
62,308.25,0.4754913979707568
63,316.227766,0.46211970380568845
64,318.34000000000003,0.4594759348822673
65,328.02,0.44735036397359473
66,337.98,0.43487043591095226
67,348.25,0.42200128499927186
68,357.19,0.4108008554689481
69,363.078055,0.4034246762714311
70,366.35,0.4003549677624142
71,374.88,0.3923485661671928
72,385.39,0.38247272985244757
73,395.27,0.37321034184391444
74,405.41,0.36369549297726195
75,413.90000000000003,0.35572428576021276
76,416.86938299999997,0.3529358342856585
77,421.6,0.34954227659482934
78,430.41999999999996,0.34321723490806166
79,441.46999999999997,0.3352963390420997
80,450.71,0.32866905508929545
81,460.15,0.3218986561764737
82,469.78,0.3149930738766354
83,478.630092,0.3086489937745352
84,479.62,0.30810314061881805
85,489.66,0.30256130451912977
86,499.92,0.29690623644534486
87,505.7,0.2937202507622575
88,511.56,0.2905392473704076
89,519.87,0.2859590989352075
90,529.54,0.28062721255104567
91,539.38,0.27519158577326364
92,549.41,0.26969170144967075
93,549.5408739999999,0.26961986731197285
94,559.62,0.265404598865073
95,570.03,0.2610462600729998
96,580.63,0.25657662680460636
97,590.0600000000001,0.25264727264829023
98,599.65,0.24861557386980981
99,609.39,0.24453249932055013
100,619.29,0.24042919554912603
101,629.36,0.23621491810415224
102,630.957344,0.23554427717757614
103,639.58,0.23267521264506488
104,649.98,0.22925009643762342
105,657.5,0.2267637541537811
106,665.12,0.224252893349675
107,674.37,0.2211777868252679
108,685.3299999999999,0.21751496732434883
109,694.86,0.2144642283032029
110,704.53,0.21120845633368762
111,715.9699999999999,0.20751607429550198
112,724.43596,0.20472082042898965
113,725.9300000000001,0.20435581260392863
114,734.34,0.2023069733274065
115,744.56,0.19986471600231065
116,754.9100000000001,0.19736114589030057
117,765.41,0.19479472425492814
118,774.28,0.19270861434009443
119,785.0500000000001,0.19010984446266949
120,794.14,0.18792732664690423
121,805.1899999999999,0.1852605432592027
122,814.51,0.1830089082742816
123,825.84,0.18033406837630345
124,831.763771,0.17872139519719513
125,835.4,0.1779585824138436
126,845.08,0.1765047058914176
127,854.86,0.17474963131814006
128,864.76,0.17305133328384073
129,874.78,0.17132342278851956
130,884.91,0.16960763153726174
131,895.15,0.16782794553006727
132,905.52,0.16593622435676583
133,916.0,0.1649303504275278
134,924.48,0.17965879451531985
135,935.1800000000001,0.20097952007420844
136,946.01,0.2384375324669901
137,954.7700000000001,0.27126902681239795
138,954.992586,0.2715390564820953
139,965.82,0.2847175453894998
140,974.7599999999999,0.17281576362746373
141,986.05,0.2616474005521407
142,995.17,0.26585930090227833
143,1004.38,0.31779292230850287
144,1016.01,0.30793852100061914
145,1025.4099999999999,0.2116454757474716
146,1034.9,0.25438115155041086
147,1044.47,0.35762685718098297
148,1054.1399999999999,0.351381675096096
149,1063.8899999999999,0.30427232283884187
150,1076.21,0.33398071629429094
151,1086.17,0.28967047983457284
152,1096.22,0.33936616443094164
153,1096.4782,0.33901361046015277
154,1103.82,0.32922958951214587
155,1114.03,0.3191003554623656
156,1124.3400000000001,0.2978011120683171
157,1134.74,0.34255414026442726
158,1145.24,0.32033235911626934
159,1155.8400000000001,0.3305285686238431
160,1163.8500000000001,0.33573354014796264
161,1174.62,0.26734557377028056
162,1185.49,0.32468849804833033
163,1193.71,0.25843266994948666
164,1204.75,0.21667761834228058
165,1215.9,0.17982999645637948
166,1224.33,0.24997624873457264
167,1235.6499999999999,0.31967913096341566
168,1244.22,0.33932967015963333
169,1255.7299999999998,0.3266674146343669
170,1258.92541,0.3149078678372952
171,1264.44,0.2948479016259684
172,1276.14,0.3479642934298178
173,1284.98,0.35798702501494845
174,1293.89,0.30349586646557214
175,1305.8600000000001,0.2994583534648949
176,1314.9099999999999,0.34728451464650495
177,1324.03,0.33514398569360804
178,1336.28,0.3070970121549033
179,1345.54,0.34461850293299257
180,1354.87,0.33518170357657506
181,1364.26,0.30854796981915156
182,1373.72,0.31766414592722125
183,1386.4299999999998,0.3184072086474713
184,1396.04,0.28629604875302617
185,1405.71,0.29169275445757514
186,1415.46,0.29728861429411624
187,1425.27,0.3011159397296515
188,1435.15,0.29860267503067983
189,1441.77,0.3089372794530288
190,1445.43977,0.31025926807922755
191,1448.43,0.31143179517083386
192,1455.1100000000001,0.3042684363190779
193,1465.2,0.28650688964030285
194,1475.36,0.2852911845603866
195,1485.58,0.287825857993778
196,1495.8799999999999,0.28992773611157946
197,1506.25,0.2779564558282398
198,1513.2,0.25600070028636795
199,1516.69,0.26744491714375895
200,1523.69,0.26140487702964343
201,1534.25,0.23714519537177775
202,1544.8899999999999,0.2492693183983222
203,1555.6000000000001,0.23926258302372544
204,1566.3799999999999,0.24262638924798757
205,1573.61,0.2527652001015511
206,1584.52,0.2598741264379797
207,1595.5,0.26250429437326706
208,1606.56,0.25740276699296455
209,1613.9800000000002,0.2568546764720021
210,1625.1599999999999,0.24653810611831478
211,1636.43,0.2564752035345888
212,1643.9799999999998,0.2580652331257928
213,1655.3799999999999,0.24350795065423328
214,1659.58691,0.2487049916296673
215,1666.85,0.25783787231494226
216,1670.69,0.23789068093335664
217,1678.4099999999999,0.25811083367662724
218,1686.1499999999999,0.26483175417311877
219,1693.9399999999998,0.2525690940526626
220,1705.68,0.24445976519333573
221,1713.5500000000002,0.23490027608576317
222,1725.43,0.23313202149898274
223,1733.3899999999999,0.24303068728090427
224,1745.41,0.23796730696667015
225,1753.46,0.24780372763808578
226,1765.62,0.232604521596398
227,1773.77,0.23571388103391816
228,1786.06,0.23787706538816633
229,1794.3100000000002,0.24781616359179104
230,1806.75,0.245472506095196
231,1815.08,0.23121877531170432
232,1823.46,0.2339392639112649
233,1836.1,0.22664958394687898
234,1844.5800000000002,0.2129841113125441
235,1853.09,0.2132499903080406
236,1865.94,0.2165299717524742
237,1874.5500000000002,0.2277554895140752
238,1883.1999999999998,0.2141924427821181
239,1896.26,0.20682708563537122
240,1905.01,0.21524197766951864
241,1905.46072,0.21490696439228243
242,1913.8,0.20882350342841294
243,1927.07,0.20484870026981003
244,1935.9599999999998,0.20904125919370004
245,1944.8999999999999,0.21482812699792686
246,1953.88,0.20383458190642315
247,1967.42,0.21656626670163917
248,1976.5,0.22038243937080917
249,1985.62,0.2110965991442486
250,1994.79,0.20611166779802492
251,2004.0,0.21003652355607066
252,2013.25,0.2047097664183859
253,2027.2,0.210250344032364
254,2036.56,0.20174122643142028
255,2045.96,0.20629909593474605
256,2055.4,0.19727925254234127
257,2064.89,0.19827491803027333
258,2074.42,0.20882797062247485
259,2079.2,0.20116707958267668
260,2084.0,0.20593253209501322
261,2093.62,0.19752868067182106
262,2103.2799999999997,0.1981847163528984
263,2112.99,0.19919496091431255
264,2122.74,0.20056849257999618
265,2137.46,0.1901888469511616
266,2147.32,0.19246361815358626
267,2157.23,0.19683029823634776
268,2167.19,0.19171258719944612
269,2177.19,0.19033666326681395
270,2187.2400000000002,0.1873323482145186
271,2187.7616199999998,0.18762123757833846
272,2197.34,0.19304322113219174
273,2207.48,0.1887693518483769
274,2212.57,0.18219570543273414
275,2222.78,0.17820844494084565
276,2233.04,0.18517890501461878
277,2243.35,0.17953358565405358
278,2253.7,0.17408914274601775
279,2264.11,0.17623366451677588
280,2274.56,0.17873476274006336
281,2285.06,0.18096928152901248
282,2295.6,0.17334077677049092
283,2306.2,0.1734085366907634
284,2316.85,0.1681697171766975
285,2327.54,0.14469267411516096
286,2332.9,0.15997931875409116
287,2343.67,0.1562716285976133
288,2354.49,0.16335435900679704
289,2365.36,0.15474130998164248
290,2376.28,0.15686678152214956
291,2387.25,0.14915097362831833
292,2392.75,0.15491113585110122
293,2403.79,0.1505339367491963
294,2414.89,0.15233180232608537
295,2426.04,0.1573640884686361
296,2437.23,0.15286775106371617
297,2442.85,0.15807674264408705
298,2454.13,0.1559304022573581
299,2465.46,0.15460758243629083
300,2476.83,0.15042463906775289
301,2482.54,0.15211302766631474
302,2494.0,0.1435422813159678
303,2505.52,0.15531919964441485
304,2511.29,0.1441261529217707
305,2511.88643,0.14439372661417216
306,2517.08,0.14675757179242832
307,2522.88,0.14271919048523773
308,2534.5299999999997,0.14350017458372566
309,2546.23,0.1416162053950826
310,2552.1,0.1477155894859087
311,2563.88,0.14475729503785612
312,2575.71,0.14939424730267262
313,2587.6,0.14791615562293195
314,2593.56,0.14629142379692234
315,2605.54,0.14260151620034595
316,2617.56,0.1409486459740648
317,2623.6,0.14454728888864565
318,2635.71,0.14714850274552882
319,2647.87,0.154397763315281
320,2653.98,0.15651927162787851
321,2666.23,0.14614571628079498
322,2672.37,0.14996245262111396
323,2684.71,0.1497674813571947
324,2697.1,0.1443805568061445
325,2703.32,0.14658636788705393
326,2715.7999999999997,0.14132462741916801
327,2722.06,0.14048417587037268
328,2734.62,0.14428801014307724
329,2747.2400000000002,0.13203925047122467
330,2753.58,0.1337691236630198
331,2766.29,0.1366181980743315
332,2772.6600000000003,0.14016004929384807
333,2785.46,0.13464980778832406
334,2791.88,0.11835411572070967
335,2804.77,0.12302242829834995
336,2817.71,0.13747863758885925
337,2824.2099999999996,0.14133441026183535
338,2837.25,0.13715759297808278
339,2843.79,0.1344142030213541
340,2856.91,0.13047303047819198
341,2863.5,0.13845111723433234
342,2876.72,0.1384871681169083
343,2883.35,0.13763966224334395
344,2884.0315,0.13761605474365587
345,2896.66,0.13724932625786548
346,2910.03,0.14422109928262827
347,2930.2,0.13963531034541551
348,2950.51,0.13717593630898564
349,2970.9600000000005,0.13820417717333858
350,2991.55,0.1374950329384744
351,3012.2900000000004,0.137526468954449
352,3033.17,0.13705491987120644
353,3047.17,0.1364109099494921
354,3068.29,0.1364385292675916
355,3089.56,0.13596732883652984
356,3110.98,0.13574200865630687
357,3132.54,0.13329490337686678
358,3147.0,0.13314629955772464
359,3168.82,0.1329155933797384
360,3190.7799999999997,0.12767120210253505
361,3212.9,0.13003195642622636
362,3227.7299999999996,0.12520111055915323
363,3250.1000000000004,0.1303564586342425
364,3272.63,0.13280439231022648
365,3287.7400000000002,0.13166053624471905
366,3310.5299999999997,0.13020006902215692
367,3311.31121,0.13022905022013184
368,3325.81,0.13082386800101217
369,3333.4700000000003,0.13225131084439898
370,3341.1600000000003,0.12711906756315156
371,3348.86,0.13414612890702604
372,3356.58,0.12964799950114436
373,3364.32,0.12033990934550651
374,3372.0699999999997,0.12050838381499057
375,3379.85,0.12924706215984036
376,3387.64,0.12968046512981207
377,3395.45,0.12722977735002763
378,3403.27,0.13104859419536508
379,3411.1200000000003,0.1247733249160683
380,3418.98,0.1263596602618934
381,3426.86,0.12797460485796236
382,3434.77,0.13182666332939708
383,3442.6800000000003,0.12432802180083176
384,3450.62,0.1263806941476322
385,3458.57,0.12492067111955456
386,3466.5499999999997,0.12347126196684266
387,3474.54,0.12717315743925267
388,3482.5499999999997,0.12336496216190651
389,3490.58,0.1273028761348042
390,3498.62,0.12097386473282379
391,3506.69,0.12624382720620914
392,3514.77,0.12154668430471638
393,3522.8700000000003,0.12637221065346743
394,3530.99,0.12098252625246236
395,3539.14,0.12649913572682303
396,3547.29,0.12886180520118368
397,3555.47,0.12711108855091008
398,3563.67,0.12561918115088028
399,3571.88,0.11979665837597245
400,3580.12,0.11840243947643034
401,3588.3700000000003,0.11070488520201013
402,3596.64,0.11917983017783378
403,3604.9300000000003,0.12346126440390122
404,3613.24,0.11729685788021252
405,3617.0299999999997,0.12404966080141827
406,3619.77,0.12932402808482296
407,3622.5099999999998,0.12614839536822764
408,3625.2400000000002,0.11165684802651041
409,3627.98,0.1200516953099151
410,3630.7200000000003,0.1478150925933198
411,3633.45,0.12126864525160257
412,3636.19,0.12364182253500725
413,3638.9300000000003,0.10466792981841193
414,3641.66,0.10942957247669471
415,3644.3999999999996,0.1144213597600994
416,3647.14,0.11904975704350408
417,3649.87,0.13783904970178684
418,3652.61,0.14257121698519154
419,3655.35,0.12489508426859622
420,3658.0800000000004,0.11958600692687898
421,3660.82,0.1312339142102837
422,3663.56,0.12642608149368836
423,3666.29,0.12692524415197115
424,3669.0299999999997,0.1284159114353758
425,3671.77,0.1263996787187805
426,3674.5,0.11627437137706327
427,3677.24,0.12191790866046796
428,3679.98,0.12757877594387265
429,3682.71,0.12398273860215543
430,3685.4500000000003,0.1079966458855601
431,3688.19,0.1182949031689648
432,3690.9199999999996,0.10920204582724757
433,3693.6600000000003,0.11252114311065226
434,3696.4,0.11981431039405695
435,3699.13,0.11098102305233971
436,3701.87,0.11485959033574439
437,3704.6099999999997,0.12423496761914908
438,3707.34,0.12283073027743185
439,3710.08,0.12807629756083655
440,3712.82,0.12458926484424124
441,3715.55,0.12091251750252399
442,3718.2900000000004,0.12975729478592868
443,3721.03,0.15467136206933335
444,3723.7599999999998,0.23539672472761614
445,3726.5,0.29850579201102084
446,3729.24,0.3085210592944255
447,3731.9799999999996,0.2480526265778302
448,3734.71,0.176338089236113
449,3737.45,0.14339425651951765
450,3740.19,0.13655602380292234
451,3742.92,0.11533907646120511
452,3745.6600000000003,0.1176833937446098
453,3748.4,0.1158402010280145
454,3751.1299999999997,0.12614488368629725
455,3753.8700000000003,0.11839529096970194
456,3756.61,0.13676851825310662
457,3759.3399999999997,0.12046011091138942
458,3762.08,0.11596368819479409
459,3764.8199999999997,0.12045942547819878
460,3767.55,0.13490547813648154
461,3770.29,0.12580044541988622
462,3773.03,0.12271711270329091
463,3775.76,0.1411372753615737
464,3778.5,0.14529264264497838
465,3781.2400000000002,0.12708010992838306
466,3783.97,0.12058287258666583
467,3786.7099999999996,0.13732383987007052
468,3789.45,0.14494000715347521
469,3792.18,0.137214169811758
470,3794.92,0.13357143709516267
471,3797.66,0.12597180437856736
472,3800.3900000000003,0.13723396703685012
473,3801.8939600000003,0.1368522506177075
474,3803.13,0.13654195339919561
475,3805.87,0.15273099994888448
476,3808.6,0.13149281421189563
477,3811.3399999999997,0.14904316076158444
478,3814.0800000000004,0.13831340731127328
479,3816.81,0.14160612157428443
480,3819.5499999999997,0.15537256812397326
481,3822.29,0.1215885146736621
482,3825.02,0.13019342893667324
483,3827.76,0.11037350548636207
484,3830.5,0.11915084203605092
485,3833.2300000000005,0.10805252629906205
486,3835.9700000000003,0.10957963284875089
487,3838.71,0.10509078939843973
488,3841.44,0.12096324366145086
489,3844.18,0.1376425902111397
490,3846.9199999999996,0.14764843676082853
491,3849.65,0.14092235102383965
492,3852.39,0.13087889757352852
493,3855.13,0.14568364412321733
494,3857.86,0.14181265838622847
495,3860.6000000000004,0.1494191049359173
496,3863.34,0.13686665148560617
497,3866.0699999999997,0.15480986574861733
498,3868.81,0.14123651229830614
499,3871.55,0.15021565884799498
500,3874.2799999999997,0.15217607311100612
501,3877.02,0.13409211966069495
502,3879.7599999999998,0.13853206621038378
503,3882.4900000000002,0.12494198047339493
504,3885.23,0.11431032702308376
505,3887.9700000000003,0.1349637735727726
506,3890.7000000000003,0.13707408783578373
507,3893.44,0.13494423438547257
508,3896.1800000000003,0.13530618093516142
509,3898.91,0.13195419519817256
510,3901.6499999999996,0.14945264174786138
511,3904.39,0.14613458829755024
512,3907.12,0.13193900256056135
513,3909.86,0.1355425491102502
514,3912.6,0.14789589565993902
515,3915.34,0.13987134220962785
516,3918.07,0.143752356472639
517,3920.81,0.15165290302232784
518,3923.55,0.1388928495720167
519,3926.2799999999997,0.12856176383502782
520,3929.0199999999995,0.12635121038471667
521,3931.76,0.1146409869344055
522,3934.49,0.10904525119741665
523,3937.23,0.12078151774710548
524,3939.97,0.1300779642967943
525,3942.7000000000003,0.13443197855980543
526,3945.44,0.1368934251094943
527,3948.18,0.1346251716591831
528,3950.9100000000003,0.13255368592219427
529,3953.65,0.1357188324718831
530,3956.3900000000003,0.13952417902157194
531,3959.12,0.13823139328458306
532,3961.8599999999997,0.1267460398342719
533,3964.6,0.11887144638396074
534,3967.33,0.11554253064697188
535,3970.07,0.12126864719666071
536,3972.81,0.12471069374634956
537,3975.54,0.1231467080093607
538,3978.28,0.12754045455904953
539,3981.02,0.14427750110873838
540,3983.75,0.15042531537174952
541,3986.49,0.14688236192143836
542,3989.2300000000005,0.15268340847112719
543,3991.96,0.15970222273413834
544,3994.7,0.1659934692838272
545,3997.44,0.162692815833516
546,4000.17,0.15226943009652716
547,4002.91,0.16077567664621598
548,4005.65,0.15947062319590483
549,4008.38,0.15216193745891596
550,4011.1200000000003,0.15675748400860479
551,4013.86,0.15845753055829362
552,4016.5899999999997,0.16329614482130478
553,4019.33,0.1672629913709936
554,4022.0699999999997,0.16097443792068242
555,4024.8,0.15960675218369358
556,4027.54,0.1625065987333824
557,4030.28,0.15525484528307126
558,4033.01,0.15335645954608237
559,4035.75,0.15805010609577122
560,4038.4900000000002,0.16325695264546006
561,4041.22,0.1544082669084712
562,4043.9599999999996,0.15349551345816004
563,4046.7,0.16475296000784886
564,4049.43,0.15916317427086002
565,4052.17,0.16034992082054883
566,4054.91,0.1603253673702377
567,4057.6400000000003,0.1510555816332488
568,4060.38,0.15337862818293765
569,4063.12,0.1581932747326265
570,4065.85,0.16037858899563764
571,4068.59,0.1569913355453265
572,4071.3300000000004,0.1539559820950153
573,4074.06,0.14994649635802645
574,4076.7999999999997,0.1461959429077153
575,4079.54,0.1477402894574041
576,4082.27,0.14884120372041526
577,4085.01,0.1578895502701041
578,4087.75,0.16092779681979294
579,4090.48,0.15446701108280406
580,4093.2200000000003,0.14944745763249292
581,4095.96,0.14711000418218173
582,4098.69,0.15697241844519289
583,4101.429999999999,0.15773226499488174
584,4104.17,0.15591391154457054
585,4106.9,0.14707672580758172
586,4109.64,0.14421437235727053
587,4112.38,0.15003851890695938
