,lambda (Angstroms),Total Flux (erg/s/cm^2/Angstrom)
0,100.03,3.114234056057548
1,101.89,3.1055710584429725
2,104.02,3.0956505288602587
3,104.712855,3.0924235390347823
4,105.96,3.0619117600539276
5,107.93,3.013715115552834
6,109.92999999999999,2.9647845130065664
7,114.05999999999999,2.8637428182956355
8,118.07,2.7656369612729734
9,120.22644299999999,2.7128789643878815
10,121.09,2.6951660526028824
11,125.06,2.613735074711717
12,127.09,2.572096564731097
13,127.97,2.5540463764656423
14,130.96,2.4927167514242283
15,131.85999999999999,2.474256350584097
16,134.01,2.430156456515953
17,137.13,2.366160368190221
18,138.038426,2.3475271221144793
19,140.0,2.318767833017687
20,142.93,2.275810671390726
21,146.93,2.217166846237162
22,151.05,2.15676250096529
23,154.93,2.099876961685033
24,158.489319,2.047693063246184
25,158.9,2.0431410327102073
26,161.85000000000002,2.010442958869234
27,166.01000000000002,1.964333239349991
28,169.86999999999998,1.9215487744945594
29,173.03,1.8865231748270188
30,177.06,1.8418545298081268
31,179.94,1.809932586069343
32,181.970086,1.7874311129862568
33,182.01999999999998,1.7870090414475295
34,185.82999999999998,1.754791875118021
35,191.04,1.7107363743992543
36,194.14000000000001,1.6845230909956117
37,198.20999999999998,1.650107513126927
38,201.89,1.6189900612415065
39,205.17000000000002,1.591254776115588
40,208.929613,1.5594635722102286
41,209.95,1.5529767021838723
42,215.84,1.5155342677318293
43,219.85000000000002,1.4900426135120004
44,222.91,1.4705897376166948
45,227.04999999999998,1.4442719024524575
46,230.21,1.4241965915829913
47,233.95,1.4004498456953953
48,239.88329199999998,1.3627495727124943
49,239.95,1.3624229925978766
50,246.11,1.33224398690874
51,251.84,1.3041822574527737
52,257.11,1.2783516521367102
53,260.09000000000003,1.2637675719012516
54,263.71,1.2460409084354929
55,269.23,1.219001556176656
56,274.24,1.194460076892277
57,275.42287,1.1886660644132736
58,278.69,1.1763849393087906
59,283.87,1.156912538097962
60,289.82,1.1345394762598475
61,295.89,1.1117235595616368
62,300.69,1.09367829575778
63,307.7,1.0673278860054807
64,316.227766,1.0352721712667783
65,317.78000000000003,1.03091448703329
66,328.19,1.0016868327011827
67,338.15999999999997,0.9736928486919506
68,347.63,0.9471027456723484
69,357.37,0.9197537288023462
70,363.078055,0.9037272448770058
71,365.7,0.8982145413056825
72,375.08,0.8784899600156244
73,384.7,0.858255811052047
74,394.57,0.8375060615035532
75,404.69,0.816226577470143
76,414.11999999999995,0.796395701623102
77,416.86938299999997,0.7906133467731847
78,421.82,0.7826621287095537
79,429.65999999999997,0.7700711196056962
80,440.68,0.752374590184713
81,450.94,0.7358956478237975
82,460.39,0.7207180208861121
83,470.03000000000003,0.7052356871084099
84,478.630092,0.6914246339795902
85,479.87,0.6898932622319225
86,489.92,0.6774764773625771
87,500.18,0.6648054674079023
88,505.97,0.6576519304981001
89,511.83,0.6504320597265218
90,520.14,0.6401684881927645
91,529.8100000000001,0.6282231507587774
92,539.66,0.6160513127659365
93,549.5408739999999,0.6038580633303376
94,549.6999999999999,0.6037083104279553
95,559.92,0.5940887480481635
96,570.33,0.5842906699136592
97,579.5899999999999,0.5755594223260986
98,590.37,0.5654196219008387
99,599.96,0.5563843660971983
100,609.7099999999999,0.5471977781948532
101,619.62,0.5378937566938026
102,629.68,0.5284250253127161
103,630.957344,0.5272215858897105
104,639.92,0.5205278454036598
105,650.3100000000001,0.5127883587195871
106,657.8399999999999,0.5071776347624102
107,665.4599999999999,0.5014979643089325
108,674.72,0.49458015876730443
109,685.6800000000001,0.48638941057332585
110,695.22,0.4793338431654285
111,704.89,0.47209679465176313
112,716.35,0.4635914001894461
113,724.43596,0.4575641331902538
114,726.3100000000001,0.45652798151035867
115,734.7199999999999,0.45188110445632224
116,744.94,0.4462678840650911
117,755.3100000000001,0.44055080687575005
118,765.81,0.4347513768080471
119,774.68,0.4298914066998064
120,785.46,0.42395718575563124
121,794.55,0.4189477980301625
122,805.6099999999999,0.4128475353095153
123,814.9399999999999,0.4077007038470706
124,824.37,0.4025490934858857
125,831.763771,0.39834821853112173
126,835.84,0.3966030024049347
127,845.52,0.39279254108377193
128,855.31,0.388760180926005
129,865.21,0.38473013493163405
130,875.23,0.3806561531336949
131,885.37,0.37655749023218765
132,895.62,0.37237930809407627
133,905.99,0.36806706515239673
134,914.37,0.3654098180365555
135,924.9599999999999,0.3748663156216677
136,935.67,0.39003991440321184
137,944.33,0.42098187941237813
138,954.992586,0.44976745534864027
139,955.26,0.45049178177210153
140,964.0999999999999,0.45181412558672923
141,975.27,0.3532725948638096
142,984.2900000000001,0.414141557941631
143,995.69,0.4238490812772367
144,1004.9,0.4809350585773182
145,1014.1999999999999,0.4771641705089966
146,1025.94,0.38541605245285737
147,1035.44,0.4121553335658621
148,1045.02,0.5234968343513975
149,1054.6899999999998,0.5166470097685298
150,1064.45,0.4560795898172588
151,1074.29,0.49106052953851864
152,1084.23,0.43581261885044154
153,1094.27,0.49770905775302765
154,1096.4782,0.49487359335713554
155,1104.3899999999999,0.48529584994277397
156,1114.6100000000001,0.469062237513179
157,1124.9199999999998,0.4431453444457502
158,1135.33,0.5023832506696169
159,1145.8400000000001,0.4742993561847791
160,1153.78,0.49110471991364574
161,1164.46,0.49427428422401043
162,1175.23,0.40900776789654103
163,1186.11,0.4813897307894968
164,1194.33,0.393547432533991
165,1205.38,0.3419855442221492
166,1213.73,0.32107381504532756
167,1224.96,0.39727585545781774
168,1236.3,0.4889660950907331
169,1244.87,0.5111255943547617
170,1256.39,0.48861747271200884
171,1258.92541,0.47553406886264105
172,1265.0900000000001,0.44431074912522284
173,1273.86,0.5196612451287833
174,1285.65,0.5339314605087123
175,1294.56,0.4467487209866739
176,1303.54,0.4436114137018361
177,1315.6000000000001,0.5158117248538245
178,1324.72,0.4965640820433879
179,1333.9,0.45154823829340895
180,1346.24,0.5133377783941998
181,1355.5700000000002,0.5003196322953649
182,1364.97,0.45863461843373077
183,1374.43,0.4735569036325542
184,1383.9599999999998,0.47500192106857825
185,1393.55,0.4331555375650599
186,1406.4499999999998,0.44038303556345554
187,1416.2,0.4419728828878242
188,1426.01,0.45056012927265066
189,1435.8999999999999,0.44588784107142065
190,1442.52,0.46176280407524845
191,1445.43977,0.4660275515316331
192,1445.85,0.46665607322978
193,1455.87,0.4544163985101043
194,1465.96,0.42776805929637896
195,1476.1299999999999,0.4271921035180255
196,1486.36,0.43225833531620095
197,1496.6599999999999,0.4363362026203268
198,1503.57,0.4166229218505704
199,1510.51,0.3837223848690785
200,1517.48,0.40168809167585096
201,1524.49,0.39247889020030946
202,1535.05,0.35713110366939377
203,1545.69,0.37932210057384985
204,1556.41,0.36564728091367793
205,1563.59,0.3675999942383016
206,1574.43,0.3803134497311873
207,1585.3400000000001,0.3920148407300235
208,1596.33,0.39436851516423155
209,1603.7,0.3905338391478633
210,1614.82,0.3913116366645506
211,1626.01,0.3742294696871883
212,1633.52,0.39086176468272077
213,1644.84,0.39220382078783766
214,1656.24,0.37022086032832646
215,1659.58691,0.37990237492328416
216,1663.88,0.3925333803962006
217,1671.56,0.3619723395207368
218,1675.42,0.3911943049140584
219,1683.1499999999999,0.40435937861622834
220,1694.82,0.38569046103593374
221,1706.57,0.3732843867798531
222,1714.44,0.35653016129939735
223,1726.3300000000002,0.3542022878606911
224,1734.3,0.3700741915355027
225,1746.3200000000002,0.36260687599864405
226,1754.38,0.37933826591319636
227,1766.54,0.35532575119371207
228,1774.6899999999998,0.35882612734800506
229,1786.99,0.36347061344589504
230,1795.2399999999998,0.38063231875545556
231,1803.5300000000002,0.37856359572712284
232,1816.03,0.35304434013554764
233,1824.4099999999999,0.35913930334695565
234,1837.0600000000002,0.3471653914882815
235,1845.54,0.326199383854957
236,1854.06,0.32345484788373935
237,1866.9099999999999,0.32910809433560007
238,1875.53,0.35118198751964985
239,1884.18,0.3284796094502798
240,1892.88,0.31765464595854354
241,1905.46072,0.33050117698292947
242,1906.0,0.3310685231562469
243,1914.8000000000002,0.3193615438454831
244,1923.64,0.31552697281057945
245,1936.97,0.32288798074097924
246,1945.9099999999999,0.32956913039572605
247,1954.8899999999999,0.313752288326333
248,1968.4399999999998,0.33489184177396375
249,1977.5300000000002,0.34160867246318605
250,1982.09,0.32650281591124486
251,1995.8300000000002,0.3188115586692113
252,2005.04,0.3264635141860142
253,2014.3,0.3158714300476423
254,2023.5900000000001,0.32826070211616554
255,2032.93,0.3120304345295139
256,2047.03,0.3205242517702219
257,2056.47,0.31003480487322077
258,2065.9700000000003,0.30922747039000975
259,2075.5,0.32434729211369395
260,2080.29,0.30937063314794866
261,2085.08,0.31872137418220337
262,2094.71,0.30499881659553796
263,2104.3700000000003,0.30597371521576766
264,2114.09,0.3074096262497877
265,2123.85,0.3098008455596678
266,2133.65,0.29382727314540813
267,2143.5,0.29688356107597363
268,2153.39,0.3049937572823993
269,2163.33,0.2982874138336502
270,2173.32,0.2952307307297262
271,2183.35,0.2887603559016625
272,2187.7616199999998,0.2927901543557748
273,2193.4300000000003,0.2981234049535867
274,2203.5499999999997,0.2917912544104099
275,2213.7200000000003,0.2814411355345098
276,2223.94,0.2739590483258866
277,2234.21,0.28529209278454015
278,2244.52,0.2763897425770151
279,2254.88,0.2674744240367669
280,2265.29,0.2723793371637955
281,2275.74,0.2762353556246455
282,2286.25,0.27977313208622767
283,2296.7999999999997,0.26861241388163126
284,2307.4,0.2670139273443116
285,2312.7200000000003,0.25762493674256254
286,2323.4,0.21703556087288584
287,2334.12,0.2445669903370305
288,2344.89,0.24104335146845202
289,2355.7200000000003,0.25108727060060565
290,2366.59,0.23810449506658074
291,2377.52,0.24136297753328798
292,2383.0,0.2315082082668246
293,2394.0,0.2410145750677194
294,2405.04,0.23315704720243555
295,2416.15,0.23667070367133924
296,2427.3,0.2438195654740644
297,2432.89,0.23630268587560999
298,2444.12,0.24490855834597802
299,2455.4100000000003,0.24158108881707813
300,2466.7400000000002,0.24040302462199972
301,2472.43,0.23428260835809894
302,2483.84,0.23898195483066337
303,2495.3,0.22863413297050464
304,2506.82,0.24339986911107803
305,2511.88643,0.22894101483504997
306,2512.6,0.22691502483181036
307,2518.39,0.2327743427191554
308,2524.2,0.22495150574600764
309,2535.85,0.22625104950897298
310,2547.55,0.22203405612070642
311,2553.43,0.23111412713583399
312,2565.21,0.22740991430559637
313,2577.05,0.23567823689388046
314,2582.99,0.23340584332752976
315,2594.92,0.2313353190435964
316,2606.89,0.22556998503867753
317,2612.9,0.2237352994606021
318,2624.96,0.22878231858346582
319,2637.08,0.2315636731248512
320,2643.16,0.24228799553505118
321,2655.36,0.2438596306344655
322,2667.62,0.22862840115240157
323,2673.76,0.2355584589811232
324,2686.1099999999997,0.23377728262684186
325,2692.3,0.22724880330433161
326,2704.73,0.23040550750807917
327,2717.21,0.22312767456059482
328,2723.4700000000003,0.2226115032263599
329,2736.04,0.2291955234066581
330,2742.35,0.2103668149211913
331,2755.0099999999998,0.2118849882292721
332,2767.73,0.21569619695587455
333,2774.11,0.22186649645868306
334,2786.9100000000003,0.2158044857433145
335,2793.34,0.1910260480948911
336,2806.23,0.19880949050730512
337,2812.7000000000003,0.21907484313789616
338,2825.68,0.22353703867809277
339,2832.2000000000003,0.2158287541574519
340,2845.2699999999995,0.21215610282543107
341,2851.8300000000004,0.20906260858380465
342,2864.9900000000002,0.21896291037956636
343,2878.21,0.21790524759384977
344,2884.0315,0.21744249648555725
345,2884.85,0.21738771114455308
346,2898.17,0.21581342238977014
347,2911.5400000000004,0.2261578242928145
348,2931.72,0.22012595379194966
349,2952.0499999999997,0.21701725526456694
350,2972.5099999999998,0.21809403244753545
351,2993.11,0.21742558347242064
352,3006.93,0.21791340129591158
353,3027.77,0.21759140747836825
354,3048.7599999999998,0.2158555856343071
355,3069.8900000000003,0.21552593763216263
356,3091.1699999999996,0.21519636160350036
357,3112.6,0.21415475754832025
358,3126.9700000000003,0.2114940726079125
359,3148.64,0.21149582371030387
360,3170.4700000000003,0.21045274491774288
361,3192.44,0.20266903996709862
362,3207.18,0.20643958589461356
363,3229.41,0.20040433236467173
364,3251.8,0.20639174893977752
365,3266.81,0.20962134441956037
366,3289.45,0.2075116142838031
367,3311.31121,0.20616153112485802
368,3312.25,0.20611182028169123
369,3319.89,0.20502106285650135
370,3327.54,0.20704339161269206
371,3335.21,0.2105219927316441
372,3342.8999999999996,0.20280106621335736
373,3350.6000000000004,0.20934692587645132
374,3358.33,0.20336414408368716
375,3366.0699999999997,0.19959084847230368
376,3373.83,0.19173492522368146
377,3381.6099999999997,0.19913077433782053
378,3389.4,0.20659690963334024
379,3397.2200000000003,0.20068760347300188
380,3405.05,0.20130348349404414
381,3412.8999999999996,0.19821793587784772
382,3420.77,0.20255046062441254
383,3428.6499999999996,0.20283477155235805
384,3436.5499999999997,0.20242835484306482
385,3444.4799999999996,0.19017189667791348
386,3452.42,0.20649562469414284
387,3460.37,0.1955164388917528
388,3468.35,0.19644141163350468
389,3476.3500000000004,0.19440235673801784
390,3484.36,0.1966439880239117
391,3492.3900000000003,0.1962464916725668
392,3500.44,0.1922469676839832
393,3508.51,0.19644681605816083
394,3516.6,0.19018443679509983
395,3524.7099999999996,0.19531722989480005
396,3532.83,0.19861200917588093
397,3540.98,0.20163284700110373
398,3549.14,0.20437587100770715
399,3557.3199999999997,0.1987553673770719
400,3565.52,0.20249503610919792
401,3573.7400000000002,0.18968727720408518
402,3581.98,0.18802079066173377
403,3590.2400000000002,0.17843677648214362
404,3598.5099999999998,0.19405324848393413
405,3606.81,0.19037227902986656
406,3615.12,0.19062399575717964
407,3623.46,0.1902247710286346
408,3631.81,0.20994493248147025
409,3637.82,0.19347292749123576
410,3640.56,0.19107164118953154
411,3643.31,0.19509534106920795
412,3646.05,0.1921721547675037
413,3648.7999999999997,0.18968285464718013
414,3651.54,0.19124856834547588
415,3654.2799999999997,0.19809758204377165
416,3657.03,0.19431498192344804
417,3659.77,0.20597199562174381
418,3662.5200000000004,0.1944991955014202
419,3665.26,0.19956780919971598
420,3668.0099999999998,0.1910527090793924
421,3670.75,0.18868622277768815
422,3673.5,0.19338842265736458
423,3676.2400000000002,0.19421753635566033
424,3678.98,0.1932314500539561
425,3681.7299999999996,0.1982700499336325
426,3684.4700000000003,0.19779996363192826
427,3687.22,0.20758846351160468
428,3689.96,0.19424917720990043
429,3692.71,0.2147030770895768
430,3695.4500000000003,0.2066124907878726
431,3698.2,0.193962290667549
432,3700.9399999999996,0.19005310436584477
433,3703.68,0.20451711806414052
434,3706.43,0.19851901794381696
435,3709.17,0.2004037316421127
436,3711.92,0.2019741315217891
437,3714.6600000000003,0.21330634522008485
438,3717.41,0.2405167450997613
439,3720.1499999999996,0.33774715879805706
440,3722.9,0.5072096586777335
441,3725.64,0.6183364723760293
442,3728.38,0.5713544860743249
443,3731.1299999999997,0.4098620859540014
444,3733.8700000000003,0.29085419965229714
445,3736.62,0.22350179953197355
446,3739.36,0.22549671323026932
447,3742.11,0.1960509131099457
448,3744.85,0.1934582268082415
449,3747.6,0.1842646266879179
450,3750.3399999999997,0.19502844038621364
451,3753.08,0.20514275408450944
452,3755.83,0.21551115396418583
453,3758.57,0.22531226766248158
454,3761.32,0.214036567542158
455,3764.0600000000004,0.20998818124045376
456,3766.81,0.20777728112013016
457,3769.5499999999997,0.21082189481842595
458,3772.3,0.21144119469810235
459,3775.04,0.2240319083963981
460,3777.79,0.23483520827607451
461,3780.5299999999997,0.2606839219743703
462,3783.2700000000004,0.24675313567266602
463,3786.02,0.23908463555234244
464,3788.7599999999998,0.2375244492506382
465,3791.51,0.22255434913031463
466,3794.25,0.21255566282861038
467,3797.0,0.19958066270828678
468,3799.74,0.21110997640658255
469,3801.8939600000003,0.21784568337270235
470,3802.4900000000002,0.21971327255495177
471,3805.23,0.24106097802597812
472,3807.97,0.25360498349700444
473,3810.7200000000003,0.2544094371631805
474,3813.46,0.25197304263420683
475,3816.21,0.2605662963003829
476,3818.95,0.24345700177140922
477,3821.7000000000003,0.24431355543758532
478,3824.44,0.23520186090861164
479,3827.1899999999996,0.2121062145747877
480,3829.93,0.21027292004581405
481,3832.67,0.19123212551684038
482,3835.42,0.19774357918301644
483,3838.16,0.20256238465404275
484,3840.9100000000003,0.21772093832021883
485,3843.65,0.23199894379124517
486,3846.3999999999996,0.24962809745742123
487,3849.14,0.2506599029284476
488,3851.89,0.25611555659462365
489,3854.63,0.25786066206564995
490,3857.37,0.25890986753667633
491,3860.1200000000003,0.26433072120285234
492,3862.86,0.27768682667387873
493,3865.6099999999997,0.28790968034005476
494,3868.35,0.2797433858110811
495,3871.1,0.26316053947725715
496,3873.84,0.2515202449482835
497,3876.5899999999997,0.23962929861445958
498,3879.33,0.2297056040854859
499,3882.07,0.2261731095565122
500,3884.82,0.2192930632226883
501,3887.56,0.2086269686937146
502,3890.31,0.2172668223598907
503,3893.05,0.217428527830917
504,3895.7999999999997,0.2285969814970931
505,3898.54,0.24082778696811946
506,3901.29,0.2475651406342955
507,3904.03,0.24594654610532182
508,3906.77,0.25704645157634815
509,3909.5200000000004,0.2618990052425242
510,3912.26,0.2672631107135506
511,3915.0099999999998,0.26650746437972667
512,3917.75,0.25816126985075294
513,3920.5,0.253392223516929
514,3923.2400000000002,0.25014972898795534
515,3925.99,0.24118768265413143
516,3928.7300000000005,0.23315458812515777
517,3931.4700000000003,0.22310919359618409
518,3934.22,0.22711504726236015
519,3936.96,0.23748995273338647
520,3939.71,0.24276010639956255
521,3942.4500000000003,0.2494929118705889
522,3945.2,0.25442666553676496
523,3947.9399999999996,0.2561891710077913
524,3950.69,0.2566746246739674
525,3953.43,0.2505265301449937
526,3956.17,0.23727383561602003
527,3958.92,0.2278245892821961
528,3961.6600000000003,0.2131625947532224
529,3964.41,0.19981604841939848
530,3967.1499999999996,0.18905135389042485
531,3969.9,0.1965371075566009
532,3972.64,0.19842711302762725
533,3975.39,0.2087777666938033
534,3978.13,0.22932517216482962
535,3980.8700000000003,0.23730487763585598
536,3983.62,0.248664531302032
537,3986.36,0.24976013677305836
538,3989.11,0.25181149043923445
539,3991.85,0.25353929591026075
540,3994.6,0.25444804957643685
541,3997.3399999999997,0.26148825504746315
542,4000.09,0.2629654087136392
543,4002.83,0.2635854141846656
544,4005.57,0.26345151965569186
545,4008.32,0.26460397332186797
546,4011.0600000000004,0.26090327879289427
547,4013.81,0.25923703245907037
548,4016.5499999999997,0.2724306379300967
549,4019.3,0.2606672915962728
550,4022.04,0.2533708970672991
551,4024.79,0.2635995507334752
552,4027.53,0.2644516562045015
553,4030.2700000000004,0.2620268616755278
554,4033.02,0.2623151153417039
555,4035.7599999999998,0.26671652081273023
556,4038.51,0.2692607744789063
557,4041.25,0.26681287994993264
558,4044.0,0.2680753336161087
559,4046.74,0.267732739087135
560,4049.4900000000002,0.2638857927533111
561,4052.23,0.26399549822433743
562,4054.97,0.26389060369536377
563,4057.7200000000003,0.25746865736153984
564,4060.46,0.25684176283256616
565,4063.21,0.2649885164987422
566,4065.95,0.26694822196976853
567,4068.7000000000003,0.2657749756359446
568,4071.44,0.26175538110697094
569,4074.1899999999996,0.258998734773147
570,4076.9300000000003,0.25367424024417334
571,4079.67,0.2514060457151997
572,4082.42,0.24643399938137572
573,4085.16,0.2459115048524021
574,4087.9100000000003,0.23879375851857815
575,4090.65,0.2324831639896045
576,4093.3999999999996,0.22263961765578058
577,4096.139999999999,0.2180108231268069
578,4098.89,0.21704647679298295
579,4101.63,0.2202066822640093
580,4104.37,0.2207048877350356
581,4107.12,0.2240901414012117
