,lambda (Angstroms),Total Flux (erg/s/cm^2/Angstrom)
0,102.03,7.361811827633682
1,103.92999999999999,7.340830008589532
2,104.712855,7.3321848926119655
3,106.1,7.2517199248874356
4,108.08,7.136864860842595
5,110.09,7.020269585178342
6,113.96,6.795780167007068
7,117.96,6.563749777099199
8,120.22644299999999,6.4322793625256
9,120.99000000000001,6.39514525099404
10,124.94999999999999,6.2025577485302
11,126.97999999999999,6.1038323265002115
12,127.86,6.061035145976802
13,131.14000000000001,5.901518217331096
14,132.05,5.857262314618444
15,133.89,5.767777286727319
16,137.0,5.616528606181644
17,138.038426,5.56602671495025
18,139.87,5.502357349424339
19,143.13,5.389039940515654
20,147.14,5.24966279733605
21,150.92,5.118265894629343
22,155.14,4.971574630804922
23,158.489319,4.855150256244496
24,159.12,4.838576432137241
25,162.08,4.760789880888972
26,165.86,4.661456390403278
27,170.10999999999999,4.549770107407354
28,172.88000000000002,4.476978770195561
29,176.9,4.3713385162037905
30,180.19,4.284881398402169
31,181.86,4.240997252011558
32,181.970086,4.23810436594728
33,186.09,4.155511086520032
34,190.87,4.059686830913441
35,193.97,3.9975425416371997
36,198.03,3.916152251472186
37,202.18,3.8329593017894754
38,204.99,3.7766301540035925
39,208.929613,3.6976494462367273
40,209.76999999999998,3.6849833418940494
41,216.14000000000001,3.5889951728284997
42,220.16,3.52841629510707
43,223.22000000000003,3.4823007651564293
44,226.85,3.4276029740512586
45,230.0,3.380270360781481
46,233.73999999999998,3.3241852563640313
47,239.73999999999998,3.233971269221599
48,239.88329199999998,3.2318108768926
49,245.89,3.1620185385205017
50,252.19,3.088941733517327
51,256.88,3.0343162480149637
52,259.86,2.999870788570604
53,264.08,2.9509330811970496
54,268.99,2.8939299245088606
55,273.99,2.8358768536491983
56,275.42287,2.8192403965835036
57,279.08,2.7866577347518375
58,284.27,2.7404210256277666
59,290.21999999999997,2.6873530857841774
60,296.3,2.6331996860280396
61,301.12,2.590236431885837
62,308.13,2.5278005199860796
63,316.227766,2.4556763126476815
64,318.22,2.4424272053774834
65,327.89,2.378085980745998
66,337.85999999999996,2.3117281825468354
67,348.12,2.2434366301322495
68,357.05,2.1840046415677032
69,363.078055,2.1438976536976098
70,366.21,2.128296136536393
71,374.74,2.0857725411814165
72,385.24,2.0333751533411766
73,395.12,1.984189008049598
74,405.26,1.9336716125924518
75,413.75,1.891336510724486
76,416.86938299999997,1.875774966344293
77,422.41,1.8546642645010671
78,430.26,1.824764174946615
79,441.3,1.7827507761299075
80,450.53999999999996,1.7475536503702724
81,459.97,1.7116180207768348
82,469.61,1.6749091058934058
83,478.630092,1.6405763802766693
84,480.55,1.6349568902687377
85,489.47999999999996,1.6087478784119422
86,499.72999999999996,1.5787734740007269
87,505.52,1.561760824614294
88,512.5500000000001,1.5412930661312845
89,519.68,1.520395968575971
90,530.56,1.4884935943092368
91,540.42,1.4595426673800094
92,549.5408739999999,1.4328109473370014
93,550.47,1.4307331526387743
94,559.42,1.4107995079383508
95,569.8199999999999,1.3876134581803163
96,580.41,1.3639160435526638
97,589.84,1.3428556169711001
98,599.4200000000001,1.3213576801766798
99,610.57,1.2962703313543644
100,620.49,1.2743456964774698
101,630.57,1.251785563973529
102,630.957344,1.250921463319926
103,639.34,1.23610268948925
104,649.73,1.217672027421727
105,657.2600000000001,1.204286154811674
106,664.87,1.1908612055244894
107,675.6700000000001,1.171740567111664
108,685.0699999999999,1.15499088104865
109,694.5999999999999,1.1381993545102964
110,704.26,1.1209668364966028
111,715.7099999999999,1.1008078987070802
112,724.43596,1.0853471674961477
113,725.6600000000001,1.0837370849238557
114,735.76,1.0704553169107471
115,744.28,1.0592366915333522
116,754.63,1.0456228366981364
117,765.13,1.0316853551696568
118,775.77,1.0178307176607975
119,784.75,1.0059735134907262
120,795.67,0.9916548250211075
121,804.8900000000001,0.9795474707418137
122,814.2099999999999,0.9672912263336778
123,825.53,0.9524337613486883
124,831.763771,0.94410702030806
125,835.09,0.9407682877502028
126,844.76,0.93144264878602
127,854.5400000000001,0.9218181516536821
128,864.4399999999999,0.9121209305197207
129,874.4499999999999,0.9023091482176038
130,884.5699999999999,0.8923933587473319
131,894.82,0.8823354714419676
132,905.1800000000001,0.872122085968448
133,915.66,0.8622245604933049
134,924.13,0.8603453305453599
135,934.8299999999999,0.8586325567339064
136,945.66,0.8629030260873606
137,954.41,0.8692599568022933
138,954.992586,0.8687453487829723
139,965.46,0.8597214951316866
140,974.39,0.8108421918344028
141,985.6800000000001,0.826130612998307
142,994.8,0.8240581289500173
143,1004.0,0.8420733083749878
144,1015.63,0.8313603383002499
145,1025.02,0.7851703909742146
146,1034.51,0.788291627989755
147,1044.08,0.8292488784785561
148,1056.17,0.8161323083750665
149,1065.94,0.7812867675470192
150,1075.81,0.7887869010605477
151,1085.76,0.7562533980473366
152,1095.81,0.7759299593757014
153,1096.4782,0.7750344507989311
154,1105.95,0.7639911097097962
155,1116.1799999999998,0.7500222348229011
156,1123.92,0.7339326530609684
157,1134.3200000000002,0.7534764251896379
158,1144.81,0.7345943898559595
159,1155.4,0.7346606451196718
160,1166.1000000000001,0.7289106090405143
161,1174.1799999999998,0.6864742413097116
162,1185.04,0.7111068041863798
163,1196.01,0.6650128257201783
164,1204.3,0.6380093572438966
165,1215.44,0.6231064757932598
166,1223.87,0.6502840201533256
167,1235.19,0.6827607637779927
168,1243.75,0.6873639829146668
169,1255.26,0.669943079674377
170,1258.92541,0.6590416329524956
171,1263.96,0.6452059521017343
172,1275.66,0.6741565151478124
173,1284.5,0.6772694058937382
174,1296.39,0.6323602752115047
175,1305.37,0.6257901811049903
176,1314.42,0.6550416745722558
177,1323.53,0.6430208473884756
178,1335.78,0.6161588227999677
179,1345.0400000000002,0.6411527189885728
180,1354.36,0.6311552445261328
181,1363.75,0.6077288876374723
182,1376.3700000000001,0.6089697273675155
183,1385.9099999999999,0.6047004938512408
184,1395.51,0.5821733896839202
185,1405.19,0.5807786913152053
186,1414.93,0.5770206222954447
187,1424.7399999999998,0.5770663708494642
188,1434.6100000000001,0.5699870487524376
189,1441.23,0.5744772535870561
190,1445.43977,0.5740441135968956
191,1447.89,0.5742072493107178
192,1454.57,0.5666333363103382
193,1464.65,0.5509099142977892
194,1474.8,0.5476633726879312
195,1485.03,0.5473849943954335
196,1495.32,0.5461738135909566
197,1505.68,0.5341110131891703
198,1512.63,0.5166308388848831
199,1516.12,0.5241673261047447
200,1526.6299999999999,0.5156018894230098
201,1533.68,0.49732358426542345
202,1544.3100000000002,0.5046354325597295
203,1555.01,0.4949996712567264
204,1565.79,0.4919578532710839
205,1576.65,0.494284938602802
206,1583.92,0.4982927475679577
207,1594.8999999999999,0.4958422778757171
208,1605.9599999999998,0.49011945150083713
209,1613.3700000000001,0.48837342127137406
210,1624.55,0.4768121998725352
211,1635.81,0.48052038179105705
212,1643.3700000000001,0.47921666528164536
213,1654.7600000000002,0.46562992509087825
214,1659.58691,0.46808482465832246
215,1666.23,0.4722430544411247
216,1673.92,0.455340229480961
217,1677.7800000000002,0.46955865180264733
218,1685.52,0.4744536095150443
219,1693.3000000000002,0.46409399336548984
220,1705.04,0.4559560548827432
221,1716.8600000000001,0.44566002867609356
222,1724.78,0.44306489400970916
223,1736.74,0.44771726928622957
224,1744.75,0.4430241534304543
225,1756.8500000000001,0.4483518701901447
226,1764.9599999999998,0.43526650967949104
227,1773.1,0.4354708587723737
228,1785.39,0.43460033968779466
229,1793.6399999999999,0.4412256606603108
230,1806.07,0.4373158330589018
231,1814.3999999999999,0.4243649963075151
232,1826.98,0.4238808467237883
233,1835.41,0.416818365317523
234,1843.8899999999999,0.40525081658381845
235,1856.67,0.4015444176903343
236,1865.24,0.402645367767239
237,1873.85,0.41056202398219227
238,1886.84,0.3975520223134632
239,1895.55,0.39127630387353785
240,1904.29,0.3953081550371489
241,1905.46072,0.3943731245255543
242,1913.0800000000002,0.3888462579378151
243,1926.35,0.38475865040743185
244,1935.24,0.386248023403279
245,1944.17,0.3887198645678366
246,1953.1399999999999,0.3801814039011043
247,1966.68,0.388206944009515
248,1975.76,0.3893826583067358
249,1984.8799999999999,0.38141233077266684
250,1994.04,0.3765349214073081
251,2003.25,0.3783819697528371
252,2017.13,0.3710447442952847
253,2026.4399999999998,0.37483576806258934
254,2035.8000000000002,0.36686777954078165
255,2045.19,0.36972828964550675
256,2054.63,0.3624546074611195
257,2064.1200000000003,0.3607530829876201
258,2073.64,0.36715992714065343
259,2078.42,0.3621665083015252
260,2083.21,0.36661538900457447
261,2092.83,0.35839672857938326
262,2107.34,0.3559155942790169
263,2117.06,0.35550168927560133
264,2126.84,0.354649551525251
265,2136.65,0.3447178024014334
266,2146.52,0.3465223905306811
267,2156.42,0.3487038572864616
268,2166.38,0.34295945129530725
269,2176.38,0.3400897834728632
270,2186.42,0.3372217138191294
271,2187.7616199999998,0.33755813175647703
272,2196.51,0.34032072627334864
273,2206.65,0.3360918414582016
274,2216.84,0.3284506757810468
275,2227.0699999999997,0.32467527941428603
276,2237.35,0.3310568221855175
277,2242.51,0.3259700532263302
278,2252.8599999999997,0.31884765479075117
279,2263.26,0.3197524054931643
280,2273.71,0.32132083533356987
281,2284.2000000000003,0.32404575448436934
282,2294.7400000000002,0.3160594427731612
283,2305.3399999999997,0.315798570027544
284,2315.98,0.3085433865923205
285,2326.67,0.28695119229508953
286,2337.41,0.2976326171358509
287,2342.79,0.29393106438383004
288,2353.6099999999997,0.30081855784537925
289,2364.47,0.29064272061732227
290,2375.39,0.2920986923548561
291,2386.3500000000004,0.2838993634027838
292,2397.37,0.2879278134163025
293,2402.89,0.2841130282506603
294,2413.98,0.28516249705736824
295,2425.12,0.29066680500206854
296,2436.3199999999997,0.2863120119123598
297,2447.57,0.2905190079606432
298,2453.21,0.2891902807261827
299,2464.53,0.28562993556765554
300,2475.91,0.2807174493747193
301,2487.33,0.2788104024921769
302,2493.07,0.27352792353370103
303,2504.58,0.28364620509954497
304,2510.35,0.2695668956238646
305,2511.88643,0.26982262767834037
306,2516.14,0.2706780992249973
307,2527.7500000000005,0.2667961709291351
308,2533.5800000000004,0.26922125317160917
309,2545.27,0.26689996732504345
310,2557.02,0.27580000081545
311,2562.92,0.27005974895105833
312,2574.74,0.2752803983345993
313,2586.6299999999997,0.27168235361127446
314,2592.59,0.2691109310838551
315,2604.5600000000004,0.2642797588098266
316,2616.58,0.2615570193166086
317,2622.61,0.2663948026823235
318,2634.72,0.2741258121945639
319,2646.8799999999997,0.28490175448761434
320,2652.9799999999996,0.29469792374646375
321,2665.23,0.2729991950449726
322,2677.53,0.2784436491242918
323,2683.7,0.2802340142762755
324,2696.0899999999997,0.2700413373610531
325,2702.3,0.276123358737685
326,2714.7799999999997,0.264756060827921
327,2727.31,0.26023217569896734
328,2733.59,0.2664040129687335
329,2746.21,0.24749664684523826
330,2752.54,0.25119131689581475
331,2765.25,0.2559773097777779
332,2778.01,0.2590666854405512
333,2784.42,0.2484510979404241
334,2797.27,0.22924283260865594
335,2803.7200000000003,0.23339457133317698
336,2816.6600000000003,0.2527898250068672
337,2823.1499999999996,0.26330724995603655
338,2836.18,0.2589903926351852
339,2842.7200000000003,0.25185657036516457
340,2855.84,0.24097572204977175
341,2862.42,0.26147383600439944
342,2875.64,0.26746828325062705
343,2882.27,0.26235893998606497
344,2884.0315,0.2627649259626563
345,2895.57,0.2657678012471193
346,2908.94,0.2834464638103533
347,2929.1,0.27304274243973237
348,2949.3999999999996,0.26797650078181545
349,2969.85,0.27138212310179566
350,2990.43,0.2704093408692868
351,3011.16,0.27130292261467504
352,3032.03,0.2719602840727673
353,3053.0499999999997,0.27180770950875677
354,3067.14,0.27502153916589717
355,3088.4,0.27462558696652206
356,3109.81,0.27900219874504417
357,3131.37,0.2732395745014634
358,3153.07,0.27194692997058667
359,3167.63,0.2753831200918049
360,3189.59,0.2615614664559499
361,3211.6899999999996,0.269143692532799
362,3226.52,0.25424965781423203
363,3248.88,0.27536127478610284
364,3271.3999999999996,0.28705464000106395
365,3286.5,0.28318068044271194
366,3309.28,0.2787933365526948
367,3311.31121,0.2786443798962769
368,3324.56,0.2779493854402627
369,3332.2200000000003,0.2812941484807892
370,3339.91,0.2705705906193857
371,3347.6,0.29120083275798214
372,3355.32,0.2839239539946486
373,3363.06,0.24997656129669496
374,3370.8100000000004,0.2654677616314313
375,3378.58,0.2795514480315477
376,3386.3700000000003,0.2781075204970439
377,3394.17,0.27735578599523025
378,3402.0,0.2986235305914865
379,3409.84,0.2744897682204327
380,3417.7000000000003,0.26682099191475883
381,3425.58,0.282009601674465
382,3433.48,0.2973579974995511
383,3441.39,0.2755657863573272
384,3449.33,0.26775905431317326
385,3457.2799999999997,0.27576881530170927
386,3465.2500000000005,0.2640086623556252
387,3473.2400000000002,0.28385159547492117
388,3481.24,0.2690634216269071
389,3489.27,0.278663426876963
390,3497.31,0.26722232515970884
391,3505.37,0.28700880950783464
392,3513.4500000000003,0.27247437992134044
393,3521.55,0.2903706364002262
394,3529.6699999999996,0.25684317894449193
395,3537.81,0.2837928075541376
396,3545.96,0.28753782919647325
397,3554.14,0.2898195299368789
398,3562.3300000000004,0.28101262370997443
399,3570.54,0.25978370354845004
400,3578.77,0.2646195694523056
401,3587.02,0.242511821421541
402,3595.29,0.2716722594561565
403,3603.58,0.2923635835561519
404,3611.89,0.25826459372152727
405,3620.21,0.2689566969195926
406,3628.56,0.29969197921572793
407,3634.1200000000003,0.23992590539135816
408,3636.86,0.25280859634841335
409,3639.6099999999997,0.2154351803381585
410,3642.35,0.2306599712952137
411,3645.09,0.24295436225226885
412,3647.8300000000004,0.259313853209324
413,3650.57,0.2800117441663792
414,3653.3199999999997,0.2728078281561244
415,3656.06,0.27576031911317955
416,3658.7999999999997,0.28977331007023477
417,3661.54,0.3077700010272899
418,3664.2799999999997,0.27840669198434514
419,3667.03,0.28256517597409025
420,3669.77,0.29482436693114544
421,3672.5099999999998,0.28951455788820063
422,3675.25,0.2989623488452558
423,3677.99,0.267272439802311
424,3680.7400000000002,0.2552169237920561
425,3683.48,0.24828321474911136
426,3686.2200000000003,0.29084650570616655
427,3688.96,0.29290669666322167
428,3691.7,0.28214588762027687
429,3694.4500000000003,0.266919771610022
430,3697.19,0.29270496256707723
431,3699.9300000000003,0.2952014535241324
432,3702.67,0.2671821444811876
433,3705.4100000000003,0.27938633543824276
434,3708.16,0.26289111942798793
435,3710.8999999999996,0.2641713103850431
436,3713.6400000000003,0.28671330134209827
437,3716.38,0.33917609229915346
438,3719.1200000000003,0.31034828325620867
439,3721.87,0.3322430672459538
440,3724.6099999999997,0.352859358203009
441,3727.35,0.32852194916006416
442,3730.0899999999997,0.33909794011711936
443,3732.83,0.29517753107417455
444,3735.58,0.26098991506391966
445,3738.32,0.2561912060209749
446,3741.06,0.26318009697803
447,3743.7999999999997,0.25022478793508524
448,3746.54,0.26099227889214044
449,3749.29,0.26086326288188555
450,3752.03,0.27781545383894074
451,3754.77,0.26677484479599595
452,3757.51,0.2987138357530511
453,3760.25,0.2614474267101063
454,3763.0000000000005,0.3016804106998514
455,3765.7400000000002,0.2969368016569066
456,3768.48,0.29994659261396184
457,3771.2200000000003,0.280255883571017
458,3773.96,0.2988892745280722
459,3776.7099999999996,0.32819375851781735
460,3779.45,0.31253514947487254
461,3782.19,0.3306837404319277
462,3784.9300000000003,0.3170785313889829
463,3787.67,0.30919082234603806
464,3790.42,0.30233060633578324
465,3793.16,0.2951148972928384
466,3795.8999999999996,0.2902522882498936
467,3798.64,0.29212297920694874
468,3801.3799999999997,0.30595987016400394
469,3801.8939600000003,0.3072085283194125
470,3804.13,0.31267383190697795
471,3806.87,0.32419341062447
472,3809.61,0.315248689341962
473,3812.35,0.318527968059454
474,3815.0899999999997,0.295872246776946
475,3817.84,0.30994846556275
476,3820.58,0.28641354428024196
477,3823.32,0.283523622997734
478,3826.06,0.272115601715226
479,3828.8,0.24915358043271796
480,3831.55,0.265254799218522
481,3834.2900000000004,0.26008427793601396
482,3837.03,0.24627475665350596
483,3839.77,0.25619463537099796
484,3842.51,0.30076811408848997
485,3845.2599999999998,0.28604943287429396
486,3847.9999999999995,0.303116911591786
487,3850.7400000000002,0.30708139030927795
488,3853.48,0.30556616902677
489,3856.2200000000003,0.299915447744262
490,3858.97,0.296832466530066
491,3861.71,0.306197145247558
492,3864.45,0.31248832396505
493,3867.1899999999996,0.314912702682542
494,3869.93,0.320199181400034
495,3872.68,0.292324600185838
496,3875.42,0.30107457890333
497,3878.16,0.27894985762082203
498,3880.9,0.280210836338314
499,3883.64,0.300177815055806
500,3886.3900000000003,0.27954553384160996
501,3889.13,0.28932451255910197
502,3891.87,0.304642491276594
503,3894.61,0.327030869994086
504,3897.35,0.293490848711578
505,3900.1000000000004,0.315902067497382
506,3902.84,0.343104646214874
507,3905.5800000000004,0.337520124932366
508,3908.32,0.332927003649858
509,3911.06,0.33578108236735
510,3913.81,0.345772201153154
511,3916.5499999999997,0.33439297987064603
512,3919.2900000000004,0.31769935858813797
513,3922.03,0.30340293730562995
514,3924.77,0.293112016023122
515,3927.52,0.264248334808926
516,3930.2599999999998,0.242625913526418
517,3933.0,0.24558779224390997
518,3935.74,0.241862670961402
519,3938.4799999999996,0.27055254967889397
520,3941.23,0.283141668464698
521,3943.97,0.30933944718219
522,3946.71,0.30301232589968197
523,3949.45,0.321586904617174
524,3952.19,0.310787083334666
525,3954.94,0.30934540212047
526,3957.6800000000003,0.301096980837962
527,3960.42,0.277875059555454
528,3963.16,0.273989138272946
529,3965.9,0.251337716990438
530,3968.65,0.253205635776242
531,3971.3900000000003,0.264134714493734
532,3974.13,0.29261079321122596
533,3976.8700000000003,0.31141657192871797
534,3979.61,0.33243235064621
535,3982.3599999999997,0.341652369432014
536,3985.1,0.347458848149506
537,3987.84,0.357980326866998
538,3990.5800000000004,0.36594600558449
539,3993.32,0.37045258430198197
540,3996.0699999999997,0.374406503087786
541,3998.81,0.366067881805278
542,4001.5499999999997,0.36771016052277
543,4004.29,0.37137943924026195
544,4007.0299999999997,0.372470817957754
545,4009.78,0.379861936743558
546,4012.52,0.38507361546105
547,4015.2599999999998,0.383939694178542
548,4018.0,0.393910372896034
549,4020.74,0.390529151613526
550,4023.4900000000002,0.39071547039933
551,4026.23,0.40017934911682196
552,4028.9700000000003,0.384481827834314
553,4031.71,0.38065990655180604
554,4034.45,0.385408785269298
555,4037.2000000000003,0.384471404055102
556,4039.94,0.382962982772594
557,4042.6800000000003,0.37832586149008596
558,4045.42,0.378337640207578
559,4048.1600000000003,0.37762241892507
560,4050.91,0.388054037710874
561,4053.6499999999996,0.38888111642836604
562,4056.3900000000003,0.384332095145858
563,4059.13,0.37096987386335
564,4061.8700000000003,0.366575052580842
565,4064.62,0.37207137136664603
566,4067.3599999999997,0.385611450084138
567,4070.1,0.37672192880163
568,4072.8399999999997,0.36397670751912203
569,4075.58,0.36577318623661403
570,4078.33,0.371974505022418
571,4081.07,0.37742848373991
572,4083.81,0.379599562457402
573,4086.5499999999997,0.38397384117489397
574,4089.29,0.384095819892386
575,4092.04,0.37679103867819
576,4094.78,0.362767817395682
577,4097.52,0.355795196113174
578,4100.26,0.353713874830666
579,4103.0,0.35502565354815796
580,4105.75,0.36248287233396204
581,4108.49,0.368774051051454
582,4111.2300000000005,0.36647242976894595
583,4113.97,0.369414608486438
584,4116.71,0.38524618720393
585,4119.46,0.385322305989734
586,4122.2,0.377336184707226
587,4124.9400000000005,0.385698463424718
588,4127.68,0.38916944214221
589,4130.42,0.389203320859702
590,4133.17,0.386106739645506
591,4135.91,0.391009818362998
