,lambda (Angstroms),Total Flux (erg/s/cm^2/Angstrom)
0,102.00000000000001,45.16808755548663
1,103.9,45.039360257626676
2,104.712855,44.98428835107042
3,106.07000000000001,44.50129773177573
4,108.05,43.79664097327509
5,110.05,43.08486652798141
6,113.91999999999999,41.70758294505467
7,117.92,40.28403407023032
8,120.22644299999999,39.463202192919844
9,120.95,39.247312088373846
10,124.91,38.06575165365567
11,126.94,37.460052690742835
12,128.12,37.10797159566658
13,131.1,36.21881755207169
14,132.01,35.94729833099363
15,133.85,35.398290611229015
16,136.96,34.470349702030404
17,138.038426,34.14857577285557
18,140.15,33.69823511356939
19,143.09,33.071235988683924
20,147.10000000000002,32.21607175679909
21,150.87,31.412044687553273
22,155.1,30.509914633661833
23,158.489319,29.787079178335524
24,159.07999999999998,29.691841346117027
25,162.02999999999997,29.21620121902933
26,166.19,28.54547098246667
27,170.06,27.921497800722804
28,172.82,27.47649679795432
29,176.85,26.826727760531117
30,180.14,26.296270872424838
31,181.8,26.02862699445176
32,181.970086,26.001203596613113
33,186.04,25.500589199108465
34,190.81,24.913866626080832
35,193.91,24.532560028281534
36,197.97,24.03316846535277
37,202.12,23.522709985464996
38,204.93,23.177076958789176
39,208.929613,22.685101158011246
40,210.19,22.568544751157056
41,216.07999999999998,22.02390549770154
42,220.09,21.65309722116749
43,223.15,21.3701280799198
44,226.78,21.034466521760294
45,229.94,20.742558865556152
46,234.21,20.348292177355297
47,239.88329199999998,19.824022933561793
48,240.22000000000003,19.80005070063056
49,245.80999999999997,19.401615079119765
50,252.11999999999998,18.952106678453728
51,256.81,18.617580520636974
52,259.78000000000003,18.406222929746615
53,264.0,18.105621216892313
54,268.91,17.755741360305905
55,273.90999999999997,17.399442922450092
56,275.42287,17.291636214598608
57,279.0,17.096013034764393
58,284.19,16.812191844392032
59,290.14000000000004,16.48669473982448
60,296.21000000000004,16.154781271647167
61,301.03000000000003,15.891152702488245
62,308.04,15.507818240201102
63,316.227766,15.060085047536639
64,318.13,14.982397113336182
65,327.79999999999995,14.587412345739626
66,337.76,14.180551378766335
67,348.02,13.761429167299875
68,356.95,13.396650378319807
69,363.078055,13.146339687735049
70,366.09999999999997,13.053901958153777
71,374.63000000000005,12.792938932141391
72,385.13,12.471622801198835
73,395.01,12.169444205965268
74,405.14,11.859556910542592
75,413.62,11.60010498516803
76,416.86938299999997,11.50068346760596
77,422.28000000000003,11.374254671957559
78,430.14,11.190594278282857
79,441.17,10.932904830380565
80,451.45,10.69269570502739
81,459.84,10.496636992137978
82,469.47,10.271626362727364
83,478.630092,10.057617906988856
84,480.4,10.025815285113858
85,490.46,9.84498459452963
86,499.58000000000004,9.68112762272166
87,506.53,9.556217009312078
88,512.4,9.450998169156072
89,519.52,9.323054133595466
90,530.4,9.127520496929817
91,540.26,8.950257264170325
92,549.5408739999999,8.783589822058717
93,550.31,8.773055074507846
94,560.54,8.63296769257261
95,569.65,8.508206331450419
96,580.24,8.362973772432417
97,589.67,8.233887290792214
98,600.63,8.08361354105026
99,610.39,7.949775737250857
100,620.3100000000001,7.814241375192443
101,630.38,7.6762813415162165
102,630.957344,7.668372094035975
103,640.63,7.563341567356469
104,649.54,7.466709955999629
105,658.58,7.368556032162831
106,664.67,7.302571644524991
107,675.4699999999999,7.18529911772882
108,684.8700000000001,7.083043322332151
109,694.39,6.980325596415527
110,705.6800000000001,6.857385496579529
111,715.49,6.751559195823008
112,724.43596,6.654532598830576
113,725.4499999999999,6.646374030588825
114,735.54,6.565199780654188
115,745.7700000000001,6.483130189060398
116,754.41,6.413762244095556
117,764.9,6.329210027134769
118,775.54,6.244154678039175
119,784.52,6.171987942902105
120,795.44,6.084413413488206
121,804.65,6.0105518974111005
122,815.84,5.920663620154549
123,825.2900000000001,5.845184328661753
124,831.763771,5.791941416453535
125,834.84,5.772906947414582
126,844.51,5.716743534619193
127,854.2900000000001,5.658106662298724
128,864.18,5.599317334453181
129,874.1899999999999,5.539734763671189
130,884.31,5.479630169364121
131,894.5500000000001,5.418620532120605
132,904.91,5.356317171940642
133,915.39,5.297862028824232
134,925.99,5.319258402771373
135,934.56,5.386111177226751
136,945.38,5.51340683412374
137,954.13,5.6331055991744465
138,954.992586,5.632680563817619
139,965.1700000000001,5.628991094165573
140,974.0999999999999,5.035341204167062
141,985.38,5.384808243116308
142,994.5,5.373635298011444
143,1006.02,5.5904409463000375
144,1015.3299999999999,5.514232146088823
145,1024.72,5.001600648990721
146,1034.2,5.148632467894876
147,1046.18,5.619121109083881
148,1055.86,5.536621585770824
149,1065.63,5.234915478460021
150,1075.49,5.348025887151473
151,1085.44,5.06517621184518
152,1095.48,5.285494652541141
153,1096.4782,5.275315677320441
154,1105.62,5.191867517637048
155,1115.8500000000001,5.096096428724095
156,1126.1699999999998,4.937289177738595
157,1133.98,5.159482668998599
158,1144.47,5.001877389653842
159,1155.06,5.0191521524506975
160,1165.75,4.998234957389167
161,1173.83,4.590764062431528
162,1184.69,4.871015739010739
163,1195.65,4.471550957731565
164,1203.94,4.218981351271313
165,1215.0800000000002,4.015964445847042
166,1226.32,4.332029682564386
167,1234.82,4.677701964601523
168,1246.25,4.73243988138793
169,1254.8899999999999,4.628998322423326
170,1258.92541,4.531817145725145
171,1263.59,4.425952153687586
172,1275.28,4.695097346661793
173,1284.12,4.730527879244515
174,1296.0,4.377344916244823
175,1304.99,4.3364410099007795
176,1314.03,4.592648957247815
177,1326.1899999999998,4.4865399749181645
178,1335.3799999999999,4.300667483338437
179,1344.64,4.499840986926218
180,1353.9599999999998,4.421142914943295
181,1366.49,4.2282740499276255
182,1375.96,4.256828539017938
183,1385.5,4.235431023275762
184,1395.1,4.01881893196288
185,1404.77,4.022977835817508
186,1414.51,4.038816734839646
187,1424.31,4.034630058291079
188,1434.1899999999998,3.997909947648237
189,1440.81,4.042127776347061
190,1445.43977,4.042339799562845
191,1447.46,4.044532796968421
192,1454.1399999999999,3.988189400105546
193,1464.22,3.86353911262384
194,1474.3700000000001,3.841746600923512
195,1484.5900000000001,3.8408908650045612
196,1494.88,3.8376309048669874
197,1505.24,3.744359720510791
198,1512.1899999999998,3.602539258804655
199,1515.67,3.664522311935971
200,1526.18,3.615272647111296
201,1536.76,3.450781458067999
202,1543.85,3.5219494479246176
203,1554.5500000000002,3.441464474506537
204,1565.3300000000002,3.4392508448386025
205,1576.18,3.492756490952045
206,1583.45,3.5311712042464904
207,1594.43,3.535120033953919
208,1605.48,3.4832156394427245
209,1616.61,3.453953988681675
210,1624.07,3.370575093382715
211,1635.3300000000002,3.419017026215651
212,1646.67,3.422473702798733
213,1654.27,3.300363359062527
214,1659.58691,3.3406017396066137
215,1665.73,3.391515904149541
216,1673.4199999999998,3.2273044576441507
217,1677.28,3.425651336901523
218,1685.0200000000002,3.465887632096356
219,1696.6999999999998,3.349918253268924
220,1704.53,3.2952350635241627
221,1716.3500000000001,3.237772041457359
222,1724.27,3.221986366773004
223,1736.22,3.2860485331267855
224,1744.24,3.24376654184288
225,1756.3300000000002,3.3147590649572916
226,1764.4299999999998,3.1742134203937464
227,1776.6599999999999,3.2022003002687884
228,1784.8700000000001,3.2015115074457374
229,1793.1,3.2954910513027773
230,1805.53,3.248824297978719
231,1813.87,3.1553426935762543
232,1826.44,3.1421482970128256
233,1834.8700000000001,3.0732922076707654
234,1843.34,2.9619287916888855
235,1856.12,2.9662349302664026
236,1864.69,3.0004591976849717
237,1873.29,3.050033970123677
238,1886.28,2.951743643842139
239,1894.98,2.915195099681294
240,1903.7299999999998,2.9397423972206744
241,1905.46072,2.933908193708337
242,1916.93,2.9004034965920313
243,1925.77,2.8629117768868797
244,1934.66,2.8353613845589614
245,1943.5900000000001,2.92537665413283
246,1957.07,2.8484547150349293
247,1966.1000000000001,2.945078639363264
248,1975.17,2.952892225593386
249,1984.29,2.882959139200741
250,1993.45,2.840878714709883
251,2007.27,2.8365544017771684
252,2016.53,2.789873632040777
253,2025.84,2.808543189681618
254,2035.19,2.7693414092242468
255,2044.59,2.811183956144108
256,2054.02,2.731309499490309
257,2063.5,2.7196163702137444
258,2073.0299999999997,2.8158815683144125
259,2077.81,2.7832986655779166
260,2087.4,2.8008518565312643
261,2097.03,2.723289709386399
262,2106.71,2.696142889618767
263,2116.44,2.699344397228369
264,2126.21,2.705301566739757
265,2136.02,2.589360398152931
266,2145.88,2.630326556943339
267,2155.79,2.653367043110981
268,2165.74,2.5910681911804083
269,2175.73,2.5738800011516227
270,2185.7799999999997,2.5590498039755176
271,2187.7616199999998,2.567372961688836
272,2195.86,2.6046185486051714
273,2206.0,2.5609838147593558
274,2216.1800000000003,2.4831407012928457
275,2226.41,2.4474072633004695
276,2236.69,2.5295203007822256
277,2247.01,2.4671043586432884
278,2257.38,2.4029581919784846
279,2262.5899999999997,2.4170471963831495
280,2273.03,2.443938915382131
281,2283.52,2.4745321098552466
282,2294.06,2.394546079802495
283,2304.65,2.405213325223876
284,2315.29,2.34817084611939
285,2325.98,2.123827942489038
286,2336.71,2.240835359237992
287,2347.5,2.1827721065559054
288,2352.91,2.288663112857102
289,2363.77,2.170786945838802
290,2374.6800000000003,2.2071491542946347
291,2385.64,2.1036748382246007
292,2396.66,2.1579435527235264
293,2407.7200000000003,2.1197913876017584
294,2413.27,2.140039665230528
295,2424.41,2.213665840867373
296,2435.6,2.172653891978351
297,2446.84,2.218623618563462
298,2452.48,2.2059859920456706
299,2463.7999999999997,2.187209359389395
300,2475.17,2.1357084022072517
301,2486.6,2.1374724755940684
302,2492.33,2.0666853449297165
303,2503.8300000000004,2.1948586039803195
304,2511.88643,2.0897362630907677
305,2515.3900000000003,2.044766088014841
306,2527.0,2.0127891820300867
307,2532.83,2.0281320848818423
308,2544.52,2.014551537598312
309,2556.26,2.0879391020030478
310,2562.16,2.0489972812183748
311,2573.98,2.103554204324335
312,2585.8599999999997,2.0828914214562144
313,2597.8,2.0562706326140114
314,2603.7900000000004,2.0175248528682164
315,2615.81,1.988231722727239
316,2627.88,2.050878804274527
317,2633.94,2.091897800892303
318,2646.1,2.197565023478469
319,2652.2000000000003,2.2313982494468583
320,2664.44,2.0915214307342485
321,2676.7400000000002,2.1418461060475575
322,2682.91,2.1410728083795183
323,2695.29,2.0691823423940523
324,2707.73,2.1031038704345044
325,2713.97,2.0315089491300373
326,2726.5,2.0208239182093672
327,2732.79,2.072235608593165
328,2745.4,1.89555733637372
329,2758.07,1.9250704581801936
330,2764.43,1.9657345249275633
331,2777.19,2.0097741877729147
332,2783.59,1.9156151838708966
333,2796.44,1.6968611877551258
334,2802.8900000000003,1.7472074955413732
335,2815.82,1.970525158126827
336,2822.31,2.052020595263687
337,2835.34,2.0110075812256722
338,2841.88,1.9722038300507976
339,2854.9999999999995,1.9084072570516608
340,2868.17,2.0241533957407887
341,2874.79,2.027822303267139
342,2884.0315,2.0166170749305152
343,2888.0499999999997,2.0124786616485917
344,2894.7099999999996,2.003339146909765
345,2908.0699999999997,2.1142925527790246
346,2928.23,2.0523499676236567
347,2948.5299999999997,2.0262939061824876
348,2968.9700000000003,2.046849368455517
349,2989.55,2.045338354442746
350,3010.27,2.053982864144173
351,3031.14,2.044840506396528
352,3052.15,2.0407986723630813
353,3073.2999999999997,2.047058362043834
354,3087.49,2.053074301361559
355,3108.8900000000003,2.046376211960523
356,3130.44,2.018716255110415
357,3152.14,2.022324430811234
358,3166.6899999999996,2.0230462882511846
359,3188.64,1.9468986848702161
360,3210.7400000000002,1.9856202140401744
361,3232.9999999999995,1.9128794845977892
362,3247.92,1.9949478689966935
363,3270.44,2.036832969309249
364,3293.1,2.0215595933360033
365,3308.3,2.014088025163305
366,3311.31121,2.015344791990834
367,3323.58,2.0220367469173053
368,3331.24,2.0206682290111244
369,3338.92,1.956639490431559
370,3346.6099999999997,2.0263266415153014
371,3354.33,1.972506461588968
372,3362.06,1.9364731713259418
373,3369.81,1.9887356603895316
374,3377.58,1.936175928779737
375,3385.36,1.9533120868332503
376,3393.1699999999996,2.0265269138766877
377,3400.99,2.1046556305834323
378,3408.83,1.9788681266167927
379,3416.69,1.9857254019767687
380,3424.57,2.061664456663361
381,3432.46,2.1023874010132606
382,3440.37,2.032553124689776
383,3448.3,1.9308656276929073
384,3456.25,1.9619269100226542
385,3464.2200000000003,1.8962109716790168
386,3472.21,2.006712812661995
387,3480.21,1.9089085433082813
388,3488.23,1.9727130532811832
389,3496.2700000000004,1.943573342580701
390,3504.33,1.9981014112068343
391,3512.4100000000003,1.9599092591595833
392,3520.51,2.009650886438948
393,3528.6299999999997,1.8944732930449288
394,3536.7599999999998,1.9865665893142173
395,3544.91,2.028842664910121
396,3553.08,2.042335519832641
397,3560.4,2.060768753373993
398,3563.06,2.250575403813883
399,3565.72,2.215396054253773
400,3568.3900000000003,1.901946594356971
401,3571.05,1.9098702447968612
402,3573.71,2.142802895236752
403,3576.37,2.1216775456766417
404,3579.03,1.7838431961165315
405,3581.69,1.645513446556422
406,3584.35,1.8209764969963123
407,3587.0099999999998,1.8207271474362023
408,3589.6699999999996,2.0101247978760926
409,3592.3300000000004,1.9107264483159825
410,3594.9900000000002,2.0469680987558725
411,3597.65,1.943471749195763
412,3600.31,1.9355093996356532
413,3602.97,1.9632960500755434
414,3605.63,1.9216327005154334
415,3608.29,1.7316423509553238
416,3610.95,1.916435001395214
417,3613.6099999999997,1.871565651835104
418,3616.27,2.063614302274994
419,3618.9300000000003,1.7346979527148843
420,3621.59,1.7493476031547743
421,3624.25,1.8220932535946646
422,3626.91,1.964457904034555
423,3629.5699999999997,1.938946554474445
424,3632.23,2.0153562049143354
425,3634.89,1.8991558553542254
426,3637.5499999999997,1.9668875057941155
427,3640.21,2.0352941562340057
428,3642.88,2.0095306963372037
429,3645.54,1.7967843467770939
430,3648.2,2.053726997216984
431,3650.86,2.072184647656874
432,3653.52,1.9680132980967646
433,3656.18,1.9798419485366547
434,3658.8399999999997,1.963900598976545
435,3661.4999999999995,2.043829249416435
436,3664.1600000000003,2.037385899856325
437,3666.82,1.8111875502962151
438,3669.48,2.0128792007361054
439,3672.14,2.079380851175996
440,3674.7999999999997,2.115749501615886
441,3677.46,2.091660152055776
442,3680.12,2.047417802495666
443,3682.7799999999997,2.0300534529355563
444,3685.4399999999996,1.9606671033754464
445,3688.1000000000004,2.1506427538153363
446,3690.76,1.9091854042552268
447,3693.42,1.976869054695117
448,3696.08,1.9572867051350071
449,3698.74,1.9291473555748972
450,3701.4,1.8251930060147874
451,3704.06,1.8453856564546776
452,3706.72,1.9516883068945678
453,3709.38,1.891896957334458
454,3712.04,2.024233607774348
455,3714.7000000000003,2.179062258214238
456,3717.36,2.887399908654128
457,3720.0299999999997,3.7461674487573267
458,3722.69,4.373312099197217
459,3725.35,4.130456749637107
460,3728.0099999999998,3.293861400076997
461,3730.6699999999996,2.5043710505168875
462,3733.3300000000004,2.094240700956777
463,3735.9900000000002,2.0351243513966675
464,3738.65,2.005587001836558
465,3741.31,2.029829652276448
466,3743.97,1.9560093027163379
467,3746.63,2.070000953156228
468,3749.29,2.1467476035961184
469,3751.95,2.1709432540360085
470,3754.6099999999997,2.096567904475899
471,3757.27,2.114471554915789
472,3759.9300000000003,2.2158552053556786
473,3762.59,1.980713855795569
474,3765.25,2.082121506235459
475,3767.91,2.1380661566753494
476,3770.5699999999997,2.07827380711524
477,3773.23,2.28599245755513
478,3775.89,2.42763410799502
479,3778.55,2.4073777584349103
480,3781.21,2.4315974088748002
481,3783.87,2.3383450593146904
482,3786.53,2.2647417097545803
483,3789.19,1.9768543601944706
484,3791.85,1.864462010634361
485,3794.5099999999998,1.9866746610742512
486,3797.18,2.0966542011774494
487,3799.8399999999997,2.0748068516173395
488,3801.8939600000003,2.2719612602405386
489,3802.4999999999995,2.330188172337469
490,3805.1600000000003,2.535783778795834
491,3807.82,2.3604493852541992
492,3810.48,2.4019759917125643
493,3813.14,2.3818625981709296
494,3815.7999999999997,2.357265204629295
495,3818.46,2.4244418110876595
496,3821.12,2.322246417546025
497,3823.7799999999997,2.0216540240043903
498,3826.44,2.003541630462755
499,3829.1,1.9090842369211205
500,3831.76,1.8348518433794856
501,3834.42,1.9194574498378505
502,3837.08,2.214921056296216
503,3839.74,2.251047662754581
504,3842.4,2.245278269212946
505,3845.06,2.5663668756713114
506,3847.7200000000003,2.4802264821296767
507,3850.38,2.4698040885880417
508,3853.04,2.4098426950464065
509,3855.7000000000003,2.554063301504772
510,3858.36,2.489569907963137
511,3861.02,2.5440665144215027
512,3863.68,2.4423281208798677
513,3866.3399999999997,2.646284727338233
514,3869.0,2.4702993337965977
515,3871.6600000000003,2.301689940254963
516,3874.3300000000004,2.275008338466931
517,3876.9900000000002,2.208273944925296
518,3879.65,2.1324025513836613
519,3882.31,2.0019781578420264
520,3884.97,1.9159337643003915
521,3887.63,1.9639693707587567
522,3890.29,2.291638977217122
523,3892.95,2.3378665836754875
524,3895.61,2.4875831901338525
525,3898.27,2.6234137965922173
526,3900.9300000000003,2.6327834030505826
527,3903.59,2.6149360095089476
528,3906.25,2.469758615967313
529,3908.91,2.5655242224256782
530,3911.5699999999997,2.657120828884043
531,3914.23,2.4732044353424083
532,3916.89,2.5143450418007736
533,3919.55,2.4685826482591384
534,3922.21,2.518402254717504
535,3924.87,2.225355861175869
536,3927.53,2.024709467634234
537,3930.19,2.1808620740925995
538,3932.85,2.1726576805509645
539,3935.5099999999998,2.1490972870093294
540,3938.1699999999996,2.257591893467695
541,3940.8300000000004,2.56043249992606
542,3943.4900000000002,2.678208106384425
543,3946.15,2.6691357128427904
544,3948.81,2.6236863193011555
545,3951.48,2.575428717513123
546,3954.14,2.5170343239714885
547,3956.7999999999997,2.229243930429854
548,3959.46,2.012157536888219
549,3962.12,1.971988143346584
550,3964.7799999999997,1.9238147498049494
551,3967.44,1.8550063562633143
552,3970.1,1.9410579627216797
553,3972.76,2.1333705691800446
554,3975.42,2.36251717563841
555,3978.08,2.401536782096775
556,3980.74,2.43156538855514
557,3983.4,2.5585249950135056
558,3986.06,2.6797236014718706
559,3988.7200000000003,2.619762207930236
560,3991.38,2.554738814388601
561,3994.04,2.6414654208469663
562,3996.7000000000003,2.6706260273053313
563,3999.36,2.6529956337636964
564,4002.02,2.6482142402220616
565,4004.68,2.549031846680427
566,4007.3399999999997,2.608204453138792
567,4010.0000000000005,2.787837059597157
568,4012.6600000000003,2.717148666055522
569,4015.32,2.6893452725138873
570,4017.98,2.672076878972253
571,4020.64,2.7166414854306176
572,4023.3,2.7078820918889828
573,4025.97,2.559100490100951
574,4028.63,2.575340096559316
575,4031.29,2.555780703017681
576,4033.95,2.673387309476046
577,4036.61,2.6746799159344117
578,4039.27,2.6693445223927768
579,4041.9300000000003,2.6366481288511414
580,4044.59,2.7575807353095074
581,4047.25,2.7519073417678723
582,4049.91,2.6547749482262373
583,4052.5699999999997,2.5724185546846026
584,4055.23,2.5748201611429677
585,4057.8900000000003,2.5861667676013327
586,4060.55,2.701748374059698
587,4063.21,2.6724739805180633
588,4065.87,2.5495465869764287
589,4068.53,2.5195501934347933
590,4071.19,2.656056799893159
591,4073.85,2.589851406351524
592,4076.5099999999998,2.585191012809889
593,4079.1699999999996,2.4672536192682544
594,4081.8300000000004,2.4312782257266194
595,4084.4900000000002,2.3685688321849847
596,4087.15,2.3489134386433497
597,4089.81,2.2650140451017147
598,4092.4700000000003,2.29622365156008
599,4095.13,2.228211258018445
600,4097.79,2.19168086447681
601,4100.45,2.1142414709351756
602,4103.12,2.1598568691471436
603,4105.78,2.3794824756055086
604,4108.44,2.338661082063874
