,lambda (Angstroms),Total Flux (erg/s/cm^2/Angstrom)
0,102.00000000000001,0.6629895088112037
1,103.89,0.6611100089681056
2,104.712855,0.6602917299655503
3,106.07000000000001,0.6532023079493112
4,108.03999999999999,0.6429114974938224
5,110.05,0.6324118550205144
6,113.91,0.6122481849104748
7,117.92,0.5913009464792137
8,120.22644299999999,0.5792546472821218
9,120.94000000000001,0.5761301973278989
10,124.89999999999999,0.5587876419179205
11,126.92999999999999,0.5498973032322345
12,128.10999999999999,0.5447295806503926
13,131.09,0.5316787271684693
14,132.0,0.5276941374339893
15,134.15,0.5182782554280313
16,136.96,0.5059729592190769
17,138.038426,0.5012500529734631
18,140.15,0.49464017960366113
19,143.07999999999998,0.48548003102132953
20,147.09,0.4729520233149232
21,150.86,0.4611524137967557
22,155.09,0.44791335919029723
23,158.489319,0.43727467409402354
24,159.07000000000002,0.43590085664328115
25,162.02,0.4289214043121035
26,166.18,0.4190798610360699
27,170.04999999999998,0.4099237544844233
28,172.81,0.40339421337301623
29,176.83999999999997,0.3938593831499838
30,180.13000000000002,0.38607521417711094
31,181.79000000000002,0.3821483338264821
32,181.970086,0.38172224894369927
33,186.03,0.37439461390324597
34,190.8,0.36578603868412435
35,193.9,0.36019160797798666
36,197.96,0.3528639322825289
37,202.10999999999999,0.3453742686146349
38,204.92,0.3403029263674584
39,208.929613,0.3330633130310528
40,210.17000000000002,0.3313795511175278
41,216.06,0.3233925626175384
42,220.07999999999998,0.31793913142712116
43,223.14000000000001,0.31378653528963935
44,226.76999999999998,0.3088629266363522
45,229.92,0.3046424322595327
46,234.2,0.2989377353443621
47,239.88329199999998,0.2912760143268089
48,240.2,0.2909476748036258
49,245.8,0.2850686925905973
50,252.1,0.27849066716344045
51,256.79,0.2735313666787791
52,259.76,0.27046220220597644
53,263.99,0.2660486154477425
54,268.89,0.26091864234884266
55,273.89,0.25568340620506724
56,275.42287,0.25407847524427646
57,278.98,0.2512194166798721
58,284.17,0.24704941622082013
59,290.12,0.24225622759396867
60,296.2,0.23737580705157255
61,301.01,0.23350609167642036
62,308.02,0.22787904159974326
63,316.227766,0.2212903014521522
64,318.11,0.22016179685311368
65,327.78000000000003,0.21436038467750745
66,337.74,0.20838267330139187
67,348.0,0.20222640164888725
68,356.93,0.19688215228837397
69,363.078055,0.19321589889058657
70,366.08000000000004,0.1918777525385096
71,374.61,0.18805434393096515
72,385.10999999999996,0.1833248435985833
73,394.97999999999996,0.17895831817414434
74,405.12,0.1744694269463013
75,413.6,0.1706895967393872
76,416.86938299999997,0.169223053039105
77,422.26,0.16737708222782574
78,430.11,0.1647011146465151
79,441.14,0.16101513521137417
80,451.42,0.1575474420757215
81,459.81,0.15466317292677928
82,470.52,0.15105156780208667
83,478.630092,0.14837116671387535
84,480.37000000000006,0.14793389596814957
85,490.43,0.1452481717997607
86,499.55,0.14304846850992908
87,506.5,0.1411610057620859
88,512.37,0.14011077504067018
89,519.49,0.13826272597755598
90,530.37,0.13540652760021296
91,540.23,0.13267762991449583
92,549.5408739999999,0.13028620362306761
93,550.27,0.13014453708360701
94,560.51,0.12856439087047217
95,569.61,0.12704749066544024
96,580.2,0.12499393690595802
97,589.63,0.12328740501437
98,600.59,0.1208708248487491
99,610.35,0.11893852627060497
100,620.27,0.11764156681413063
101,630.3499999999999,0.11560652847932602
102,630.957344,0.11550816353065665
103,640.59,0.11434973854542173
104,649.4999999999999,0.11297555324333869
105,658.54,0.1114023477247269
106,664.63,0.11089269342734354
107,675.4300000000001,0.10948512051572767
108,684.82,0.1076125391064617
109,694.35,0.10677876954093402
110,705.63,0.10437958552213525
111,715.4499999999999,0.10388030470435124
112,724.43596,0.1026218828385047
113,725.4,0.10252650040346951
114,735.49,0.10149710036147704
115,745.73,0.10030867264195249
116,754.36,0.09940885772793913
117,764.86,0.09780847530069227
118,775.4999999999999,0.09722309710774882
119,784.48,0.09591734127949388
120,795.39,0.09510812246699261
121,804.6,0.09428202366652182
122,815.79,0.09311549232262731
123,825.24,0.09224941163810514
124,831.763771,0.09071196661574754
125,834.79,0.090089255354082
126,844.4599999999999,0.09049146152358044
127,854.24,0.08965702830927792
128,864.13,0.08913258371117448
129,874.1400000000001,0.08841220278528815
130,884.26,0.0876688494756009
131,894.5,0.08691798183813079
132,904.86,0.08598372387287782
133,915.33,0.0851978325238239
134,925.93,0.09747512790300525
135,934.5,0.11214682091051317
136,945.32,0.1307483815220926
137,954.07,0.14461081553792626
138,954.992586,0.14520235821915328
139,965.12,0.15171520150885154
140,974.0500000000001,0.09596691668570753
141,985.3199999999999,0.13749978800073187
142,994.44,0.1370152324366699
143,1005.96,0.15777032803996005
144,1015.2700000000001,0.1555529817349801
145,1024.66,0.11631258880224526
146,1034.14,0.13591276341328612
147,1046.12,0.17510138090698546
148,1055.8,0.17129225894863898
149,1065.56,0.15160018036253758
150,1075.42,0.16274729349174252
151,1085.37,0.14557948416472316
152,1095.42,0.16402804655301015
153,1096.4782,0.16350323427500374
154,1105.55,0.15914645616739934
155,1115.78,0.15531025314200958
156,1126.1100000000001,0.1444466411329894
157,1133.91,0.16175539040981834
158,1144.4,0.15349885602698954
159,1154.99,0.15564127266053035
160,1165.68,0.15556111031044076
161,1173.76,0.12551464043310456
162,1184.62,0.1499916668108433
163,1195.58,0.12773371420495164
164,1203.87,0.11266411746199162
165,1215.01,0.09623471468556521
166,1226.25,0.12275701292550842
167,1234.75,0.14557359931692457
168,1246.18,0.15076758848797003
169,1254.8100000000002,0.14655407920066663
170,1258.92541,0.14312581166538957
171,1266.43,0.13702699511643374
172,1275.2,0.15325891278050469
173,1284.04,0.15596827291167767
174,1295.92,0.13736452304271105
175,1304.9099999999999,0.1360935727462456
176,1313.95,0.15154053564056727
177,1326.1100000000001,0.14623906564000885
178,1335.3000000000002,0.13723903810669208
179,1344.56,0.14809192304047736
180,1353.88,0.14437941580320726
181,1366.41,0.13503948741447394
182,1375.8799999999999,0.13666186974956537
183,1385.41,0.13596901991360139
184,1395.02,0.11963075718289692
185,1404.69,0.11967074228113705
186,1414.42,0.1279593352083218
187,1424.23,0.12706869524076603
188,1434.1000000000001,0.12735909310215487
189,1440.72,0.12984101356237718
190,1445.43977,0.1300393960526407
191,1447.3700000000001,0.13014998581593942
192,1454.05,0.12707748979594924
193,1464.1299999999999,0.1211306792747664
194,1474.28,0.12058553951385315
195,1484.5,0.12097159051320945
196,1494.79,0.12079745227283532
197,1505.15,0.11639470479273074
198,1512.1000000000001,0.10898642456235172
199,1515.58,0.11235968807289576
200,1526.09,0.1103022093647974
201,1536.67,0.1007387314169686
202,1543.7600000000002,0.10107362270712869
203,1554.46,0.09838940177690488
204,1565.24,0.1012016988584177
205,1576.08,0.104650729448733
206,1583.3600000000001,0.1064733285167676
207,1594.33,0.10690351337615497
208,1605.3899999999999,0.10456850349874605
209,1616.51,0.10353937713013961
210,1623.9799999999998,0.10078808397604877
211,1635.23,0.10351608187651436
212,1646.57,0.1034347650401837
213,1654.17,0.0995706861551649
214,1659.58691,0.10115579416750753
215,1665.6299999999999,0.1029880051265904
216,1673.3200000000002,0.09635456631555306
217,1677.18,0.10367414132067607
218,1684.92,0.10463507721177762
219,1696.6000000000001,0.10047514163142442
220,1704.43,0.097968503986376
221,1716.25,0.0944243695720117
222,1724.1699999999998,0.0933694383908133
223,1736.12,0.09628155220201016
224,1744.13,0.09460572748466177
225,1756.22,0.09684009246184755
226,1764.3300000000002,0.09237714714877694
227,1776.5600000000002,0.09236007329195163
228,1784.76,0.09302010444273107
229,1792.9999999999998,0.09517514735522162
230,1805.43,0.09441898230695189
231,1813.76,0.08975173168329248
232,1826.33,0.09027926780101167
233,1834.76,0.08799569658163003
234,1843.2299999999998,0.08359005712395952
235,1856.01,0.08327419499066209
236,1864.5700000000002,0.08408203199684158
237,1873.18,0.08690990370516
238,1886.16,0.08215164038041817
239,1894.87,0.07972281149301437
240,1903.6200000000001,0.08222304436732168
241,1905.46072,0.08188300915593957
242,1916.81,0.07986137955572256
243,1925.6599999999999,0.07814177081443771
244,1934.55,0.07966288787545213
245,1943.48,0.08111146073876582
246,1956.95,0.07710330716304753
247,1965.98,0.08070445953210942
248,1975.06,0.0818115766540454
249,1984.17,0.07876438062770585
250,1993.3300000000002,0.0771531393542404
251,2007.15,0.07798171904864076
252,2016.4099999999999,0.0764988772809235
253,2025.72,0.07788974026608034
254,2035.07,0.07487664905353646
255,2044.4599999999998,0.07587262364329185
256,2053.9,0.07162630298592133
257,2063.38,0.0725536381308501
258,2072.91,0.07607010802865297
259,2077.6800000000003,0.0735321774528418
260,2087.2799999999997,0.0747433600046684
261,2096.91,0.07205776940821945
262,2106.59,0.07221741356464459
263,2116.31,0.07237918352336903
264,2126.08,0.07242742823496756
265,2135.89,0.06971001874886537
266,2145.75,0.06974664401563727
267,2155.66,0.07077162403528327
268,2165.61,0.06917161985722853
269,2175.6,0.0686689114814731
270,2185.65,0.06753606680916656
271,2187.7616199999998,0.06780964774739097
272,2195.73,0.06888869237341172
273,2205.87,0.06759078879813879
274,2216.05,0.06560900526793381
275,2226.2799999999997,0.06438596929406377
276,2236.56,0.0658649608765287
277,2246.88,0.06433046250406156
278,2257.25,0.06264812168792938
279,2262.45,0.06316042754676378
280,2272.9,0.0635197668207675
281,2283.39,0.06378491613983919
282,2293.9300000000003,0.06134927301524582
283,2304.52,0.0614150274469874
284,2315.15,0.05981678192379694
285,2325.84,0.05353200146820841
286,2336.57,0.05745470105768784
287,2347.36,0.0563986757147692
288,2352.77,0.05795891931021037
289,2363.63,0.055629116546160665
290,2374.54,0.055916111338445894
291,2385.5,0.05376639368706608
292,2396.51,0.0549997935920212
293,2407.57,0.05374544105331128
294,2413.12,0.053998239806490295
295,2424.26,0.055088917357916274
296,2435.4500000000003,0.05373889246567721
297,2446.69,0.054745945129773085
298,2452.33,0.05410672148435501
299,2463.65,0.0535701642385868
300,2475.02,0.05240891454915354
301,2486.4500000000003,0.05258971992732221
302,2492.18,0.04929945388330703
303,2503.68,0.05286484184034464
304,2511.88643,0.05075751653158969
305,2515.2400000000002,0.0499068261306982
306,2526.85,0.04966122804829007
307,2532.68,0.049757470845840514
308,2544.3700000000003,0.049076362647446796
309,2556.1099999999997,0.050299198126562084
310,2567.91,0.04952871601868819
311,2573.83,0.050525247435754844
312,2585.71,0.05004623521189536
313,2597.64,0.049421376665544886
314,2603.63,0.048495759231124154
315,2615.65,0.0478928793042899
316,2627.7200000000003,0.048578133054964646
317,2633.78,0.04903883676905653
318,2645.94,0.0505229491392475
319,2652.04,0.05078203779534658
320,2664.28,0.048264430049551964
321,2676.58,0.048968714716768155
322,2682.75,0.048841364521379854
323,2695.13,0.04742264907261046
324,2707.57,0.04774670603685188
325,2713.81,0.04641682698997619
326,2726.3399999999997,0.04616988257373383
327,2732.62,0.04688657846886534
328,2745.24,0.04400172267213919
329,2757.9100000000003,0.044152620552922045
330,2764.26,0.04469069759656618
331,2777.02,0.04538956409686526
332,2783.4300000000003,0.044062193553520194
333,2796.27,0.04010784993783368
334,2802.7200000000003,0.04115369433649583
335,2815.66,0.04431264807582734
336,2822.15,0.045001757416496695
337,2835.17,0.04381257103984262
338,2848.26,0.043111465811701145
339,2854.83,0.04216341503638492
340,2868.0,0.04372823969225787
341,2874.61,0.04360515385894884
342,2884.0315,0.04338249691325248
343,2887.88,0.04330186363607556
344,2894.54,0.0430650368325245
345,2907.9,0.04439595540678244
346,2928.06,0.0431953748122495
347,2948.3500000000004,0.042484506307136745
348,2968.79,0.042426940982124184
349,2989.37,0.04204469329187182
350,3010.09,0.04185702323637963
351,3030.9599999999996,0.04147593636098765
352,3051.97,0.04115932712035586
353,3073.12,0.04090630551448425
354,3087.3,0.04063250880662329
355,3108.71,0.04038030137959203
356,3130.25,0.03969425604198095
357,3151.95,0.039380469429810085
358,3166.5,0.039172527899529616
359,3188.45,0.03785659992085909
360,3210.5499999999997,0.038131775122288755
361,3232.8,0.037017743503818624
362,3247.7299999999996,0.03784934269645868
363,3270.24,0.03812898525682889
364,3292.91,0.03769643654263932
365,3308.11,0.03731179545945973
366,3311.31121,0.037329413169682385
367,3323.38,0.03741852289599125
368,3331.04,0.037386481665804695
369,3338.72,0.03654468912692313
370,3346.4100000000003,0.03714683093369406
371,3354.13,0.036197795777422485
372,3361.8599999999997,0.03633489496680341
373,3369.61,0.03596460284748933
374,3377.3799999999997,0.035270499419480246
375,3385.16,0.035900730337123654
376,3392.9700000000003,0.03666324429172456
377,3400.7900000000004,0.03739449259197797
378,3408.63,0.03563524958353637
379,3416.49,0.035770475266399766
380,3424.36,0.03670819529491566
381,3432.25,0.037205354014736555
382,3440.17,0.03623828577151494
383,3448.1,0.03486777187394582
384,3456.05,0.0348343966676817
385,3464.01,0.034001275807070075
386,3472.0,0.03537162798341595
387,3479.9999999999995,0.03377714450541432
388,3488.02,0.03480966971871768
389,3496.07,0.03461317796897854
390,3504.12,0.034851586219239394
391,3512.2,0.03438426750645775
392,3520.3,0.03495015748498109
393,3528.4100000000003,0.03347062180915694
394,3536.55,0.03471769917029028
395,3544.7000000000003,0.03512671087707612
396,3552.8700000000003,0.03526050127516695
397,3561.06,0.03483543036456278
398,3569.27,0.03319707814526361
399,3577.5,0.03275328461726943
400,3585.7499999999995,0.03182320978058025
401,3594.01,0.032481279289543565
402,3602.2999999999997,0.03427932183546437
403,3610.6,0.032972808727037686
404,3618.92,0.033617654309915986
405,3623.13,0.03255780382961762
406,3625.87,0.035594344538402066
407,3628.6099999999997,0.035932515247186506
408,3631.35,0.03238061595597095
409,3634.0899999999997,0.03333885666475539
410,3636.84,0.03393200171919233
411,3639.58,0.03320108242797677
412,3642.32,0.03269110313676121
413,3645.06,0.03426227384554566
414,3647.7999999999997,0.033805044554330095
415,3650.54,0.03126237526311453
416,3653.2799999999997,0.03156917597189898
417,3656.02,0.032983556680683424
418,3658.7599999999998,0.03395177738946786
419,3661.4999999999995,0.0351138480982523
420,3664.25,0.032827583152689244
421,3666.99,0.03349360386147368
422,3669.73,0.03434777457025812
423,3672.47,0.03357266527904257
424,3675.21,0.03377113598782701
425,3677.95,0.033409406696611445
426,3680.6899999999996,0.033063357405395885
427,3683.43,0.03506074811418033
428,3686.1699999999996,0.03385799882296477
429,3688.92,0.03254674387740171
430,3691.66,0.03274663458618615
431,3694.4,0.03392153529497059
432,3697.14,0.03323480600375504
433,3699.8799999999997,0.03344040671253948
434,3702.62,0.032652457421323916
435,3705.3599999999997,0.030449048130108358
436,3708.1,0.0320458788388928
437,3710.84,0.03321080954767724
438,3713.5800000000004,0.03544768025646168
439,3716.33,0.03650408531089862
440,3719.0699999999997,0.042675186019683065
441,3721.81,0.0665318167284675
442,3724.5499999999997,0.10472848743725195
443,3727.29,0.13186227814603638
444,3730.0299999999997,0.11941426885482083
445,3732.7700000000004,0.08300002956360526
446,3735.51,0.052264790272389706
447,3738.25,0.038871590981174146
448,3740.9900000000002,0.03632179168995859
449,3743.74,0.03343967674439553
450,3746.48,0.03348847745317997
451,3749.22,0.030726298161964413
452,3751.9599999999996,0.034350118870748854
453,3754.7000000000003,0.03284516957953329
454,3757.44,0.032891120288317734
455,3760.1800000000003,0.03330341099710218
456,3762.92,0.034491141705886616
457,3765.6600000000003,0.03415934241467106
458,3768.4,0.033672173123455496
459,3771.1499999999996,0.033497008177892446
460,3773.89,0.03579230888667688
461,3776.63,0.03637991959546132
462,3779.3700000000003,0.03771020030424577
463,3782.11,0.03722018101303021
464,3784.8500000000004,0.03646645172181465
465,3787.59,0.03630999243059908
466,3790.33,0.03456984313938353
467,3793.07,0.035954293848167965
468,3795.81,0.03551416455695241
469,3798.5600000000004,0.033892149611389345
470,3801.3,0.037166740320173794
471,3801.8939600000003,0.037173920019513064
472,3804.0400000000004,0.03720270262644209
473,3806.78,0.03650819140232024
474,3809.52,0.0356469101781984
475,3812.26,0.03584615895407654
476,3815.0,0.0370332477299547
477,3817.7400000000002,0.036504086505832846
478,3820.48,0.035485995281711
479,3823.23,0.03594309164436243
480,3825.9700000000003,0.03373333042024058
481,3828.71,0.03312434919611873
482,3831.4500000000003,0.033202427971996885
483,3834.19,0.032198596747875036
484,3836.93,0.031917465523753186
485,3839.67,0.033988334299631336
486,3842.41,0.03431159307550949
487,3845.15,0.03754991185138764
488,3847.89,0.03596877062726579
489,3850.6400000000003,0.037144276989917215
490,3853.38,0.037973565765795365
491,3856.12,0.03742730454167352
492,3858.86,0.03778906331755167
493,3861.6,0.03944369209342982
494,3864.34,0.039638670869307974
495,3867.08,0.04082289964518612
496,3869.8199999999997,0.040863928421064274
497,3872.56,0.03990998719694243
498,3875.2999999999997,0.037339585972820576
499,3878.05,0.037443152335472005
500,3880.79,0.036268271111350156
501,3883.53,0.035890209887228304
502,3886.27,0.04001941866310646
503,3889.0099999999998,0.038646407438984606
504,3891.75,0.03854773621486276
505,3894.49,0.03739280499074091
506,3897.23,0.03407261376661906
507,3899.97,0.03802223254249722
508,3902.7099999999996,0.037322021318375365
509,3905.46,0.039143247681026797
510,3908.2,0.03705892645690494
511,3910.94,0.038342945232783095
512,3913.68,0.038814454008661244
513,3916.42,0.0375982327845394
514,3919.16,0.037272921560417546
515,3921.8999999999996,0.0372440903362957
516,3924.64,0.03458103911217385
517,3927.3799999999997,0.034346947888052
518,3930.12,0.03150569666393015
519,3932.87,0.03155940302658158
520,3935.61,0.032927521802459725
521,3938.35,0.03399629057833788
522,3941.0899999999997,0.03508643935421603
523,3943.83,0.036505878130094184
524,3946.5699999999997,0.03644568690597234
525,3949.31,0.03677037568185049
526,3952.0499999999997,0.035193514457728635
527,3954.7900000000004,0.03605132323360679
528,3957.54,0.035556209596258215
529,3960.2799999999997,0.03383537837213636
530,3963.02,0.032671897148014516
531,3965.7599999999998,0.03243068592389267
532,3968.5,0.03666110469977082
533,3971.24,0.036157603475648975
534,3973.9799999999996,0.03466912225152712
535,3976.7200000000003,0.03432384102740527
536,3979.46,0.035710489803283424
537,3982.2000000000003,0.03700590857916157
538,3984.95,0.038115854941813
539,3987.69,0.037683623717691156
540,3990.43,0.03960909249356931
541,3993.1699999999996,0.03884901126944746
542,3995.91,0.03925353004532561
543,3998.65,0.038372288821203755
544,4001.3900000000003,0.039803127597081905
545,4004.13,0.04077212637296006
546,4006.8700000000003,0.03981105514883821
547,4009.61,0.03941303392471636
548,4012.3599999999997,0.04089928028736779
549,4015.1,0.040204779063245946
550,4017.8399999999997,0.03979393783912409
551,4020.5800000000004,0.04030107661500224
552,4023.32,0.039821815390880394
553,4026.0600000000004,0.03935680416675855
554,4028.8,0.0377072529426367
555,4031.54,0.03852657171851485
556,4034.28,0.039616730494393
557,4037.02,0.040781009270271146
558,4039.7699999999995,0.03965440563292258
559,4042.51,0.03901406440880073
560,4045.2500000000005,0.03901945318467888
561,4047.9900000000002,0.03869414196055703
562,4050.73,0.03928539073643518
563,4053.4700000000003,0.04092861951231334
564,4056.21,0.03967248828819148
565,4058.9500000000003,0.038660097064069636
566,4061.69,0.03719584583994778
567,4064.43,0.03802514461582594
568,4067.1800000000003,0.03922203097847737
569,4069.92,0.039213169754355515
570,4072.6600000000003,0.038226448530233666
571,4075.4,0.03869509730611182
572,4078.14,0.03804050608198997
573,4080.88,0.038252584857868116
574,4083.62,0.03824086363374627
575,4086.36,0.039091542409624425
576,4089.1,0.037751311185502574
