,lambda (Angstroms),Total Flux (erg/s/cm^2/Angstrom)
0,102.05000000000001,17.983482960668
1,103.95,17.932226875652194
2,104.712855,17.911647422767725
3,105.88,17.7462563895523
4,108.10000000000001,17.431669861379653
5,110.11,17.146841520658167
6,113.98,16.598440684201417
7,117.97999999999999,16.03161811577563
8,120.22644299999999,15.713284507872133
9,121.01,15.620193794247418
10,124.97,15.149724817664183
11,127.0,14.90855006623995
12,127.88000000000001,14.804001409360172
13,130.86,14.449961632527524
14,132.07,14.306207246324206
15,133.91,14.087605513695436
16,137.03,13.716933045553912
17,138.038426,13.597126710350837
18,139.9,13.439041722828163
19,143.16,13.162202756915923
20,146.83,12.850547171451447
21,150.95000000000002,12.50067686050931
22,155.17,12.142314650186096
23,158.489319,11.860438341863588
24,159.14999999999998,11.818021976543099
25,162.10999999999999,11.62798716623691
26,165.89,11.385307755296097
27,170.14999999999998,11.111811857029307
28,172.91,10.934617541474442
29,176.94000000000003,10.67588816861647
30,179.81,10.491631900453779
31,181.89000000000001,10.358094281643217
32,181.970086,10.352952699104206
33,186.13000000000002,10.149204416385261
34,190.91,9.915085426798042
35,194.01000000000002,9.763251061380725
36,198.07000000000002,9.56439707224346
37,202.22,9.361135284699953
38,205.03,9.22350533303387
39,208.929613,9.032506966534587
40,209.81,9.000088626717568
41,216.17999999999998,8.765529541478966
42,220.20000000000002,8.6175032448708
43,222.75,8.523606183363086
44,226.89000000000001,8.371161728768563
45,230.05,8.254823508797669
46,233.79,8.117155081277687
47,239.78,7.8966217218909
48,239.88329199999998,7.892818265423993
49,245.93,7.721240411387018
50,252.24,7.542206490605985
51,256.93,7.409102813659701
52,259.91,7.32457283056121
53,264.13,7.204842209016368
54,269.04,7.065526110371538
55,274.04,6.923655749013666
56,275.42287,6.884418033095186
57,279.14,6.8034762821200045
58,283.67,6.704836550972765
59,290.28000000000003,6.560888783742025
60,295.68,6.443309759979093
61,301.18,6.323540074589068
62,308.19,6.170899704649964
63,316.227766,5.99588079395491
64,318.29,5.962343310943718
65,327.96,5.805077137660298
66,337.92,5.643091948268171
67,348.19000000000005,5.476062829208114
68,357.12,5.330828904415876
69,363.078055,5.233929717943812
70,366.29,5.194811019676167
71,374.82,5.090921131912444
72,385.32,4.963021498590158
73,395.2,4.842700106042141
74,405.34000000000003,4.719200167382332
75,413.83000000000004,4.6157927728588835
76,416.86938299999997,4.578772459917562
77,421.52000000000004,4.535515682668118
78,430.34999999999997,4.453384072949794
79,441.39,4.350702009625751
80,450.63,4.264755500020845
81,460.07,4.176948606624925
82,469.7,4.0873757357425395
83,478.630092,4.00431424006886
84,479.53000000000003,3.997876929565969
85,489.58000000000004,3.92597780559088
86,499.83,3.85265769442773
87,505.61,3.8113065999827525
88,511.46999999999997,3.769415303002552
89,519.7800000000001,3.709968129093597
90,529.4399999999999,3.6408580075402286
91,540.53,3.5615110157072203
92,549.5408739999999,3.4970516359513235
93,550.58,3.4913812977284597
94,559.53,3.442559423739589
95,569.9300000000001,3.385816591573191
96,580.52,3.3280175075407743
97,589.96,3.2765161797974285
98,599.54,3.224222760052805
99,610.6899999999999,3.163330469615273
100,620.61,3.109277626010402
101,630.7,3.054214324425406
102,630.957344,3.0528103884261535
103,639.47,3.01599894624702
104,649.86,2.971060530425184
105,657.38,2.938524686375982
106,665.0,2.9055863941434135
107,674.25,2.8655869791319613
108,685.1999999999999,2.8181934423032704
109,694.7399999999999,2.7769841579900536
110,704.4,2.735158715996797
111,715.8499999999999,2.6857104146512705
112,724.43596,2.6485840262112577
113,725.8000000000001,2.6442066983603705
114,734.21,2.6172250253326563
115,744.42,2.584463276250734
116,754.7800000000001,2.551223036547627
117,765.28,2.5174696120647497
118,774.14,2.489121266573483
119,784.9100000000001,2.454548552372474
120,795.83,2.419538760550282
121,805.0400000000001,2.3900092056095854
122,814.37,2.360090021571943
123,825.69,2.3238004960932597
124,831.763771,2.304210938142995
125,835.26,2.2957701169655302
126,844.93,2.2727630659984412
127,854.71,2.249322996511561
128,864.61,2.225638983730363
129,874.62,2.2016800554293736
130,884.75,2.177440201834067
131,894.99,2.1529274907189695
132,905.36,2.128062748535028
133,915.84,2.103280303831295
134,924.31,2.0886072208073814
135,935.02,2.0704752272895397
136,945.84,2.0563971992519074
137,954.6,2.0452482407667265
138,954.992586,2.044522898132303
139,965.65,2.02538487407492
140,974.58,1.9713781775092427
141,985.8699999999999,1.9746291846171387
142,994.99,1.9542366806777234
143,1004.1999999999999,1.9474598216665384
144,1015.83,1.9178714229477452
145,1025.23,1.8672225965628217
146,1034.71,1.861135812336325
147,1044.29,1.8695924958078607
148,1053.95,1.8464075614378226
149,1066.15,1.8055441305978157
150,1076.02,1.7922943743936466
151,1085.97,1.7571052603479034
152,1096.02,1.7490984840001933
153,1096.4782,1.7479321326729338
154,1106.16,1.7274086091484007
155,1113.83,1.7113575118442583
156,1124.14,1.6855232803963167
157,1134.54,1.6798869471025644
158,1145.04,1.6537980517579098
159,1155.6299999999999,1.637373174567445
160,1166.32,1.6193171353260778
161,1174.41,1.5822955794081488
162,1185.28,1.5808827264751597
163,1196.24,1.5400518416963587
164,1204.54,1.5114097014715369
165,1215.68,1.474572313001113
166,1224.1100000000001,1.4845181201101196
167,1235.43,1.4865991879480733
168,1244.0,1.4777403921858179
169,1255.51,1.4534407161270586
170,1258.92541,1.4432657824463304
171,1264.21,1.4304401147119516
172,1275.91,1.4325959897856588
173,1284.75,1.4246597982857931
174,1293.66,1.3965744245342318
175,1305.63,1.3794161894942554
176,1314.68,1.3836288512393025
177,1323.79,1.3680422796257532
178,1336.04,1.3431255155789938
179,1345.3000000000002,1.3432393705689532
180,1354.63,1.3281883133072176
181,1364.02,1.3073949926868853
182,1373.47,1.2979964787079563
183,1386.1799999999998,1.281861415578625
184,1395.7900000000002,1.2565657193101054
185,1405.46,1.2456034396829903
186,1415.21,1.2374243389110797
187,1425.02,1.2252181147805727
188,1434.89,1.2123148572914693
189,1441.52,1.20730280116657
190,1445.43977,1.2027094414378778
191,1448.17,1.2006403316861516
192,1454.8500000000001,1.1922697602309336
193,1464.94,1.176913400263397
194,1475.09,1.167406246480394
195,1485.32,1.1590643609434366
196,1495.61,1.1504772015910132
197,1505.98,1.1368261104846347
198,1512.93,1.1226138368598195
199,1516.42,1.1238470265935459
200,1523.42,1.1152123681225095
201,1533.98,1.095895756600489
202,1544.61,1.0901053422937579
203,1555.32,1.076503196233072
204,1566.1,1.0688219973876758
205,1573.33,1.0668822326240195
206,1584.23,1.0597489561476912
207,1595.22,1.051231478948164
208,1606.27,1.0386589379331705
209,1613.69,1.031754282753872
210,1624.87,1.0175647551387024
211,1636.14,1.0114704868003335
212,1643.6899999999998,1.0054593350208587
213,1655.08,0.989419839051558
214,1659.58691,0.9876107969207194
215,1666.55,0.9868121878584973
216,1670.3999999999999,0.9759628344695369
217,1678.11,0.980731475734761
218,1685.8500000000001,0.9783208711294216
219,1693.63,0.9682506586966648
220,1705.37,0.9577492713495486
221,1713.24,0.9493416513051016
222,1725.12,0.9409947265620232
223,1733.08,0.9407885189058862
224,1745.1,0.9311215767668453
225,1753.15,0.9304406214990182
226,1765.3,0.9160027939208697
227,1773.45,0.9125234790844986
228,1785.7500000000002,0.905896972153533
229,1793.99,0.905412069705472
230,1806.42,0.8964373873353988
231,1814.76,0.8854399453187932
232,1823.14,0.8812482954747696
233,1835.78,0.8701488720107534
234,1844.25,0.8583316545550399
235,1857.03,0.8508853336950614
236,1865.6000000000001,0.8478094166708032
237,1874.21,0.8468174018191279
238,1882.8700000000001,0.8354628771831799
239,1895.92,0.8246327634881314
240,1904.67,0.8225967412404934
241,1905.46072,0.8218755407244357
242,1913.4599999999998,0.8160119420262988
243,1926.72,0.8074259787853233
244,1935.6200000000001,0.8039889754486202
245,1944.55,0.8050528081905576
246,1953.53,0.7959510343968956
247,1967.07,0.7962290945565632
248,1976.15,0.793433857691702
249,1985.27,0.7854555755983614
250,1994.43,0.7791602982765412
251,2003.6399999999999,0.7762326644191218
252,2012.8899999999999,0.7700940253332226
253,2026.84,0.7650398619009746
254,2036.2,0.7584467584367566
255,2045.59,0.7568458110511789
256,2055.04,0.747052205822882
257,2064.52,0.7435572466732252
258,2074.05,0.7457731509879691
259,2078.83,0.7449135661846613
260,2083.62,0.7469483500742335
261,2093.2400000000002,0.7374094126248982
262,2102.9,0.7326654099470836
263,2112.61,0.7300544107336694
264,2127.25,0.722428787110149
265,2137.07,0.712122293518416
266,2146.94,0.7121069833910837
267,2156.85,0.7096459080352717
268,2166.8,0.70043195745098
269,2176.8,0.695520890331089
270,2186.85,0.6929403066755986
271,2187.7616199999998,0.6927911457692818
272,2196.95,0.6927473642507889
273,2207.0899999999997,0.6869399680217494
274,2217.27,0.6768082908411157
275,2227.51,0.6736102472330914
276,2232.64,0.6806646826911807
277,2242.95,0.6735048499178673
278,2253.3,0.6632256961929599
279,2263.7,0.6601710987785603
280,2274.15,0.6599651576746682
281,2284.65,0.662712852881284
282,2295.19,0.6519384271363059
283,2305.79,0.652612804963937
284,2316.43,0.6440376018399743
285,2327.12,0.6252580950265193
286,2332.4900000000002,0.6296127047750455
287,2343.25,0.6200525987963013
288,2354.07,0.6284863863901662
289,2364.94,0.6135025002945389
290,2375.85,0.6146156132473177
291,2386.82,0.6014319797727058
292,2392.32,0.6048914139285521
293,2403.36,0.599350651288651
294,2414.46,0.598549592221359
295,2425.6,0.6062258122024732
296,2436.8,0.6005128857561967
297,2442.4100000000003,0.6051350797951598
298,2453.69,0.6020063914456957
299,2465.0099999999998,0.5946997221446376
300,2476.39,0.5863435864161889
301,2487.82,0.5767537769982475
302,2493.56,0.5725376254445308
303,2505.0699999999997,0.5842407441234021
304,2510.8399999999997,0.5630351943559899
305,2511.88643,0.5624486413801433
306,2516.63,0.5601915272041875
307,2522.43,0.5579419286531
308,2534.0699999999997,0.5614402886643654
309,2545.77,0.5590615243457918
310,2557.52,0.5712467114190193
311,2563.42,0.5616937356515335
312,2575.25,0.5670476469516424
313,2587.14,0.5607594339219127
314,2593.1,0.5558720738245883
315,2605.0699999999997,0.54812227502174
316,2617.09,0.5423986276106926
317,2623.13,0.5497882517402495
318,2635.24,0.5643069228344441
319,2647.3999999999996,0.5800655453204395
320,2653.4999999999995,0.5983949551201576
321,2665.75,0.5649332961113949
322,2678.05,0.5710205584944329
323,2684.23,0.5772747625210326
324,2696.6200000000003,0.5554490434093124
325,2702.84,0.5656837445493529
326,2715.3100000000004,0.5448539196645144
327,2727.84,0.5347568804498369
328,2734.13,0.5440928115383987
329,2746.75,0.5145791908289631
330,2753.08,0.5230201690309656
331,2765.7900000000004,0.5318069768267717
332,2772.17,0.5358756664205753
333,2784.96,0.510945538443263
334,2797.8199999999997,0.48207799041447197
335,2804.27,0.48600947995679683
336,2817.21,0.5192460161548873
337,2823.71,0.5395671970890132
338,2836.74,0.5317585317923456
339,2843.28,0.514937509839912
340,2856.4,0.49117698304848617
341,2862.9900000000002,0.5283355624878537
342,2876.2,0.5425169342016695
343,2882.83,0.5332250307544778
344,2884.0315,0.5340652786559541
345,2896.14,0.5434137570137452
346,2909.51,0.5728272737288675
347,2929.6699999999996,0.5542826900322981
348,2949.98,0.54367847952251
349,2970.43,0.5463144906537182
350,2991.02,0.5445572234259222
351,3011.7500000000005,0.5439497778391222
352,3032.63,0.5453477054391039
353,3046.63,0.5485286695387085
354,3067.75,0.5531930342375404
355,3089.0099999999998,0.5485670205773685
356,3110.42,0.5599033801039779
357,3131.9799999999996,0.547035012817369
358,3146.4399999999996,0.5440290480231034
359,3168.2500000000005,0.55290086938113
360,3190.21,0.5293447639259383
361,3212.32,0.540894631657528
362,3227.1499999999996,0.5161314740573235
363,3249.52,0.5576235819793344
364,3272.05,0.5802562146339122
365,3287.1499999999996,0.5741293487699144
366,3309.93,0.561732070069128
367,3311.31121,0.5607089769040079
368,3325.21,0.5511226618879943
369,3332.8799999999997,0.562603162852651
370,3340.5600000000004,0.5378702253570267
371,3348.26,0.5791130109408411
372,3355.98,0.568157319604094
373,3363.7200000000003,0.49956895134678525
374,3371.47,0.5194208446291958
375,3379.2400000000002,0.5669250609910448
376,3387.0299999999997,0.5546077004323323
377,3394.84,0.5519701629530583
378,3402.67,0.5907443485532228
379,3410.5099999999998,0.5445537956931066
380,3418.37,0.5330746659124287
381,3426.25,0.5546555592111893
382,3434.15,0.5803985755893883
383,3442.0699999999997,0.529039615047026
384,3449.9999999999995,0.543320716044383
385,3457.96,0.5534546016608975
386,3465.93,0.5301218488171313
387,3473.9199999999996,0.5679247190528036
388,3481.93,0.5365537123679144
389,3489.95,0.5580973672227444
390,3498.0,0.5345221066967321
391,3506.06,0.5756565077104391
392,3514.14,0.5395638318035845
393,3522.24,0.5685587789761685
394,3530.36,0.5266671492281908
395,3538.5,0.5702439425596517
396,3546.66,0.5769070589705511
397,3554.84,0.5752170984608889
398,3563.0299999999997,0.5571858994909461
399,3571.24,0.5162556236004416
400,3579.48,0.5323796323290948
401,3587.73,0.4851807025974674
402,3595.9999999999995,0.5434203959452784
403,3604.29,0.5708484123725277
404,3612.6000000000004,0.5110061518792157
405,3620.92,0.539087252925623
406,3621.93,0.5562123684372662
407,3624.6699999999996,0.5352614303203378
408,3627.42,0.5251740537431285
409,3630.16,0.5495905156262002
410,3632.9,0.5455307775092717
411,3635.64,0.5626539393923433
412,3638.3900000000003,0.5614242628151342
413,3641.13,0.5554408246982057
414,3643.8700000000003,0.5670673865812774
415,3646.61,0.5795818484643489
416,3649.3599999999997,0.5957929718871399
417,3652.1,0.5986040337702114
418,3654.8399999999997,0.599279895653283
419,3657.5800000000004,0.5800836575363546
420,3660.33,0.5789807809591455
421,3663.07,0.572236342842217
422,3665.81,0.5741383047252886
423,3668.5499999999997,0.5812196666083602
424,3671.3,0.5560166900311512
425,3674.04,0.5593139519142227
426,3676.78,0.5569243137972943
427,3679.52,0.5617013756803659
428,3682.2700000000004,0.5602603991031567
429,3685.01,0.5735781609862283
430,3687.75,0.5805115228692999
431,3690.4900000000002,0.5781431847523715
432,3693.24,0.5714169081751623
433,3695.98,0.577610370058234
434,3698.72,0.5751151319413057
435,3701.4599999999996,0.5574621938243773
436,3704.21,0.570946317247168
437,3706.95,0.5833761791302396
438,3709.69,0.5704375410133111
439,3712.43,0.5808380028963829
440,3715.1800000000003,0.6169846263191736
441,3717.92,0.6703847882022452
442,3720.66,0.6673188500853169
443,3723.4,0.6041293119683884
444,3726.1499999999996,0.5694976353911794
445,3728.8900000000003,0.5363697972742508
446,3731.63,0.5477215591573225
447,3734.38,0.5459633825801133
448,3737.12,0.534610244463185
449,3739.8599999999997,0.5136170063462566
450,3742.6,0.5307400682293282
451,3745.35,0.547247391652119
452,3748.09,0.5626368535351906
453,3750.83,0.5637566154182622
454,3753.57,0.5569698773013337
455,3756.32,0.5653802007241246
456,3759.0600000000004,0.5610669626071961
457,3761.8,0.5684865244902677
458,3764.54,0.5966661863733393
459,3767.29,0.6092411097961302
460,3770.0299999999997,0.6275268716792018
461,3772.7699999999995,0.6373566335622735
462,3775.51,0.634586595445345
463,3778.2599999999998,0.6208415188681359
464,3781.0,0.5892148807512074
465,3783.74,0.5764876426342791
466,3786.48,0.5619634045173507
467,3789.23,0.5630169279401416
468,3791.9700000000003,0.568724189823213
469,3794.71,0.5907095517062847
470,3797.45,0.6092280135893563
471,3800.2000000000003,0.6131353370121471
472,3801.8939600000003,0.6082468169097552
473,3802.94,0.6052656716451115
474,3805.6800000000003,0.5840116516906877
475,3808.42,0.5714039317362638
476,3811.1699999999996,0.5621974325119332
477,3813.91,0.5422751125575094
478,3816.6499999999996,0.5335149926030855
479,3819.39,0.5165099726486617
480,3822.14,0.4955495734243311
481,3824.88,0.4899181534699072
482,3827.62,0.49667503351548337
483,3830.3599999999997,0.5094358135610595
484,3833.11,0.5419395143367289
485,3835.85,0.5666024943823051
486,3838.59,0.5670807744278812
487,3841.33,0.5860146544734574
488,3844.0800000000004,0.5811418552491268
489,3846.82,0.577201735294703
490,3849.5600000000004,0.5846141153402791
491,3852.3,0.5889610953858553
492,3855.0499999999997,0.6043196961615247
493,3857.79,0.6005910762071007
494,3860.5299999999997,0.5994415562526769
495,3863.27,0.5993490362982531
496,3866.02,0.5815593370739225
497,3868.7599999999998,0.5803041171194987
498,3871.5,0.5713536971650748
499,3874.24,0.5579215772106509
500,3876.9900000000002,0.5524991779863204
501,3879.73,0.5664861580318965
502,3882.4700000000003,0.5765622380774726
503,3885.21,0.5899785181230488
504,3887.9599999999996,0.6025677188987182
505,3890.7000000000003,0.6249474989442944
506,3893.44,0.6237980789898705
507,3896.1800000000003,0.6409985590354466
508,3898.93,0.648386959811116
509,3901.67,0.6547212398566922
510,3904.41,0.6599350199022684
511,3907.1499999999996,0.6460167999478446
512,3909.9,0.638480000723514
513,3912.64,0.6008843807690901
514,3915.38,0.5728864608146662
515,3918.12,0.5383982408602423
516,3920.8700000000003,0.4848180416359118
517,3923.61,0.4652550216814879
518,3926.35,0.46324280172706406
519,3929.1,0.5070949025027336
520,3931.8399999999997,0.5435117825483098
521,3934.58,0.5772228625938858
522,3937.32,0.6122236426394619
523,3940.07,0.6302034434151313
524,3942.81,0.6381655234607075
525,3945.5499999999997,0.6217104035062837
526,3948.29,0.6050860835518599
527,3951.04,0.5686715843275293
528,3953.78,0.5256851643731054
529,3956.52,0.48231804441868154
530,3959.26,0.4640868244642577
531,3962.01,0.4774164252399271
532,3964.75,0.5305977052855033
533,3967.4900000000002,0.5832293853310794
534,3970.23,0.6327748653766555
535,3972.98,0.666144866152325
536,3975.72,0.6857553461979011
537,3978.4599999999996,0.6913074262434773
538,3981.2,0.7076624062890534
539,3983.95,0.7090678070647228
540,3986.69,0.710878187110299
541,3989.43,0.7238505671558751
542,3992.17,0.7300581472014512
543,3994.92,0.7239797479771207
544,3997.6600000000003,0.7261706280226968
545,4000.4,0.735760608068273
546,4003.14,0.7514179881138492
547,4005.89,0.7590596888895187
548,4008.63,0.7575087689350947
549,4011.3700000000003,0.7458525489806708
550,4014.11,0.759290129026247
551,4016.8599999999997,0.7530425298019164
552,4019.6,0.7387862098474927
553,4022.3399999999997,0.7308717898930688
554,4025.08,0.7304624699386448
555,4027.83,0.7481035707143143
556,4030.57,0.7464892507598904
557,4033.31,0.7333109308054666
558,4036.0499999999997,0.7373622108510427
559,4038.8,0.7414946116267122
560,4041.54,0.7412331916722883
561,4044.28,0.7405700717178645
562,4047.02,0.7201406517634406
563,4049.77,0.72264535253911
564,4052.5099999999998,0.7280706325846862
565,4055.2500000000005,0.7335805126302622
566,4057.9900000000002,0.7357713926758385
567,4060.74,0.7291432934515079
568,4063.48,0.736703873497084
569,4066.22,0.7251534535426601
570,4068.9599999999996,0.7324391335882363
571,4071.71,0.7492769343639056
572,4074.45,0.7714245144094818
573,4077.19,0.769535194455058
574,4079.93,0.7611770745006342
575,4082.6800000000003,0.7434501752763035
576,4085.42,0.7240354553218797
577,4088.1600000000003,0.6961434353674558
578,4090.9,0.673938015413032
579,4093.6499999999996,0.6763161161887015
580,4096.389999999999,0.6973851962342776
581,4099.13,0.7070175762798536
582,4101.87,0.7404750563254299
583,4104.62,0.7412251571010993
584,4107.36,0.7532675371466755
585,4110.099999999999,0.7438311171922516
586,4112.84,0.7468675972378276
587,4115.59,0.7435373980134972
588,4118.33,0.7430856780590733
589,4121.07,0.7432470581046494
590,4123.820000000001,0.7422212588803188
591,4126.56,0.748788138925895
592,4129.3,0.7499009189714712
593,4132.04,0.7399992990170473
594,4134.79,0.7294602997927168
595,4137.53,0.7376339798382929
596,4140.2699999999995,0.7338209598838691
597,4143.009999999999,0.7346588399294451
598,4145.76,0.7323011407051145
599,4148.5,0.7375362207506908
