,lambda (Angstroms),Total Flux (erg/s/cm^2/Angstrom)
0,100.04,5.3328340358559325
1,101.89999999999999,5.317999241799314
2,104.03,5.301011009809166
3,104.712855,5.295564766147881
4,105.97,5.242896469901099
5,107.94,5.160362996530151
6,109.94,5.0765726693052455
7,114.07000000000001,4.903545642561984
8,118.08000000000001,4.73554603634523
9,120.22644299999999,4.645620472331683
10,121.11,4.614585807928014
11,125.07000000000001,4.475492022474617
12,127.10000000000001,4.404188895894745
13,127.99,4.372927920715801
14,130.97,4.268256338740568
15,131.87,4.236644125954239
16,134.02,4.161126040394493
17,137.14000000000001,4.0515370224402565
18,138.038426,4.01998009074392
19,140.01,3.970480672050108
20,142.94,3.8969186650228083
21,146.95,3.796241813636788
22,151.06,3.6930540463406807
23,154.94,3.5956408371491713
24,158.489319,3.506529911420016
25,158.91,3.4985449883590922
26,161.87,3.4423614201276864
27,166.01999999999998,3.3635905829229404
28,169.89000000000001,3.2901344608260983
29,173.05,3.2301548158994744
30,177.08,3.1536618424782596
31,179.95000000000002,3.0991867676825002
32,181.970086,3.0608437904504604
33,182.04000000000002,3.0598313972693485
34,185.85,3.004660617624189
35,191.06,2.9292171299552914
36,194.16,2.884327629835157
37,198.23,2.8253921157599597
38,201.91,2.772104213690819
39,205.19,2.7246083657938893
40,208.929613,2.670457049043833
41,209.96999999999997,2.65913081721903
42,215.86,2.5950100981356488
43,219.87,2.551355650707795
44,222.93,2.518043180671777
45,227.07000000000002,2.472973744945988
46,230.23,2.4385821939892507
47,233.97,2.3978851944363404
48,239.88329199999998,2.333524568522145
49,239.97,2.3327973724544804
50,246.13,2.28112084733779
51,251.86,2.2330586694945374
52,257.14,2.1887547177802316
53,260.11,2.163851652627184
54,263.73,2.133489789650103
55,269.25,2.087185332899692
56,274.26,2.0451593485847543
57,275.42287,2.0354048014849204
58,278.72,2.0141798124921153
59,283.9,1.980833976050547
60,289.84,1.942590871201335
61,295.90999999999997,1.9035173866481836
62,300.72,1.872550575602441
63,307.72,1.8274903758057264
64,316.227766,1.7727243194481948
65,317.80999999999995,1.7651175678623103
66,328.21999999999997,1.7150672975122143
67,338.19,1.6671314437401241
68,347.67,1.6215517061867224
69,357.41,1.5747216982417713
70,363.078055,1.5474718283142546
71,365.73,1.5379246558326594
72,375.11,1.5041509782626084
73,384.74,1.4694713933947412
74,394.6,1.4339769716368833
75,404.73,1.3975047731733847
76,414.15,1.3635855707876832
77,416.86938299999997,1.3537933586651527
78,421.85,1.3400979177348764
79,429.7,1.3185123693071745
80,440.72,1.2882132699651003
81,450.99,1.259972913505291
82,460.43,1.2340135506031877
83,470.07,1.2075060040124808
84,478.630092,1.1839690211770066
85,479.90999999999997,1.1812625764241997
86,489.96,1.1600048358059605
87,500.21999999999997,1.1383106155306237
88,506.01,1.1260655775992203
89,511.87000000000006,1.1137037700487842
90,520.19,1.0961082573580627
91,529.86,1.0756557740574288
92,539.71,1.0548152031221396
93,549.5408739999999,1.034034805605697
94,549.75,1.033697659270387
95,559.97,1.0172264888673084
96,570.38,1.0004431336446036
97,579.65,0.9854819436396587
98,590.42,0.9681215796060818
99,600.02,0.9526295077828378
100,609.77,0.9368894065967305
101,619.67,0.9209628932477604
102,629.74,0.904721934807545
103,630.957344,0.9027587157057201
104,639.97,0.8912380265755322
105,650.37,0.8779521934951974
106,657.9,0.8683264768596278
107,665.52,0.858596502557498
108,674.78,0.8467592884869304
109,685.74,0.832731038236885
110,695.2800000000001,0.8205869075814621
111,704.96,0.8081855074336121
112,716.41,0.7935991843100701
113,724.43596,0.7833446171004445
114,726.38,0.7815016113731846
115,734.7900000000001,0.7735299863753764
116,745.01,0.7638646200736405
117,755.3700000000001,0.754051800739004
118,764.1199999999999,0.7457497795327236
119,774.75,0.7357127902560646
120,785.53,0.7255096240227268
121,794.6300000000001,0.7168976014841947
122,805.6800000000001,0.7064332704088345
123,815.01,0.6975972383233947
124,824.45,0.68869176497639
125,831.763771,0.6816794138164376
126,835.92,0.678691027588342
127,845.5999999999999,0.6719695402783245
128,855.39,0.6650475573920567
129,865.29,0.6580783586295389
130,875.31,0.6510248893020207
131,885.4499999999999,0.6439000645095024
132,895.6999999999999,0.636679581540734
133,903.9899999999999,0.6308098551669691
134,914.46,0.6239465308457001
135,925.0400000000001,0.6251702733481809
136,935.7600000000001,0.6300026398081615
137,944.41,0.645261265039396
138,954.992586,0.6550356530531014
139,955.3499999999999,0.655371250561968
140,964.19,0.6604528208997876
141,975.35,0.5930603775253612
142,984.38,0.6420053322143333
143,995.78,0.6358608332834675
144,1004.99,0.6559442063051101
145,1014.2900000000001,0.643833753493088
146,1026.04,0.5823380652090816
147,1035.53,0.6049167267482118
148,1045.1100000000001,0.654973002453677
149,1054.78,0.6471195723254777
150,1064.54,0.6184753463636137
151,1074.39,0.6293255245680849
152,1084.33,0.6010749969388913
153,1094.3700000000001,0.6213364494945147
154,1096.4782,0.6190489463977826
155,1104.49,0.6113640942849738
156,1114.71,0.6028057202636291
157,1125.03,0.5865515922890424
158,1135.44,0.6051202957565376
159,1145.94,0.588076730666115
160,1153.89,0.5907248413833663
161,1164.56,0.5894762245724322
162,1175.34,0.5469082284129316
163,1186.21,0.5732490436955131
164,1194.4299999999998,0.532134108739011
165,1205.49,0.5023472715104322
166,1213.8400000000001,0.4696285864147152
167,1225.07,0.5095299974656252
168,1236.41,0.5458951591679687
169,1244.98,0.5545842753751191
170,1253.61,0.5454332792103241
171,1258.92541,0.5345460554817969
172,1265.21,0.5226995992812766
173,1273.98,0.5504881975081792
174,1285.77,0.5525876825817462
175,1294.68,0.5210303384770373
176,1303.65,0.516182076230209
177,1315.72,0.5393435766405528
178,1324.84,0.5298737190384265
179,1334.02,0.5116604432941809
180,1346.3600000000001,0.528407112064988
181,1355.7,0.5205919879417578
182,1365.09,0.5029725987000949
183,1374.56,0.5055382852689396
184,1384.08,0.5037557067193517
185,1393.6799999999998,0.48244410398027127
186,1406.57,0.4822545564483186
187,1416.3200000000002,0.48220985835394004
188,1426.1399999999999,0.4808851890937558
189,1436.03,0.4765482486677658
190,1442.65,0.4810714469872749
191,1445.43977,0.48171874325623243
192,1445.98,0.4819102123770188
193,1456.0,0.47555889587296973
194,1466.1,0.4632513469018227
195,1476.26,0.4600501235803518
196,1486.49,0.4591215968501701
197,1493.35,0.4591812627964999
198,1503.7,0.4500189873656708
199,1510.64,0.4349201208449024
200,1517.6200000000001,0.4407316380905848
201,1524.62,0.43570749721949276
202,1535.1899999999998,0.41820748250414375
203,1545.83,0.42467336438008374
204,1556.55,0.4154262137889256
205,1563.73,0.4158965498668625
206,1574.5700000000002,0.42037425057505695
207,1585.49,0.4224639188161533
208,1596.48,0.4228112836485387
209,1603.85,0.41726966761711753
210,1614.96,0.4147464837488556
211,1626.16,0.4054761383551082
212,1633.66,0.41070504456465246
213,1644.99,0.4094033214118706
214,1656.39,0.3966330948503777
215,1659.58691,0.400530102779392
216,1664.03,0.4063228038823743
217,1671.7199999999998,0.39155208545637543
218,1675.5700000000002,0.40665533552918476
219,1683.3000000000002,0.4098193913896565
220,1694.97,0.3995489644674969
221,1706.7199999999998,0.3927818861182788
222,1714.6,0.3872296205530159
223,1726.48,0.3845727836348276
224,1734.4499999999998,0.391398985214124
225,1746.47,0.3858396082985834
226,1754.54,0.39333719559405655
227,1766.7,0.3787255786811635
228,1774.8500000000001,0.38212121454957815
229,1783.05,0.38273824327608125
230,1795.41,0.39069609779554204
231,1803.69,0.3869839750949866
232,1816.2,0.37649770818871264
233,1824.5800000000002,0.37647557120433406
234,1833.0,0.36996830850642626
235,1845.71,0.356482913032506
236,1854.22,0.3577583174791574
237,1867.0800000000002,0.3610075005795024
238,1875.6999999999998,0.3666732093139484
239,1884.35,0.35634927376324743
240,1893.05,0.3521743310706349
241,1905.46072,0.3549822242731453
242,1906.17,0.3551802466151942
243,1914.97,0.3510887653478709
244,1923.81,0.346140875983878
245,1937.15,0.34210447574454933
246,1946.0900000000001,0.35420966613888233
247,1955.07,0.3465150484365457
248,1968.6200000000001,0.3569683556897013
249,1977.71,0.3573573657215231
250,1982.2699999999998,0.35160084270118286
251,1996.01,0.34664616149515765
252,2005.22,0.3466202472369705
253,2014.4799999999998,0.34233877285794634
254,2023.78,0.3432685903822523
255,2033.12,0.3409310998098889
256,2047.2099999999998,0.34487689775800423
257,2056.66,0.3371850349197991
258,2066.15,0.33580806398492435
259,2075.69,0.3462730329292125
260,2085.27,0.3524625937768311
261,2094.9,0.3427793945036126
262,2104.57,0.3399798871337244
263,2114.28,0.3417366716671666
264,2124.04,0.34067069607977174
265,2133.8399999999997,0.32794381239570725
266,2143.69,0.3349914685908056
267,2153.59,0.33744676466506685
268,2163.5299999999997,0.3293451526426586
269,2173.5099999999998,0.3275570325235807
270,2183.5499999999997,0.32920350025949824
271,2187.7616199999998,0.33158229662099115
272,2193.63,0.3351724738035764
273,2203.75,0.3291329205241906
274,2213.92,0.3175451554203018
275,2224.14,0.3149027784919103
276,2234.41,0.3286181897390157
277,2244.7200000000003,0.3205718715265189
278,2255.08,0.3095948414895192
279,2265.49,0.3101855996280166
280,2275.95,0.3151259459420111
281,2286.45,0.32210016279640324
282,2297.0099999999998,0.310558685461392
283,2307.61,0.3151091786667783
284,2312.93,0.3075871605396704
285,2323.61,0.2791071948258521
286,2334.33,0.29051709965243155
287,2345.11,0.27914311028960753
288,2355.93,0.2991417914671812
289,2366.81,0.27865107845535136
290,2377.73,0.28686073598391926
291,2383.21,0.26875830001840195
292,2394.21,0.27769619862776523
293,2405.2599999999998,0.2731777854126256
294,2416.3599999999997,0.27692796037298306
295,2427.52,0.29381934114393693
296,2433.11,0.2895225991645134
297,2444.34,0.2987181033811633
298,2455.63,0.29743751340840974
299,2466.96,0.29382649397605387
300,2472.65,0.2855898283476245
301,2484.06,0.28120664999606404
302,2495.5299999999997,0.27511837745510004
303,2507.05,0.29802669308963314
304,2511.88643,0.2723103514223336
305,2512.83,0.2673168150291577
306,2518.62,0.26335621876063825
307,2524.43,0.2613715586017267
308,2536.08,0.26761614244831533
309,2547.78,0.2680700665689236
310,2553.66,0.28600388279363964
311,2565.44,0.2763238513526794
312,2577.29,0.2873182962953468
313,2583.2300000000005,0.2836208208488864
314,2595.15,0.2790126421751814
315,2607.1299999999997,0.27107657183030004
316,2613.14,0.2659062727674672
317,2625.2,0.2801854468610173
318,2637.32,0.2958916292833911
319,2643.4,0.3209779066041858
320,2655.6000000000004,0.33590323346499107
321,2667.86,0.30328576865462
322,2674.01,0.31550012235904223
323,2686.35,0.31994580198710276
324,2692.54,0.3007405279107408
325,2704.97,0.31256652003203667
326,2717.46,0.2928513204821561
327,2723.7200000000003,0.28953042278942176
328,2736.29,0.30145646767797274
329,2742.6,0.26334441025925814
330,2755.2599999999998,0.2742922676410446
331,2767.98,0.2870186333516546
332,2774.36,0.29697065231656755
333,2787.1600000000003,0.2707444624656091
334,2793.59,0.2263357217045417
335,2806.48,0.23537164434681876
336,2812.9500000000003,0.2909083758049671
337,2825.94,0.31508917899528355
338,2832.4500000000003,0.3094707826726476
339,2845.53,0.29742629835619955
340,2852.0800000000004,0.2745929742527794
341,2865.2499999999995,0.3143228024295668
342,2871.8500000000004,0.32318031860016627
343,2884.0315,0.31783060127904134
344,2885.11,0.3173801487516287
345,2891.7599999999998,0.32182849087225507
346,2911.8100000000004,0.3537218479427148
347,2931.99,0.33882808493432975
348,2952.3100000000004,0.33263578491795787
349,2972.7799999999997,0.34075903096445725
350,2993.38,0.3428122569321117
351,3007.2,0.3477970608579848
352,3028.0499999999997,0.3493988635970914
353,3049.04,0.3538331293282112
354,3070.1699999999996,0.3595351580513442
355,3091.45,0.3618921328373484
356,3112.88,0.3678679536862239
357,3127.2499999999995,0.3609383265092916
358,3148.93,0.3627405241296192
359,3170.75,0.37004378474196004
360,3192.7299999999996,0.3493297744880302
361,3207.4700000000003,0.364820320932847
362,3229.7,0.3432215874503693
363,3252.09,0.3780771831016209
364,3267.1,0.3997896724596061
365,3289.75,0.39721032795316796
366,3311.31121,0.39476530712437763
367,3312.55,0.3946435079002083
368,3320.19,0.39116156943148533
369,3327.84,0.4093564648129342
370,3335.5099999999998,0.4264086278947267
371,3343.2000000000003,0.39509975867686287
372,3350.9100000000003,0.39228045715934273
373,3358.63,0.4165131894919944
374,3366.3700000000003,0.38671848952498966
375,3374.13,0.35537055725832867
376,3381.9100000000003,0.3720911926920113
377,3389.71,0.4126331958260376
378,3397.52,0.3912295328102357
379,3405.36,0.40960957134494924
380,3413.21,0.40090404372983474
381,3421.07,0.420680049964892
382,3428.9599999999996,0.40946205775046474
383,3436.8700000000003,0.4065017332363811
384,3444.79,0.3527465425724694
385,3452.73,0.42588731960890125
386,3460.69,0.39703056434567674
387,3468.6699999999996,0.398387576782796
388,3476.66,0.389921123070087
389,3484.68,0.4061958709078935
390,3492.71,0.3925710525958719
391,3500.7599999999998,0.3801844019841939
392,3508.83,0.41268661907285953
393,3516.92,0.3834126038618688
394,3525.03,0.3994170563512218
395,3533.15,0.4216576426907466
396,3541.3,0.4397953305807869
397,3549.46,0.441402152320999
398,3557.6400000000003,0.4192324417615548
399,3565.85,0.43972103275262603
400,3574.0699999999997,0.3741749575938691
401,3582.2999999999997,0.3774423162852841
402,3590.56,0.34502027652721445
403,3598.8399999999997,0.4182454044694885
404,3607.14,0.39956460011210626
405,3615.4500000000003,0.3995039296048957
406,3623.79,0.3908647606482008
407,3632.14,0.4783291255416776
408,3640.51,0.4378487581354982
409,3648.9,0.4179897584296623
410,3654.6400000000003,0.5788236884282919
411,3657.38,0.4451878633753729
412,3660.1099999999997,0.37416720447228213
413,3662.84,0.40151654556919136
414,3665.57,0.40360028666610054
415,3668.2999999999997,0.3993524277630098
416,3671.04,0.4631489027100908
417,3673.77,0.424392643807
418,3676.4999999999995,0.37951098490390917
419,3679.23,0.4136408260008184
420,3681.96,0.39897366709772764
421,3684.7000000000003,0.3972708420448086
422,3687.43,0.3600186831417178
423,3690.1600000000003,0.359142724238627
424,3692.89,0.3787778653355362
425,3695.6299999999997,0.41866704028261725
426,3698.36,0.3812207813795264
427,3701.09,0.3879501224764356
428,3703.8199999999997,0.45341046357334486
429,3706.55,0.451879604670254
430,3709.29,0.43173987961733507
431,3712.02,0.40797562071424426
432,3714.75,0.42791406181115343
433,3717.48,0.46488230290806265
434,3720.21,0.38345424400497186
435,3722.95,0.4710245189520529
436,3725.6800000000003,0.6614186600489621
437,3728.41,0.8016092011458713
438,3731.14,0.7575648422427805
439,3733.8700000000003,0.6634615833396896
440,3736.61,0.5529320582867707
441,3739.3399999999997,0.42392039938368
442,3742.07,0.4266955404805891
443,3744.7999999999997,0.38652008157749834
444,3747.54,0.4472355565245793
445,3750.27,0.37736719762148857
446,3753.0,0.44575073871839777
447,3755.73,0.4558278798153069
448,3758.46,0.46622032091221616
449,3761.2000000000003,0.4663245958592972
450,3763.93,0.4366412369562064
451,3766.66,0.3623576780531156
452,3769.3900000000003,0.4684034191500248
453,3772.12,0.486728560246934
454,3774.8599999999997,0.420824135194015
455,3777.59,0.48777647629092424
456,3780.3199999999997,0.5193227173878334
457,3783.05,0.5683721584847425
458,3785.78,0.5508182995816518
459,3788.5200000000004,0.4910147745287328
460,3791.25,0.484498715625642
461,3793.98,0.38497365672255124
462,3796.7099999999996,0.40303189781946047
463,3799.44,0.41409153891636963
464,3801.8939600000003,0.48852218317227414
465,3802.18,0.49720105144685156
466,3804.9100000000003,0.4697178836033482
467,3807.64,0.49407611575984484
468,3810.3700000000003,0.4982024479163415
469,3813.11,0.5446702201173674
470,3815.8399999999997,0.5257991522738641
471,3818.57,0.46202448443036076
472,3821.3,0.4299806165868574
473,3824.0299999999997,0.46455184874335403
474,3826.77,0.48825282094438
475,3829.5,0.4726080531008766
476,3832.23,0.4250748852573733
477,3834.96,0.40336511741386993
478,3837.69,0.40757624957036664
479,3840.4300000000003,0.45742862177139254
480,3843.16,0.5274665539278892
481,3845.8900000000003,0.5329028860843859
482,3848.62,0.5234441182408824
483,3851.35,0.5529939503973791
484,3854.09,0.5307601225984051
485,3856.82,0.5480470547549017
486,3859.5499999999997,0.5320747869113984
487,3862.28,0.5601690190678951
488,3865.0099999999998,0.5871717512243917
489,3867.75,0.5964260234254176
490,3870.48,0.5693917555819142
491,3873.21,0.5719655877384109
492,3875.94,0.5148863198949076
493,3878.68,0.5549618920959335
494,3881.4100000000003,0.47987052425243015
495,3884.14,0.4445031564089268
496,3886.87,0.4608195885654235
497,3889.6,0.4588082207219202
498,3892.34,0.3886634929229461
499,3895.0699999999997,0.48624732507944274
500,3897.8,0.4955408572359394
501,3900.5299999999997,0.518467889392436
502,3903.26,0.5109620215489327
503,3906.0,0.5120533937499586
504,3908.7300000000005,0.5230692259064553
505,3911.46,0.502888158062952
506,3914.19,0.5861473902194485
507,3916.92,0.5282798223759452
508,3919.66,0.5331312945769712
509,3922.39,0.5346497267334679
510,3925.1200000000003,0.4608803588899645
511,3927.85,0.4672262910464612
512,3930.5899999999997,0.47828836324748714
513,3933.32,0.3772762954039838
514,3936.0499999999997,0.3946842275604804
515,3938.78,0.43427705971697705
516,3941.5099999999998,0.5086938918734737
517,3944.2500000000005,0.4924280640744996
518,3946.98,0.5456666962309963
519,3949.71,0.543461328387493
520,3952.44,0.5692995605439896
521,3955.17,0.5470077927004863
522,3957.91,0.5391475649015122
523,3960.6400000000003,0.5211860970580088
524,3963.37,0.4734224292145055
525,3966.1000000000004,0.4236935613710021
526,3968.83,0.3714417935274988
527,3971.5699999999997,0.3787561657285247
528,3974.3,0.4491214978850214
529,3977.0299999999997,0.4809516300415181
530,3979.7599999999998,0.5230068621980147
531,3982.4900000000002,0.5641646943545113
532,3985.23,0.5739406665555373
533,3987.96,0.6040847987120339
534,3990.69,0.5284838308685306
535,3993.4199999999996,0.5964115630250272
536,3996.1600000000003,0.6115607352260531
537,3998.89,0.6553989673825498
538,4001.6200000000003,0.6490819995390464
539,4004.35,0.6222175316955431
540,4007.08,0.6451446638520397
541,4009.82,0.5813428360530657
542,4012.5499999999997,0.6346664682095624
543,4015.2799999999997,0.5764473003660591
544,4018.01,0.6549518325225557
545,4020.74,0.6590540646790524
546,4023.48,0.6729536368800783
547,4026.21,0.6280890690365749
548,4028.9399999999996,0.6043420011930716
549,4031.67,0.6157581333495682
550,4034.4,0.5928357655060649
551,4037.1400000000003,0.6445189377070908
552,4039.87,0.6350602698635874
553,4042.6,0.6448755020200841
554,4045.33,0.6462849341765807
555,4048.0699999999997,0.6313286063776067
556,4050.8,0.6415197385341034
557,4053.53,0.6085419706906
558,4056.2599999999998,0.5903501028470968
559,4058.9900000000002,0.6037071350035934
560,4061.73,0.6216218072046193
561,4064.4599999999996,0.622012339361116
562,4067.19,0.6360363715176126
563,4069.92,0.6154065036741092
564,4072.65,0.599215935830606
565,4075.39,0.5994095080316318
566,4078.12,0.5816664401881285
567,4080.85,0.5814746723446251
568,4083.58,0.6109153045011217
569,4086.3100000000004,0.6271227366576184
570,4089.05,0.5695678088586444
571,4091.7799999999997,0.612023341015141
572,4094.51,0.5918785731716376
573,4097.24,0.5523993053281344
574,4099.97,0.538015937484631
575,4102.71,0.5619957096856569
576,4105.4400000000005,0.5766504418421536
577,4108.17,0.5783388739986502
578,4110.900000000001,0.5712332061551469
579,4113.64,0.5735131783561729
580,4116.37,0.5603307105126695
581,4119.1,0.6192581426691661
582,4121.83,0.5994287748256628
583,4124.5599999999995,0.6197723069821595
584,4127.3,0.5782040791831854
585,4130.03,0.608190511339682
586,4132.76,0.6282793434961786
587,4135.49,0.6524678756526753
588,4138.22,0.637429707809172
589,4140.96,0.6215758800101979
590,4143.69,0.6163140121666946
