,lambda (Angstroms),Total Flux (erg/s/cm^2/Angstrom)
0,100.03,0.25431789593675175
1,101.89,0.25361048289692756
2,104.02,0.25280036456520644
3,104.712855,0.2525368503442711
4,105.96,0.25004518715604834
5,107.93,0.24610934615652005
6,109.92999999999999,0.242113645241831
7,114.05999999999999,0.23386238517272245
8,118.07,0.22585086928825723
9,120.22644299999999,0.221543368576888
10,121.1,0.2200804834445433
11,125.06,0.21344768157718622
12,127.10000000000001,0.21003076100963863
13,127.98,0.2085568384805593
14,130.96,0.2035654570170633
15,131.87,0.2020415368280494
16,134.01,0.19845712969672014
17,137.13,0.19323166562252964
18,138.038426,0.19171012408737217
19,140.0,0.1893617816869758
20,142.93,0.18585791408401656
21,146.94,0.18106425883020552
22,151.05,0.176144734418686
23,154.93,0.17150091116199603
24,158.489319,0.16724096677911346
25,158.9,0.16686941309559397
26,161.85999999999999,0.16419142577241427
27,166.01000000000002,0.16043702469549004
28,169.88,0.15693590574062335
29,173.04,0.1540770949916883
30,177.07,0.15043128335421732
31,179.94,0.14783497282812752
32,181.970086,0.14599852473119415
33,182.03,0.14595718386304452
34,185.84,0.14332829613853193
35,191.04,0.13974018466218924
36,194.15,0.13759447117679965
37,198.20999999999998,0.134793114101886
38,201.9,0.1322473973343659
39,205.18,0.1299843230099036
40,208.929613,0.12739608061986935
41,209.96,0.12686143140346784
42,215.84,0.12381421319545786
43,219.85000000000002,0.12173507125873678
44,222.91,0.12014795786844591
45,227.06,0.1179964875577246
46,230.22,0.1163863793588621
47,233.96,0.11450656140628435
48,239.88329199999998,0.11146560251229126
49,239.96,0.11143535683811255
50,246.11,0.10896809079886281
51,251.85,0.10668101369556307
52,257.12,0.10454359000420597
53,260.09999999999997,0.10337561169656957
54,263.71,0.10193916374100996
55,269.24,0.0997267077536846
56,274.24,0.09772587355429457
57,275.42287,0.09725251093620348
58,278.7,0.09624595655624697
59,283.88,0.09465504382777916
60,289.82,0.09282216223026973
61,295.89,0.09096180631042425
62,300.7,0.08948068818398985
63,307.7,0.08733307524281712
64,316.227766,0.08471610865921755
65,317.79,0.08435810095580686
66,328.20000000000005,0.08196864638395245
67,338.17,0.07967887484347322
68,347.64000000000004,0.07750343160682947
69,357.38,0.0752665335441146
70,363.078055,0.0739584387464458
71,365.71,0.07350579103424092
72,375.09000000000003,0.07189093403914551
73,384.71,0.07023087220046559
74,394.58,0.06853611697055177
75,404.7,0.06679515334940407
76,414.13,0.0651716845160619
77,416.86938299999997,0.06469985358303866
78,421.83,0.06404678795530681
79,429.66999999999996,0.06301514503635748
80,440.69,0.06156617845028329
81,450.96,0.06021504380645553
82,460.4,0.05897319370404715
83,470.03999999999996,0.05770521430370639
84,478.630092,0.05657599180157133
85,479.88000000000005,0.05644953656985403
86,489.93,0.0554314736667266
87,500.19,0.054394301315474125
88,505.97999999999996,0.05381026188859773
89,511.84,0.05323575844567966
90,520.16,0.05239463663901099
91,529.83,0.05141644312296698
92,539.6800000000001,0.05041720346567294
93,549.5408739999999,0.04942871376943543
94,549.71,0.04941580570912728
95,559.9300000000001,0.04863502345800318
96,570.34,0.04783722424203432
97,579.61,0.0471184493151341
98,590.38,0.0462974740447225
99,599.98,0.04555645852624978
100,609.73,0.04480686279342592
101,619.63,0.04406138294625091
102,629.6999999999999,0.04328946620947797
103,630.957344,0.04319285299792334
104,639.93,0.042646500648963644
105,650.3299999999999,0.04202017722007105
106,657.86,0.041564019496170924
107,665.4799999999999,0.041106158631347714
108,674.74,0.04054381372081448
109,685.7,0.039870247737289206
110,695.24,0.03931717239943966
111,704.91,0.038716582102478955
112,716.3700000000001,0.03804773689160306
113,724.43596,0.03756130311572056
114,726.33,0.03747685408939021
115,734.74,0.037102610564561204
116,744.96,0.036657650511558504
117,755.33,0.03619964503135911
118,765.8299999999999,0.035728603127589235
119,774.6999999999999,0.03535205641935697
120,785.48,0.03487732796481989
121,794.57,0.03448048551669911
122,805.63,0.03399354561139484
123,814.96,0.033582266219759314
124,824.39,0.03318224870999265
125,831.763771,0.03281540683020304
126,835.8599999999999,0.032658459141278795
127,845.5400000000001,0.032402744354672094
128,855.3299999999999,0.03208356393185398
129,865.24,0.031775608614987
130,875.25,0.031461815619745995
131,885.3900000000001,0.03114958667261874
132,895.6400000000001,0.03082603688928004
133,906.01,0.030481072111892507
134,914.4,0.030388610686310883
135,924.98,0.033271093294337875
136,935.7,0.0374113604926412
137,944.35,0.04466884546328709
138,954.992586,0.05028200907476011
139,955.2900000000001,0.05043909002752067
140,964.13,0.053723316192871184
141,975.2900000000001,0.03261925028396978
142,984.32,0.05100752065875655
143,995.71,0.05096042437180432
144,1004.93,0.05918251695602736
145,1014.23,0.05670339036527619
146,1025.97,0.03881211393781182
147,1035.46,0.04778473555649691
148,1045.04,0.06525603685333603
149,1054.71,0.06420671782832918
150,1064.47,0.05669147848147634
151,1074.32,0.061534808812777536
152,1084.26,0.05438495882223274
153,1094.3,0.06200274736297019
154,1096.4782,0.06159570363475926
155,1104.42,0.06015927331057937
156,1114.6399999999999,0.05879781151668143
157,1124.95,0.05515611957978439
158,1135.36,0.06176929637288836
159,1145.87,0.05803337189599332
160,1153.81,0.059503537058072604
161,1164.49,0.06026341342217926
162,1175.26,0.04929987964328682
163,1186.1399999999999,0.05802844346739547
164,1194.36,0.04752902707347756
165,1205.4099999999999,0.04063058173858791
166,1213.76,0.032550530693671295
167,1225.0,0.044754733945783554
168,1236.3300000000002,0.05574620705489669
169,1244.9,0.05888888121598228
170,1256.42,0.05715609291209732
171,1258.92541,0.05574774136766216
172,1265.1299999999999,0.05230829097251105
173,1273.9,0.06007191272428502
174,1285.6799999999998,0.061291036616633654
175,1294.6,0.05370691913953261
176,1303.57,0.05297108525280657
177,1315.63,0.05964649725125516
178,1324.75,0.0577836741356541
179,1333.93,0.05376742132850303
180,1346.28,0.058672668151126595
181,1355.61,0.0572789061151005
182,1365.0100000000002,0.053499191105599406
183,1374.47,0.054593676404548305
184,1383.99,0.054671172011947204
185,1393.5900000000001,0.04967261136394608
186,1406.48,0.05035083096261958
187,1416.23,0.05143799108574345
188,1426.0500000000002,0.051574028235392304
189,1435.93,0.05121956569349115
190,1442.56,0.05259117977721539
191,1445.43977,0.052830665185446476
192,1445.8899999999999,0.05287073483734091
193,1455.91,0.05180331194547811
194,1466.0,0.0492422946621552
195,1476.16,0.04887149298737216
196,1486.3999999999999,0.04904476200806328
197,1496.7,0.04922066155036
198,1503.61,0.04750751662193965
199,1510.55,0.04433230695432211
200,1517.52,0.04592030254750737
201,1524.52,0.044973723401495434
202,1535.0900000000001,0.041333710291017414
203,1545.7299999999998,0.042919002789079286
204,1556.45,0.04129528598261529
205,1563.63,0.04183172840142019
206,1574.47,0.04326608263816743
207,1585.38,0.04408289248345454
208,1596.3700000000001,0.04449883302421581
209,1603.7399999999998,0.043556202094771825
210,1614.86,0.04333725876567858
211,1626.05,0.04176908104512522
212,1633.56,0.04315391133276099
213,1644.8799999999999,0.04320929974235312
214,1656.28,0.0410994688474194
215,1659.58691,0.04196104275147937
216,1663.93,0.043110136015778025
217,1671.6100000000001,0.04023214692193792
218,1675.46,0.04314130788401026
219,1683.2,0.04385234184412453
220,1694.86,0.042056385329257914
221,1706.6100000000001,0.04087225839532286
222,1714.49,0.03957302948133067
223,1726.3700000000001,0.03921027416429676
224,1734.3400000000001,0.04054462483123613
225,1746.3600000000001,0.039781126640095754
226,1754.4199999999998,0.04108657688796669
227,1766.5800000000002,0.038768275822719855
228,1774.74,0.039257811160514744
229,1787.04,0.03946127722116145
230,1795.29,0.0407683221398879
231,1803.58,0.04035325909458394
232,1816.08,0.03842520533507856
233,1824.46,0.038660551870706154
234,1837.1100000000001,0.03766811074608671
235,1845.59,0.03558336237163826
236,1854.11,0.035615696033159394
237,1866.96,0.036070565088387865
238,1875.57,0.03749032833084057
239,1884.23,0.03550300911825524
240,1892.9299999999998,0.03452006194163949
241,1905.46072,0.035481811700270954
242,1906.05,0.035528527459646304
243,1914.85,0.034670532206813036
244,1923.69,0.03400005997555779
245,1937.0200000000002,0.03434974691643649
246,1945.9599999999998,0.03542639223912633
247,1954.94,0.0338388505833942
248,1968.5,0.03550473489834657
249,1977.58,0.03591722079655951
250,1982.14,0.034657675256455
251,1995.8799999999999,0.03394198316850851
252,2005.09,0.03432779888685006
253,2014.3500000000001,0.033647608382164136
254,2023.6499999999999,0.03425520089905625
255,2032.99,0.0331886364375264
256,2047.08,0.03369873078838767
257,2056.53,0.032274464636197396
258,2066.02,0.03247477150558516
259,2075.56,0.033952852151945455
260,2080.34,0.03319061323052011
261,2085.14,0.03388653581988378
262,2094.7599999999998,0.032597902509400145
263,2104.43,0.03263973297588904
264,2114.14,0.03279091646395597
265,2123.9,0.032833823728995425
266,2133.7,0.031373964015612925
267,2143.5499999999997,0.03177826807920296
268,2153.4500000000003,0.03230012591976553
269,2163.39,0.03142907678190614
270,2173.37,0.031202960665624765
271,2183.41,0.030977729081710446
272,2187.7616199999998,0.03128958107197621
273,2193.48,0.03171218737143263
274,2203.61,0.031029061015921157
275,2213.7799999999997,0.029911487271049322
276,2224.0,0.02937240928947704
277,2234.26,0.030574413918544395
278,2244.58,0.02971768746357121
279,2254.94,0.028746433619237663
280,2265.35,0.028936265538203665
281,2275.8,0.0293251400678093
282,2286.31,0.0297713235133744
283,2296.86,0.028504939569579134
284,2307.46,0.02871124138908342
285,2312.78,0.02789494860415538
286,2323.46,0.024524685644938947
287,2334.18,0.02648865529636215
288,2344.9500000000003,0.025692040711084895
289,2355.78,0.027078315041767106
290,2366.65,0.025496851983088955
291,2377.58,0.02596315784037026
292,2383.06,0.024558225498000776
293,2394.06,0.025448253423901453
294,2405.11,0.024841677113101673
295,2416.21,0.025087926565601444
296,2427.36,0.02614551178140076
297,2432.96,0.025487857270950192
298,2444.19,0.02630966770802879
299,2455.47,0.026054683908406935
300,2466.8,0.02575936587208463
301,2472.49,0.02506643973557325
302,2483.9,0.02502923692053022
303,2495.37,0.023906393021446648
304,2506.89,0.025889384885662628
305,2511.88643,0.024021221513930657
306,2512.66,0.02373290777523845
307,2518.46,0.023914762734323268
308,2524.2599999999998,0.02340003769340809
309,2535.9100000000003,0.023681413085362937
310,2547.62,0.023501119045860046
311,2553.49,0.024684089668244164
312,2565.2799999999997,0.024090506386797612
313,2577.12,0.024883638579136273
314,2583.06,0.024580744864819693
315,2594.98,0.024268987815214697
316,2606.96,0.02360420133415196
317,2612.97,0.02328066328313468
318,2625.0299999999997,0.024042567560128285
319,2637.1499999999996,0.024843222405664146
320,2643.2299999999996,0.026372030017946163
321,2655.43,0.027095915621538368
322,2667.68,0.024992576698915785
323,2673.83,0.025723169974497098
324,2686.1800000000003,0.025878001999444945
325,2692.37,0.024642825654054432
326,2704.8,0.02526307843705862
327,2717.28,0.024007756693848022
328,2723.55,0.023790381106513853
329,2736.1200000000003,0.024552055216116638
330,2742.42,0.022124334913053597
331,2755.08,0.022620694875469773
332,2767.8,0.0233325654064282
333,2774.18,0.0239688658614215
334,2786.98,0.02254923715043627
335,2793.41,0.019520973079214785
336,2806.2999999999997,0.020295240221042943
337,2812.77,0.023436486528849627
338,2825.75,0.024535939523491167
339,2832.27,0.023928461305083068
340,2845.34,0.023204740152537994
341,2851.9,0.02202436231315806
342,2865.06,0.024154847013426378
343,2878.29,0.02451394737699399
344,2884.0315,0.024240821558145283
345,2884.92,0.024199466247153852
346,2898.2400000000002,0.02435690046682508
347,2911.62,0.026060986777575908
348,2931.8,0.025073040077348084
349,2952.12,0.024562338256305993
350,2972.59,0.024851796662962906
351,2993.19,0.024786554600292283
352,3007.0099999999998,0.024952216245626845
353,3027.8500000000004,0.024931422547274623
354,3048.8399999999997,0.0250011690766214
355,3069.9700000000003,0.025072410485153913
356,3091.25,0.025051362121385423
357,3112.68,0.02521435398531594
358,3127.05,0.024741289798880167
359,3148.72,0.024674360027129083
360,3170.5499999999997,0.024926315831590263
361,3192.53,0.02374025186375044
362,3207.26,0.024433080223792272
363,3229.49,0.023226849968784123
364,3251.8799999999997,0.024845745289988237
365,3266.89,0.025780933408401537
366,3289.5299999999997,0.02551782244243732
367,3311.31121,0.025222930983847727
368,3312.3399999999997,0.025209742143743497
369,3319.97,0.02506657934482492
370,3327.6299999999997,0.02530201416268648
371,3335.2999999999997,0.026531101519474753
372,3342.9900000000002,0.024919233954116448
373,3350.69,0.025929028927684856
374,3358.4199999999996,0.025730201518033406
375,3366.1600000000003,0.024356076647308662
376,3373.92,0.022855396854437344
377,3381.69,0.024581449600492737
378,3389.49,0.02562663996332827
379,3397.2999999999997,0.024764082865090516
380,3405.14,0.025235573383632894
381,3412.98,0.024853123902175277
382,3420.85,0.025184452037497793
383,3428.7400000000002,0.025182505250673733
384,3436.6400000000003,0.025180661002776387
385,3444.57,0.022572254371659176
386,3452.5099999999998,0.02595928027946868
387,3460.46,0.024373408726204894
388,3468.44,0.024463934789721246
389,3476.44,0.02400204593109102
390,3484.4500000000003,0.02464585961138751
391,3492.48,0.024179788369537422
392,3500.54,0.023455194744467472
393,3508.6,0.02478048111939752
394,3516.69,0.023405835111107706
395,3524.8,0.024215084180671316
396,3532.9300000000003,0.02510841832808835
397,3541.07,0.025594775014432098
398,3549.23,0.026143156778629266
399,3557.41,0.025006313620679864
400,3565.61,0.025938735540583884
401,3573.83,0.02294570253834133
402,3582.07,0.023336714613952196
403,3590.33,0.02127927176741649
404,3598.6099999999997,0.024613963998734213
405,3606.9,0.02377690876897864
406,3607.6000000000004,0.023960926493848497
407,3610.35,0.020106404698694357
408,3613.0899999999997,0.027118600364613506
409,3615.84,0.025756578569459364
410,3618.58,0.023362164235378513
411,3621.33,0.022037542440224375
412,3624.0699999999997,0.022937858106143523
413,3626.81,0.03044465377206267
414,3629.56,0.02095584197690853
415,3632.3,0.02311642764282768
416,3635.05,0.014834375847673538
417,3637.79,0.021103821513592688
418,3640.54,0.02210259971843855
419,3643.2799999999997,0.015723385384357698
420,3646.03,0.019494273589203557
421,3648.77,0.024792369255122706
422,3651.52,0.025735897459968564
423,3654.2599999999998,0.03210733312588771
424,3657.0000000000005,0.02650911879180686
425,3659.75,0.02419190699665272
426,3662.49,0.02048197266257187
427,3665.2400000000002,0.02229317086741773
428,3667.98,0.022738836533336877
429,3670.73,0.02652414473818274
430,3673.47,0.029172540404101888
431,3676.2200000000003,0.022879048608947745
432,3678.96,0.024610484274866895
433,3681.71,0.024749242479712757
434,3684.4500000000003,0.020558318145631905
435,3687.19,0.025921863811551052
436,3689.94,0.018622192016396914
437,3692.68,0.026642267682316062
438,3695.4300000000003,0.019794685887161923
439,3698.17,0.03028518155308107
440,3700.9199999999996,0.028363109757926934
441,3703.66,0.021276875423846077
442,3706.41,0.02569275362869194
443,3709.15,0.022921019294611086
444,3711.89,0.026249264960530237
445,3714.6400000000003,0.021489683165376097
446,3717.38,0.03150683883129524
447,3720.1299999999997,0.0313464370361411
448,3722.87,0.04272501270206025
449,3725.62,0.046990410906906116
450,3728.36,0.05152375657282526
451,3731.11,0.03732182477767112
452,3733.8500000000004,0.03139050044359027
453,3736.6,0.02528990864843613
454,3739.3399999999997,0.02365948431435528
455,3742.08,0.024174829980274426
456,3744.83,0.02470195818512029
457,3747.57,0.022138423851039434
458,3750.3199999999997,0.017843702055885296
459,3753.06,0.021366547721804446
460,3755.81,0.027582325926650303
461,3758.5499999999997,0.030656481592569455
462,3761.3,0.028352859797415315
463,3764.04,0.026464945463334465
464,3766.79,0.027077893668180322
465,3769.5299999999997,0.02499025933409947
466,3772.27,0.02619057500001862
467,3775.02,0.026896153204864482
468,3777.76,0.030497198870783625
469,3780.51,0.03190045707562949
470,3783.25,0.03448088274154863
471,3786.0,0.031517790946394494
472,3788.74,0.029322246612313644
473,3791.4900000000002,0.027382344817159506
474,3794.23,0.023566190483078654
475,3796.98,0.023070988687924513
476,3799.72,0.02188926435384366
477,3801.8939600000003,0.025982970410006162
478,3802.4599999999996,0.027049146675517208
479,3805.21,0.02833398754399918
480,3807.95,0.026940350809323037
481,3810.7000000000003,0.031449391677805014
482,3813.44,0.03113927494312887
483,3816.19,0.029538985811610845
484,3818.93,0.0292025190769347
485,3821.6800000000003,0.028119779945416676
486,3824.42,0.025962153210740534
487,3827.16,0.021883086476064392
488,3829.9100000000003,0.023678687344546367
489,3832.65,0.022715040609870226
490,3835.4,0.0188151814783522
491,3838.14,0.01910245474367606
492,3840.8900000000003,0.02423357561215803
493,3843.63,0.026989578877481893
494,3846.3799999999997,0.02961457974596387
495,3849.12,0.03018147301128772
496,3851.87,0.031243643879769696
497,3854.61,0.028992557145093554
498,3857.35,0.03318817041041741
499,3860.1000000000004,0.03344896127889939
500,3862.84,0.032638314544223244
501,3865.5899999999997,0.03310901541270522
502,3868.33,0.031560728678029074
503,3871.08,0.029695289546511055
504,3873.82,0.029571282811834913
505,3876.5699999999997,0.030127823680316888
506,3879.3100000000004,0.027747556945640746
507,3882.06,0.02736676781412272
508,3884.7999999999997,0.023443231079446576
509,3887.54,0.025921344344770433
510,3890.29,0.02713055521325241
511,3893.03,0.027639658478576266
512,3895.7799999999997,0.03140679934705824
513,3898.52,0.029899302612382102
514,3901.27,0.03286676348086407
515,3904.0099999999998,0.029844886746187935
516,3906.76,0.031216407614669907
517,3909.5,0.031476510879993765
518,3912.25,0.03272480174847574
519,3914.99,0.0305382950137996
520,3917.73,0.034555448279123456
521,3920.48,0.03201694914760543
522,3923.2200000000003,0.03026215241292929
523,3925.97,0.029017093281411263
524,3928.71,0.02606318654673512
525,3931.46,0.022806627415217096
526,3934.2,0.027400780680540953
527,3936.9500000000003,0.02836610154902293
528,3939.69,0.033583174814346785
529,3942.4300000000003,0.032600008079670645
530,3945.18,0.030960618948152618
531,3947.9199999999996,0.03283283221347648
532,3950.67,0.03194298308195845
533,3953.41,0.03048561634728231
534,3956.1600000000003,0.028222477215764284
535,3958.9,0.025044220481088144
536,3961.65,0.024922631349570117
537,3964.39,0.023391314614893976
538,3967.1400000000003,0.02229414548337595
539,3969.88,0.025627158748699808
540,3972.62,0.022874652014023666
541,3975.37,0.03031302288250564
542,3978.11,0.0321333961478295
543,3980.86,0.02719332701631147
544,3983.6,0.03179429028163533
545,3986.3500000000004,0.0339170411501173
546,3989.09,0.036809034415441165
547,3991.8399999999997,0.035146705283923135
548,3994.58,0.03603228854924699
549,3997.33,0.03425267941772897
550,4000.07,0.03473374268305282
551,4002.81,0.03301293594837669
552,4005.5600000000004,0.03417029681685866
553,4008.3,0.03143395008218251
554,4011.0499999999997,0.03659819095066449
555,4013.79,0.037182094215988344
556,4016.54,0.034128605084470326
557,4019.28,0.037918858349794186
558,4022.0299999999997,0.03583076921827615
559,4024.7699999999995,0.03660757248360001
560,4027.52,0.03325665335208199
561,4030.2599999999998,0.03456119661740585
562,4033.0,0.0334598998827297
563,4035.75,0.03452548075121168
564,4038.4900000000002,0.03422132401653554
565,4041.24,0.03583672488501752
566,4043.98,0.03490114815034137
567,4046.73,0.032547069018823344
568,4049.47,0.03461729228414721
569,4052.2200000000003,0.03299150315262918
570,4054.96,0.032179996417953036
571,4057.7000000000003,0.029279639683276893
