,lambda (Angstroms),Total Flux (erg/s/cm^2/Angstrom)
0,102.06,51.507358014649206
1,103.96000000000001,51.36055079317344
2,104.712855,51.3023799770298
3,105.89,50.8246097399839
4,108.11,49.9235738215982
5,110.11999999999999,49.107771030991955
6,113.98,47.54110497557324
7,117.99000000000001,45.91355811564418
8,120.22644299999999,45.00584845658067
9,121.02,44.735816018757816
10,124.98,43.38830290692522
11,127.01,42.69753229724175
12,127.89,42.3980849412231
13,130.87,41.384047300718336
14,132.07999999999998,40.97230719453013
15,133.92,40.34618999810898
16,137.04,39.284513032108165
17,138.038426,38.944767553737336
18,139.91,38.48954956928804
19,142.84,37.776893770715326
20,146.84,36.80398543789086
21,150.96,35.80188911184939
22,154.83,34.86059974278265
23,158.489319,33.97055377411819
24,159.17000000000002,33.84538729387794
25,162.12,33.30292901947036
26,165.9,32.60784710065982
27,170.16,31.824500757531425
28,172.92,31.316980828543976
29,176.95,30.575928157500947
30,179.82000000000002,30.048181131016833
31,181.91,29.663863650611372
32,181.970086,29.652814799646897
33,186.14,29.06783506279304
34,190.92000000000002,28.39726942709469
35,194.01999999999998,27.96238397979406
36,198.07999999999998,27.392824334500446
37,202.23000000000002,26.810639375792487
38,205.04000000000002,26.41643739447139
39,208.929613,25.870780673666864
40,209.82,25.776872818940635
41,216.20000000000002,25.103986181119975
42,220.22,24.680004457068815
43,222.77,24.411060950961062
44,226.91,23.97442380331941
45,230.05999999999997,23.64222375513925
46,233.8,23.247827661749206
47,239.8,22.61505922472508
48,239.88329199999998,22.606274588171217
49,245.95,22.11320742024856
50,252.26,21.600389082361502
51,256.95,21.219188143614552
52,259.92,20.97783806487437
53,264.15000000000003,20.634067789214107
54,269.06,20.235022472760477
55,274.06,19.82866214972684
56,275.42287,19.717899080660654
57,279.16,19.484807736346283
58,283.69,19.20226610230797
59,290.3,18.789972248450503
60,295.7,18.45317392227966
61,301.19,18.11074987157097
62,308.21000000000004,17.67290633481887
63,316.227766,17.172834049405544
64,318.31,17.075836385964127
65,327.98,16.625368006187443
66,337.95,16.160920355466814
67,348.21999999999997,15.682494976302236
68,357.15,15.266496058053965
69,363.078055,14.990342736837064
70,366.30999999999995,14.87759455820509
71,374.84000000000003,14.58001624715724
72,385.34,14.213687479633865
73,395.23,13.86868488737956
74,405.36999999999995,13.514942509146133
75,413.84999999999997,13.219103976594111
76,416.86938299999997,13.11376538438465
77,421.54999999999995,12.989065726894689
78,430.38,12.75382122334406
79,441.42,12.459708283182572
80,450.66,12.213539191326761
81,460.1,11.962037463614765
82,469.73,11.70547809103939
83,478.630092,11.468370730367406
84,479.57,11.449113233209884
85,489.60999999999996,11.24338413308444
86,499.86,11.033377163818825
87,505.65,10.914730717025467
88,511.5,10.794912158477773
89,519.81,10.624644185002332
90,529.48,10.426497790428625
91,540.56,10.199443240128037
92,549.5408739999999,10.015433216128068
93,550.61,9.998723316411828
94,559.56,9.858863770121884
95,569.96,9.696331565282174
96,580.5600000000001,9.530629486849394
97,589.99,9.383264483736081
98,599.5799999999999,9.233344989348312
99,609.32,9.081012419765734
100,620.65,8.904072721518245
101,629.29,8.769027442697563
102,630.957344,8.742968087657637
103,639.51,8.63700589537969
104,649.9000000000001,8.50828993345242
105,657.43,8.414990182931504
106,665.04,8.320732494462154
107,674.2900000000001,8.206125629550002
108,685.25,8.070284021615171
109,694.78,7.952339177383519
110,704.4499999999999,7.8324560119921145
111,715.89,7.690844799366707
112,724.43596,7.584979919655545
113,725.85,7.571979003563148
114,734.2600000000001,7.494663995384152
115,744.47,7.400844726289322
116,754.8299999999999,7.305618846618173
117,765.33,7.209006535275788
118,774.19,7.127719985367834
119,784.9599999999999,7.028716854588079
120,795.8800000000001,6.928378714231999
121,805.1,6.843666637740879
122,814.42,6.758021482198879
123,825.75,6.653981999734193
124,831.763771,6.598440850639181
125,835.31,6.573926540107801
126,844.98,6.507946501994835
127,854.77,6.440720045391325
128,864.66,6.372922688545696
129,874.6800000000001,6.30423769508531
130,884.8100000000001,6.234835180258594
131,895.0500000000001,6.164632725065546
132,905.42,6.093357880257743
133,915.9000000000001,6.022959610083607
134,924.37,5.991148649876077
135,935.0799999999999,5.955105839845067
136,945.91,5.9451217043235145
137,954.66,5.947344420638048
138,954.992586,5.9455242896587865
139,965.71,5.888463259451053
140,974.65,5.649631128164352
141,985.93,5.7042746489569724
142,995.06,5.667542391300643
143,1004.26,5.718618630244976
144,1015.89,5.640383694040913
145,1025.29,5.411009194701428
146,1034.78,5.413812748134226
147,1044.35,5.568386326253495
148,1054.02,5.4994496852308545
149,1066.22,5.315276449917907
150,1076.09,5.324964770611449
151,1086.04,5.162969115991462
152,1096.09,5.223222342229568
153,1096.4782,5.220096559925601
154,1106.24,5.153397146808594
155,1113.9,5.091859347331598
156,1124.21,4.992551117878879
157,1134.6100000000001,5.059010177596795
158,1145.1100000000001,4.955689247504306
159,1155.71,4.937407827601415
160,1163.72,4.909703863788002
161,1174.49,4.685685201207422
162,1185.35,4.782812227797478
163,1196.32,4.553225585596088
164,1204.61,4.4122105103135425
165,1215.76,4.302477846453424
166,1224.19,4.4269527654363126
167,1235.51,4.5621190588985066
168,1244.0800000000002,4.574259472146826
169,1255.5900000000001,4.479116364969252
170,1258.92541,4.428019833831967
171,1264.2900000000002,4.354321063611171
172,1275.99,4.479453643797822
173,1284.84,4.48604371727234
174,1293.7399999999998,4.280784766303211
175,1305.71,4.229077194494168
176,1314.76,4.3591523701940975
177,1323.88,4.294385591672922
178,1336.13,4.157603102979457
179,1345.3899999999999,4.2642566160160715
180,1354.71,4.206958539720309
181,1364.1000000000001,4.08774110920344
182,1373.56,4.091900424465468
183,1386.27,4.052386450890452
184,1395.8799999999999,3.924273992821539
185,1405.5500000000002,3.909999645420248
186,1415.3,3.892231178909124
187,1425.11,3.8807113230656234
188,1434.9899999999998,3.840485913001017
189,1441.6100000000001,3.85795185666218
190,1445.43977,3.8519601665207506
191,1448.26,3.850892002628758
192,1454.95,3.8106733815090443
193,1465.03,3.7272086667277713
194,1475.19,3.703576293099028
195,1485.41,3.6957150753346815
196,1495.71,3.685290798722866
197,1506.08,3.6189142706195123
198,1513.03,3.52417895824552
199,1516.52,3.5626171910246223
200,1523.52,3.522157041870961
201,1534.08,3.410040474004866
202,1544.71,3.439836354647233
203,1555.42,3.382540776442131
204,1566.2,3.3673842467454915
205,1573.43,3.388008528405352
206,1584.34,3.3973776030815745
207,1595.3200000000002,3.3814453262662583
208,1606.38,3.3440175906034733
209,1613.79,3.3293979398565257
210,1624.98,3.2640037085666
211,1636.24,3.279428425785139
212,1643.79,3.2734609720551178
213,1655.19,3.190732286290583
214,1659.58691,3.2030348031884386
215,1666.66,3.2286334379703714
216,1670.51,3.1374560993429914
217,1678.22,3.2155897264034836
218,1685.96,3.238734366409737
219,1693.74,3.178160523677005
220,1705.48,3.130246689784681
221,1713.36,3.078209290204484
222,1725.23,3.055431212410457
223,1733.2,3.088848751667542
224,1745.21,3.0525463342870642
225,1753.2700000000002,3.088696412381431
226,1765.42,3.0035859554145032
227,1773.57,3.0054468723461523
228,1785.86,2.999820375792775
229,1794.1,3.037701631561706
230,1806.5400000000002,3.0105404997371306
231,1814.88,2.9350365986585976
232,1823.26,2.9387201148410784
233,1835.89,2.8872954650063214
234,1844.37,2.8171629243413383
235,1852.88,2.804899596622115
236,1865.7299999999998,2.8039098417229362
237,1874.34,2.8468824571562497
238,1882.99,2.773604589850576
239,1896.04,2.7275450212564682
240,1904.7900000000002,2.7505916971033306
241,1905.46072,2.747435540106927
242,1913.59,2.7133515095081884
243,1926.85,2.6849088711642
244,1935.74,2.6921744776590675
245,1944.68,2.7135212495447947
246,1953.65,2.658435620665038
247,1967.2,2.708125141588036
248,1976.28,2.716138276568171
249,1985.3999999999999,2.6669343438609943
250,1994.56,2.6358298434665044
251,2003.77,2.6457302084628744
252,2013.02,2.609860105771932
253,2026.9699999999998,2.6240519498218093
254,2036.3300000000002,2.575599910990758
255,2045.73,2.594494404472395
256,2055.17,2.5416806302667205
257,2064.6600000000003,2.534239821451905
258,2074.19,2.580030644949778
259,2078.97,2.5477396563159727
260,2083.76,2.5747421007603384
261,2093.38,2.522796521961759
262,2103.04,2.5123346754758673
263,2112.75,2.5112909943808353
264,2127.3900000000003,2.498718520824576
265,2137.21,2.4351619035894356
266,2147.08,2.445715651745155
267,2156.9900000000002,2.4603173322135614
268,2166.94,2.4224523449946567
269,2176.95,2.4052441562447835
270,2186.9900000000002,2.386455666729425
271,2187.7616199999998,2.387913142996438
272,2197.0899999999997,2.4097774566092873
273,2207.23,2.38092006311994
274,2217.42,2.3328484848500732
275,2222.53,2.311797420280984
276,2232.79,2.3550103233183903
277,2243.1,2.315904341575277
278,2253.45,2.2708478920077484
279,2263.85,2.2768415576597
280,2274.2999999999997,2.289264238531132
281,2284.7999999999997,2.305586834622045
282,2295.3399999999997,2.2514294628885425
283,2305.94,2.251809089418416
284,2316.58,2.2067377481238744
285,2327.27,2.062212622048813
286,2332.64,2.139979016621023
287,2343.41,2.1093560548971304
288,2354.22,2.1570979253488227
289,2365.09,2.087556194063891
290,2376.01,2.09889277799844
291,2386.97,2.0412061941085744
292,2392.48,2.0755344512953293
293,2403.52,2.043715831756632
294,2414.61,2.0520276274374147
295,2425.76,2.0893522213815743
296,2436.96,2.058279230545215
297,2442.57,2.091730018170931
298,2453.85,2.0782079916857406
299,2465.17,2.056217697376134
300,2476.5499999999997,2.0221526013299047
301,2482.26,2.0180733193945812
302,2493.7200000000003,1.9669491876995204
303,2505.23,2.04391867122394
304,2511.01,1.94808157059589
305,2511.88643,1.9491607317999657
306,2516.79,1.956388184079643
307,2522.6,1.9334770480974015
308,2534.24,1.9453705942534616
309,2545.94,1.9295024947711505
310,2557.69,1.9839055405901973
311,2563.58,1.9509251770901277
312,2575.42,1.9842101044516185
313,2587.3,1.9630633680541947
314,2593.2699999999995,1.9463260770362982
315,2605.24,1.9149057221813186
316,2617.27,1.8946261216879678
317,2623.3,1.9293208850316996
318,2635.4100000000003,1.9728899570205214
319,2647.57,2.040894274310701
320,2653.68,2.0907495101366056
321,2665.92,1.963608799908957
322,2672.0699999999997,2.003714871975948
323,2684.4,2.0083040432907433
324,2696.79,1.9434132689671677
325,2703.01,1.9786872044560588
326,2715.49,1.9105314116749272
327,2728.02,1.8883546641951532
328,2734.31,1.926332263105945
329,2746.9300000000003,1.8006517971686147
330,2753.26,1.8240279323204929
331,2765.97,1.8543647479256067
332,2772.35,1.882562628378842
333,2785.14,1.8083905164661278
334,2798.0,1.6722204679753143
335,2804.45,1.7036071118504506
336,2817.4,1.8372869449020808
337,2823.89,1.9035182250183031
338,2836.92,1.8715367305521058
339,2843.46,1.8309743559696858
340,2856.59,1.7635960521062035
341,2863.17,1.8859071137648695
342,2876.39,1.9109882914438314
343,2883.02,1.8854987984038551
344,2884.0315,1.8862381174498695
345,2896.33,1.8977890755637472
346,2909.7000000000003,2.0001056040540934
347,2929.87,1.9395099558603972
348,2950.1699999999996,1.908940404877153
349,2970.62,1.9288602352905841
350,2991.22,1.9225278471006915
351,3011.95,1.9297714561212502
352,3032.8300000000004,1.9292949465384843
353,3046.83,1.9303798768948677
354,3067.95,1.9422827775467835
355,3089.21,1.9400370675022625
356,3110.6299999999997,1.956870730947529
357,3132.19,1.922986483696359
358,3146.64,1.920012958242769
359,3168.46,1.9326138054125037
360,3190.42,1.8514682418858022
361,3212.53,1.895940259755776
362,3227.36,1.8116197338404305
363,3249.73,1.9230995461313087
364,3272.26,1.9857652319119738
365,3287.3599999999997,1.964085292510645
366,3310.15,1.9434492727122146
367,3311.31121,1.9428759570616743
368,3325.43,1.9379675509555203
369,3333.1,1.980734858653344
370,3340.7799999999997,1.889182119164333
371,3348.4799999999996,2.0279972853016526
372,3356.2,1.9751778570653031
373,3363.94,1.7794101344552844
374,3371.69,1.8177428646584308
375,3379.46,1.972053100487908
376,3387.25,1.954678841943716
377,3395.06,1.8999054890258549
378,3402.89,2.0430040417343243
379,3410.73,1.8944580472559587
380,3418.6,1.8825520112170895
381,3426.48,1.9338282279913854
382,3434.38,2.013752950392012
383,3442.29,1.8674848256058043
384,3450.23,1.9112086592590924
385,3458.1800000000003,1.927671645725546
386,3466.15,1.8938905378183302
387,3474.14,1.9541323355374454
388,3482.15,1.904935038882891
389,3490.18,1.9510726478546674
390,3498.2200000000003,1.8412828096396088
391,3506.2900000000004,1.9759351298640464
392,3514.37,1.87716300290165
393,3522.47,1.9677907815655835
394,3530.59,1.857513465855848
395,3538.73,1.9698920557724433
396,3546.89,1.9958755513153692
397,3555.07,1.9983609524846258
398,3563.2599999999998,1.9536598064670478
399,3571.48,1.8317863188889656
400,3579.71,1.8521396841240492
401,3587.96,1.719717154985463
402,3596.2300000000005,1.8846907314732078
403,3604.52,1.9601501135872832
404,3612.8300000000004,1.8037511013276892
405,3617.7799999999997,1.903067543844538
406,3620.5,1.810971609025513
407,3623.21,1.7848573213933232
408,3625.92,1.879579133761133
409,3628.63,1.912169846128943
410,3631.34,1.910493558496753
411,3634.0499999999997,1.902604270864563
412,3636.76,2.011936983232373
413,3639.48,1.9517721484133481
414,3642.19,1.8805848607811582
415,3644.8999999999996,1.8610975731489683
416,3647.61,1.993399285516778
417,3650.32,1.996656997884588
418,3653.0299999999997,1.9142097102523978
419,3655.7400000000002,1.9382154226202077
420,3658.45,1.9880521349880178
421,3661.17,1.931426300168993
422,3663.88,2.016659012536803
423,3666.59,2.0047787249046127
424,3669.2999999999997,2.025319437272423
425,3672.01,1.9087941496402325
426,3674.7200000000003,1.7901983620080428
427,3677.43,1.8263285743758528
428,3680.1499999999996,1.8921217395568282
429,3682.86,1.896244451924638
430,3685.57,1.6925474642924478
431,3688.2799999999997,1.7289786766602577
432,3690.9900000000002,2.0193585890280676
433,3693.7,1.982700301395878
434,3696.41,1.7842371137636879
435,3699.1200000000003,1.8821597261314977
436,3701.84,1.892937891312473
437,3704.5499999999997,1.9483106036802829
438,3707.26,1.9763443160480927
439,3709.9700000000003,2.0038140284159027
440,3712.68,1.990163740783713
441,3715.39,2.1339514531515227
442,3718.1,1.9759671655193327
443,3720.82,2.153671330700308
444,3723.5299999999997,2.296517043068118
445,3726.2400000000002,2.5853147554359275
446,3728.95,2.8663564678037377
447,3731.66,2.5335011801715477
448,3734.3700000000003,2.3502508925393575
449,3737.08,2.1222656049071675
450,3739.79,2.0870763172749776
451,3742.51,1.8632614824559526
452,3745.2200000000003,1.9589621948237628
453,3747.93,1.7544745071915728
454,3750.64,1.8275816195593828
455,3753.35,1.7953293319271926
456,3756.06,2.0550210442950028
457,3758.77,1.9773177566628126
458,3761.48,2.0362674690306224
459,3764.2,1.9513256342115977
460,3766.91,2.0650633465794077
461,3769.6200000000003,2.0446350589472178
462,3772.33,2.0257507713150273
463,3775.04,2.1228454836828377
464,3777.7500000000005,2.2350771960506473
465,3780.46,2.178838908418457
466,3783.18,2.3368110735994327
467,3785.89,2.1941157859672424
468,3788.6,2.2379654983350523
469,3791.31,2.1002032107028628
470,3794.02,2.017416923070672
471,3796.73,1.9386986354384825
472,3799.44,1.9244833478062922
473,3801.8939600000003,2.078451419703766
474,3802.15,2.094542401309415
475,3804.8700000000003,2.13478239732952
476,3807.58,2.2160769117466104
477,3810.29,2.3666194261637004
478,3812.9999999999995,2.2842639405807903
479,3815.71,2.20288645499788
480,3818.42,2.2195639694149705
481,3821.1299999999997,2.2116154838320603
482,3823.85,2.0191074798521655
483,3826.56,2.0316799942692554
484,3829.27,1.9194635086863454
485,3831.98,1.8681730231034352
486,3834.69,1.7856665375205254
487,3837.4,1.7907080519376155
488,3840.11,1.8733955663547055
489,3842.82,2.0119260807717954
490,3845.54,2.1386990767919007
491,3848.2499999999995,2.250154591208991
492,3850.96,2.2684521056260807
493,3853.67,2.2729296200431706
494,3856.3799999999997,2.2903221344602605
495,3859.09,2.301201648877351
496,3861.8,2.3225481632944405
497,3864.5099999999998,2.3714596777115307
498,3867.23,2.440655673731636
499,3869.94,2.3197031881487256
500,3872.65,2.2945077025658156
501,3875.36,2.1821772169829057
502,3878.07,2.1224147313999957
503,3880.7799999999997,2.091797245817086
504,3883.49,2.021527760234176
505,3886.21,2.056459756254281
506,3888.92,2.0690322706713706
507,3891.6299999999997,2.022749785088461
508,3894.34,2.158004299505551
509,3897.05,2.1361608139226407
510,3899.7599999999998,2.138265328339731
511,3902.4700000000003,2.299314842756821
512,3905.18,2.259622357173911
513,3907.9,2.355064353194016
514,3910.61,2.362290867611106
515,3913.32,2.436543382028196
516,3916.0299999999997,2.470052896445286
517,3918.74,2.5002494108623763
518,3921.4500000000003,2.356062925279466
519,3924.16,2.2083374396965563
520,3926.8799999999997,2.0965244357166615
521,3929.59,2.059316950133751
522,3932.3,1.9197244645508413
523,3935.0099999999998,1.8890689789679314
524,3937.7200000000003,1.9624184933850213
525,3940.43,2.027671007802111
526,3943.14,2.1789295222192013
527,3945.8500000000004,2.257588036636291
528,3948.57,2.2778710326563965
529,3951.2799999999997,2.2888245470734865
530,3953.99,2.3219950614905764
531,3956.7000000000003,2.292545575907666
532,3959.41,2.2857640903247565
533,3962.12,2.1904536047418466
534,3964.83,1.9748721191589365
535,3967.54,1.8265056335760264
536,3970.2599999999998,1.7878216295961313
537,3972.9700000000003,1.8399701440132215
538,3975.68,1.9507866584303115
539,3978.39,2.2158771728474016
540,3981.1000000000004,2.3988036872644916
541,3983.81,2.4474882016815815
542,3986.52,2.5359757160986716
543,3989.24,2.5580267121187767
544,3991.9500000000003,2.6184602265358667
545,3994.66,2.547588740952957
546,3997.37,2.6164192553700465
547,4000.08,2.674480769787137
548,4002.79,2.6195752842042266
549,4005.5,2.666942798621317
550,4008.21,2.6709313130384067
551,4010.93,2.729469309058512
552,4013.64,2.730407823475602
553,4016.3500000000004,2.805074337892692
554,4019.06,2.807405852309782
555,4021.77,2.804013366726872
556,4024.4799999999996,2.738075881143962
557,4027.19,2.643820395561052
558,4029.91,2.729057391581157
559,4032.62,2.740914905998247
560,4035.33,2.825033420415337
561,4038.04,2.7195579348324275
562,4040.75,2.7113074492495173
563,4043.46,2.722562963666607
564,4046.17,2.6364044780836973
565,4048.88,2.6763909925007874
566,4051.6000000000004,2.6962189885208923
567,4054.31,2.7152315029379825
568,4057.02,2.7119530173550723
569,4059.7299999999996,2.6432655317721623
570,4062.44,2.611594046189252
571,4065.15,2.6054525606063423
572,4067.8599999999997,2.662384075023432
573,4070.58,2.629910071043537
574,4073.29,2.5786955854606273
575,4076.0,2.566341099877717
576,4078.71,2.5446856142948073
577,4081.42,2.6270341287118972
578,4084.13,2.6773016431289873
579,4086.8399999999997,2.6806491575460774
580,4089.55,2.6777836719631676
581,4092.27,2.595114667983273
582,4094.9799999999996,2.4924621824003625
583,4097.69,2.372752696817453
584,4100.400000000001,2.320521211234542
585,4103.11,2.358360725651633
586,4105.82,2.4314462400687225
587,4108.530000000001,2.4368277544858126
588,4111.24,2.4442422689029026
589,4113.96,2.482862264923008
590,4116.67,2.4801477793400974
591,4119.38,2.4940762937571876
592,4122.09,2.524046808174278
593,4124.8,2.590957322591368
594,4127.51,2.7113008370084577
595,4130.22,2.650633351425548
596,4132.94,2.698101347445653
597,4135.650000000001,2.6925628618627426
598,4138.36,2.717148376279833
599,4141.07,2.664690890696923
600,4143.780000000001,2.642584405114013
601,4146.49,2.628948919531103
602,4149.2,2.636966433948193
603,4151.91,2.618925948365283
604,4154.63,2.681380944385388
605,4157.34,2.665637458802478
606,4160.05,2.697038973219568
607,4162.76,2.681634487636658
608,4165.47,2.6780910020537476
