,lambda (Angstroms),Total Flux (erg/s/cm^2/Angstrom)
0,100.00999999999999,20.107780472458984
1,102.10000000000001,20.044932968909368
2,104.0,19.987798457799713
3,104.712855,19.966362575615914
4,105.94,19.77252259492671
5,107.89999999999999,19.4629211792804
6,109.91000000000001,19.145426476289845
7,114.03999999999999,18.49305372457941
8,118.04,17.861216077030004
9,120.22644299999999,17.515888919932756
10,121.07,17.404191133145055
11,125.03999999999999,16.878451397030314
12,127.07,16.609621985521017
13,127.95,16.493087218672155
14,130.93,16.098452378299886
15,132.14,15.938227762370206
16,133.98,15.694563264213503
17,137.1,15.281409406813001
18,138.038426,15.157138770345087
19,139.97,14.97431094942124
20,142.9,14.697162777375437
21,146.91,14.317915084703875
22,151.02,13.928957939144743
23,154.9,13.561790073967027
24,158.489319,13.222141245932681
25,158.86999999999998,13.19491038405839
26,161.82,12.98389806965569
27,165.97,12.687055666987487
28,169.84,12.410245046581231
29,173.0,12.184229692482068
30,177.03,11.895989215640416
31,179.89999999999998,11.690730161455416
32,181.970086,11.542676825972329
33,181.99,11.541590468749945
34,185.79999999999998,11.33376589018307
35,191.0,11.05010898703405
36,194.11,10.880479678371849
37,198.17000000000002,10.659028138124732
38,201.85999999999999,10.457794296284375
39,205.14000000000001,10.278893652759606
40,208.929613,10.072140635208376
41,209.91,10.031937517013578
42,215.79000000000002,9.791076536132117
43,219.81,9.626354915478464
44,222.86,9.501333552465121
45,227.01,9.331286657725654
46,230.17,9.204082663639698
47,233.91,9.055561144170877
48,239.88329199999998,8.814689603784373
49,239.91,8.813864090971274
50,246.06,8.619063975044273
51,251.79,8.439314317180578
52,257.06,8.26940371005289
53,260.04,8.178478180937041
54,264.27,8.046097363299445
55,269.18,7.89119445022602
56,274.18,7.733358456139029
57,275.42287,7.694078414736689
58,279.28000000000003,7.6005485897601694
59,283.82,7.490857371871023
60,289.76,7.346138410579936
61,295.83000000000004,7.19930564311581
62,301.33,7.065034611179619
63,308.35,6.895467187835606
64,316.227766,6.7051843215422435
65,317.72,6.678308801696617
66,328.13,6.489917209471791
67,338.1,6.309196575602288
68,348.37,6.122984925126882
69,357.31,5.961252036270979
70,363.078055,5.857148590270436
71,365.63,5.822709306352046
72,375.01,5.695286744185391
73,384.63,5.563707766931316
74,395.4,5.418472438633356
75,404.60999999999996,5.293850023403622
76,414.04,5.1656378468437545
77,416.86938299999997,5.127058645028132
78,421.74,5.076277384200475
79,429.58000000000004,4.994660291052242
80,440.6,4.8806549592801085
81,450.86,4.773997071078468
82,460.3,4.675583898308147
83,469.94,4.575414919335064
84,478.630092,4.485348505113553
85,479.78,4.476183904886044
86,489.82,4.39535495565139
87,500.08,4.313880689700438
88,505.87,4.267156316576072
89,511.73,4.221951904951065
90,520.04,4.155261255803657
91,529.7099999999999,4.077477461500957
92,539.56,3.997747425339469
93,549.5408739999999,3.917680458040658
94,549.59,3.917379279682648
95,559.8100000000001,3.856009219410968
96,570.22,3.792871184457134
97,579.48,3.736052465737392
98,590.26,3.670278819560415
99,599.85,3.610965302182194
100,609.59,3.549541432686483
101,619.5,3.4915994247909503
102,629.56,3.4297705447779268
103,630.957344,3.421299628484221
104,639.79,3.378892004063726
105,650.1899999999999,3.328206106573769
106,657.72,3.291292943794983
107,665.3299999999999,3.2549299898047366
108,674.59,3.2102266870781015
109,685.5500000000001,3.156332601107917
110,695.09,3.1107290091411683
111,704.76,3.062898231455796
112,716.21,3.0084225093154116
113,724.43596,2.9685850887125187
114,726.17,2.9623425528908234
115,734.5799999999999,2.9320367025551555
116,744.8000000000001,2.8950233507560426
117,755.16,2.8576315496172175
118,765.67,2.8185356391858414
119,774.53,2.787805820972521
120,785.3100000000001,2.7485006718145537
121,794.4,2.7160985446859898
122,805.45,2.6764696468014315
123,814.78,2.6428597608047864
124,824.2099999999999,2.6089629052797747
125,831.763771,2.5810605884530986
126,835.6800000000001,2.5701351465450677
127,845.36,2.5450335581727286
128,855.15,2.5185418547052505
129,865.05,2.4919855061426315
130,875.0600000000001,2.4650396824848713
131,885.2,2.437683964623765
132,895.45,2.4100999016675178
133,905.8199999999999,2.382043974062028
134,914.2,2.3595895577231643
135,924.7800000000001,2.3395758594814966
136,935.4899999999999,2.319330987036482
137,944.15,2.3035341631827158
138,954.992586,2.278266381897578
139,955.0799999999999,2.2780677233232765
140,963.9200000000001,2.2577528644394533
141,975.0799999999999,2.209534581549922
142,984.1,2.1993543452001387
143,995.5,2.1679550156893264
144,1004.71,2.148794190347696
145,1014.0,2.1246647427989727
146,1025.75,2.0806131598821263
147,1035.24,2.0648503618156697
148,1044.8200000000002,2.0484327400162323
149,1054.48,2.021776416009702
150,1064.24,1.9913372767443047
151,1074.0900000000001,1.968019373745927
152,1084.03,1.9356661770145702
153,1094.06,1.9160293865502327
154,1096.4782,1.90926038495834
155,1104.18,1.8913563653684957
156,1114.3999999999999,1.8686077360228357
157,1124.71,1.842976191203485
158,1135.1200000000001,1.8248442347467013
159,1145.62,1.800590512816229
160,1156.22,1.7778683092483225
161,1164.23,1.7603402420899332
162,1175.01,1.728645897574648
163,1185.8799999999999,1.7123602875856727
164,1194.1,1.6905517509886738
165,1205.1499999999999,1.6628155000523186
166,1216.3,1.6315931874785308
167,1224.73,1.623995961442922
168,1236.06,1.6036992079217547
169,1244.63,1.58599828559374
170,1256.15,1.5603860549614494
171,1258.92541,1.5540492125447267
172,1264.85,1.5441685277316177
173,1273.6200000000001,1.5330677159983614
174,1285.4099999999999,1.5151359560057625
175,1294.32,1.4974270834922716
176,1306.29,1.4792109367822284
177,1315.3500000000001,1.4683764720042003
178,1324.46,1.4530756198046604
179,1333.64,1.4368901272150032
180,1345.98,1.420269545585769
181,1355.3100000000002,1.4052238507315749
182,1364.71,1.3888186554872637
183,1374.17,1.3742890313371376
184,1383.6899999999998,1.359595548281197
185,1396.5,1.3348273468897467
186,1406.1799999999998,1.3196131700849671
187,1415.9199999999998,1.308576794374372
188,1425.74,1.2928911767893574
189,1435.62,1.2783351202985282
190,1442.25,1.2684780362059977
191,1445.43977,1.2634714301029537
192,1445.57,1.263327122320422
193,1455.59,1.2518934425358117
194,1465.68,1.2398860861558993
195,1475.84,1.228984933180686
196,1486.07,1.21813669361017
197,1496.37,1.206768577444353
198,1503.28,1.198344187822431
199,1513.7,1.1855246017789538
200,1517.1899999999998,1.1824352286703421
201,1524.19,1.1747941891401747
202,1534.76,1.1610441732496228
203,1545.4,1.148624510763769
204,1556.11,1.1368552916826136
205,1563.29,1.1304560223359568
206,1574.1299999999999,1.1197925967206694
207,1585.04,1.1083720245100805
208,1596.03,1.0967035590477183
209,1603.39,1.0882075098845712
210,1614.5100000000002,1.076082477888077
211,1625.6999999999998,1.063679009296282
212,1633.1999999999998,1.0563040069425318
213,1644.52,1.0440719618166046
214,1655.9199999999998,1.031393153438904
215,1659.58691,1.027780680419096
216,1663.57,1.0251296756164925
217,1671.24,1.017970822794085
218,1675.1,1.0168876094831991
219,1686.7099999999998,1.0081606572709239
220,1694.4899999999998,1.001457976089916
221,1706.24,0.9921217832394218
222,1714.1200000000001,0.9853994644596862
223,1726.0,0.9763327417308463
224,1733.96,0.9712630868721287
225,1745.98,0.9618888535050703
226,1754.04,0.9565119410476252
227,1766.2,0.9463961670423479
228,1774.3500000000001,0.9402118877460476
229,1786.6499999999999,0.931407763102552
230,1794.9,0.9260370162075242
231,1803.18,0.9198005670328783
232,1815.68,0.9090978171919273
233,1824.0600000000002,0.9032660004185535
234,1836.71,0.8933866991795112
235,1845.1899999999998,0.8852915348074102
236,1853.7,0.8794592681556905
237,1866.55,0.8707664417191929
238,1875.1699999999998,0.8649872367088732
239,1883.82,0.8574056594189349
240,1896.8799999999999,0.8476488670251093
241,1905.46072,0.8418702265439532
242,1905.64,0.8417852767567936
243,1914.43,0.8366018063797279
244,1923.27,0.8306450925079121
245,1936.6,0.8224982588075381
246,1945.54,0.820463447946222
247,1954.52,0.814699828289106
248,1968.0700000000002,0.8093653112118315
249,1977.15,0.8039414145652152
250,1986.28,0.7992436544238489
251,1995.45,0.7942740454866826
252,2004.66,0.789130937753716
253,2013.9099999999999,0.7843206512249494
254,2023.21,0.7779414312014327
255,2037.2299999999998,0.7719653032735077
256,2046.63,0.7682116462604905
257,2056.08,0.7614384457527237
258,2065.5699999999997,0.7562428964491569
259,2075.11,0.7535757636508396
260,2079.89,0.7594230975527312
261,2084.68,0.7616580867556726
262,2094.31,0.7537516216668051
263,2103.97,0.747572722481088
264,2113.68,0.7459577998006205
265,2123.44,0.737073463625403
266,2133.2400000000002,0.7304466686543852
267,2143.09,0.7314820701886176
268,2152.98,0.7258839129270499
269,2162.92,0.7161078621707321
270,2172.9,0.7110552526186141
271,2182.93,0.7127331495717463
272,2187.7616199999998,0.7101831918753363
273,2193.0099999999998,0.7083426656904038
274,2203.13,0.7034141990464852
275,2213.3,0.6919218429033375
276,2223.52,0.6929602272609613
277,2233.7799999999997,0.6995424160192019
278,2244.09,0.6934914152782136
279,2254.4500000000003,0.6797385250379964
280,2264.85,0.6737103691983963
281,2275.31,0.6721853099597216
282,2285.81,0.6795910751216637
283,2296.36,0.668031100784377
284,2306.96,0.6721334869478615
285,2317.61,0.661848403612117
286,2322.95,0.6524874710944762
287,2333.67,0.6454025704598114
288,2344.45,0.6330239264260721
289,2355.27,0.6457512267929495
290,2366.14,0.6269154176605982
291,2377.06,0.629318499029018
292,2382.54,0.6162350319135365
293,2393.54,0.6163821820831901
294,2404.58,0.6123053966534606
295,2415.68,0.6121413478246567
296,2426.83,0.6264243994966238
297,2432.43,0.6243621155829929
298,2443.66,0.6291473360561939
299,2454.94,0.6280986170301658
300,2466.27,0.6160536485049093
301,2477.65,0.6053330104804235
302,2483.36,0.5860226336684893
303,2494.82,0.5878821344452376
304,2506.34,0.6017883218229112
305,2511.88643,0.5730458347954076
306,2512.12,0.5718574909293835
307,2517.91,0.5654016932642899
308,2523.71,0.5660560458795674
309,2535.3599999999997,0.5768627225119786
310,2547.07,0.5755423808266164
311,2552.94,0.604074715404492
312,2564.72,0.5832562656817282
313,2576.56,0.5942420676411913
314,2582.5,0.5850018241816651
315,2594.42,0.5757162583840976
316,2606.39,0.5650650139883859
317,2612.4,0.5590649724914579
318,2624.46,0.5704270306190868
319,2636.58,0.6089310404289427
320,2642.65,0.6415303706142417
321,2654.8500000000004,0.6909047126670668
322,2667.1,0.622049756121748
323,2673.25,0.6356959285500163
324,2685.59,0.6553243345280378
325,2697.9900000000002,0.6068147821882864
326,2704.21,0.632656536579153
327,2716.69,0.5889562064823709
328,2722.9500000000003,0.5653769419947221
329,2735.52,0.5847507044212805
330,2748.1499999999996,0.5377354085300661
331,2754.4800000000005,0.5582086460050153
332,2767.2000000000003,0.5810858626371413
333,2773.58,0.5860634615139467
334,2786.38,0.5354384903890419
335,2792.7999999999997,0.49818643038733196
336,2805.69,0.5004693917857678
337,2812.1600000000003,0.5607645131859135
338,2825.14,0.6039237471076898
339,2838.1800000000003,0.589598072711693
340,2844.72,0.5464991260744371
341,2857.85,0.5013779642017809
342,2864.4399999999996,0.5794748489663808
343,2877.6600000000003,0.6286547996170649
344,2884.0315,0.6111484759724226
345,2884.3,0.6104325129337947
346,2897.61,0.6490875606335083
347,2910.99,0.722950365158089
348,2931.16,0.6825916816947699
349,2951.48,0.6580876628561657
350,2971.94,0.6628263576672956
351,2992.5400000000004,0.6639655661281596
352,3013.2799999999997,0.6595825882387577
353,3027.19,0.6760152944373312
354,3048.18,0.6869198909224544
355,3069.31,0.7081933010573114
356,3090.58,0.6941227248419026
357,3111.9999999999995,0.7410071132512086
358,3133.57,0.7085073662852297
359,3148.0399999999995,0.7051615270827396
360,3169.8599999999997,0.7377359544912858
361,3191.83,0.688678346524547
362,3206.56,0.7200355326715628
363,3228.7900000000004,0.66423475005433
364,3251.17,0.7824987320618124
365,3273.71,0.8502373296689907
366,3288.82,0.8388022528652845
367,3311.31121,0.8016605083375052
368,3311.6200000000003,0.8011681304401417
369,3319.2500000000005,0.7624278875445873
370,3326.8999999999996,0.7689931835929504
371,3334.57,0.8128671185852305
372,3342.26,0.7815655925214281
373,3349.96,0.8152501859295843
374,3357.69,0.8283009377536165
375,3365.43,0.6783412090496073
376,3373.1800000000003,0.6766324998175566
377,3380.96,0.7818417490013819
378,3388.76,0.8032838371291247
379,3396.5699999999997,0.7393608447288259
380,3404.4,0.8650020912724444
381,3412.2400000000002,0.7810820572880217
382,3420.11,0.7933322817194748
383,3427.9900000000002,0.8124084256228865
384,3435.9,0.8279098279421744
385,3443.82,0.6894968497334206
386,3451.7599999999998,0.8031706104685843
387,3459.7099999999996,0.8173606906757067
388,3467.69,0.8077092292987049
389,3475.68,0.8089242873936617
390,3483.69,0.8123385844325359
391,3491.73,0.8202247398872861
392,3499.78,0.7452795148139948
393,3507.8399999999997,0.8737013092126622
394,3515.93,0.7737108620272055
395,3524.03,0.8265743343137074
396,3532.16,0.8430189650160854
397,3540.3,0.8737025151904219
398,3548.46,0.9037031043086757
399,3556.64,0.8296472323708468
400,3564.84,0.8535868993769353
401,3573.06,0.706309805326941
402,3581.3,0.7489201502208639
403,3589.55,0.6292911145867455
404,3597.16,0.763633032747274
405,3599.8999999999996,0.7378863680639426
406,3602.64,0.8222454033806111
407,3605.37,0.6614263192253211
408,3608.11,0.6946293545419896
409,3610.85,0.7576153898586582
410,3613.5899999999997,0.7297360251753269
411,3616.32,0.9684047410200367
412,3619.06,0.8369900763367053
413,3621.8,0.7991156116533737
414,3624.54,0.7607686469700423
415,3627.2700000000004,0.7889893628147522
416,3630.01,0.8186530981314207
417,3632.75,0.8162452334480894
418,3635.4900000000002,0.861051068764758
419,3638.22,0.865933284609468
420,3640.9599999999996,0.8712205199261365
421,3643.7000000000003,0.830579155242805
422,3646.44,0.8034375905594735
423,3649.17,0.8433251064041836
424,3651.91,0.8840961417208522
425,3654.6499999999996,0.9112927770375207
426,3657.39,1.0096527123541894
427,3660.1299999999997,0.9859289476708579
428,3662.86,0.9003611635155677
429,3665.6,0.8502723988322363
430,3668.34,0.9298070341489049
431,3671.08,0.9606116694655735
432,3673.81,0.9676155853102835
433,3676.55,0.8726704206269519
434,3679.29,0.8526070559436205
435,3682.03,0.8785238912602891
436,3684.76,0.8695954071049989
437,3687.5,0.8852637424216676
438,3690.2400000000002,0.8966377777383361
439,3692.98,0.9074410130550047
440,3695.71,0.9312183288997145
441,3698.45,0.9480739642163832
442,3701.1899999999996,0.9037146995330518
443,3703.93,0.8524732348497204
444,3706.66,0.7953277506944303
445,3709.4,0.8461976860110987
446,3712.14,0.8729446213277674
447,3714.8799999999997,0.821438056644436
448,3717.62,0.8744921919611045
449,3720.35,0.8752474078058144
450,3723.09,0.880805443122483
451,3725.83,0.8559001784391516
452,3728.57,0.8677987137558201
453,3731.3,0.88670512960053
454,3734.04,0.7937948649171986
455,3736.78,0.7226270002338671
456,3739.52,0.7208244355505358
457,3742.2499999999995,0.7851803513952458
458,3744.9900000000002,0.7267106867119142
459,3747.73,0.7204468220285828
460,3750.4700000000003,0.7728383573452513
461,3753.2,0.8281389731899613
462,3755.94,0.8215233085066298
463,3758.68,0.8161930438232985
464,3761.4199999999996,0.7961065791399671
465,3764.15,0.792215594984677
466,3766.89,0.8529998303013455
467,3769.63,0.9521958656180141
468,3772.37,0.9106610009346826
469,3775.1099999999997,0.8706076362513513
470,3777.84,0.9685863520960611
471,3780.58,0.9846924874127296
472,3783.32,0.9228104227293983
473,3786.06,0.8496942580460667
474,3788.7900000000004,0.8883368738907766
475,3791.53,0.8420583092074452
476,3794.27,0.8454317445241137
477,3797.01,0.8502346798407824
478,3799.74,0.8606158956854923
479,3801.8939600000003,0.8561537673346484
480,3802.4799999999996,0.8549631957071838
481,3805.2200000000003,0.9121966390502031
482,3807.96,0.8410231823932226
483,3810.69,0.8131419058700268
484,3813.43,0.7721780492130461
485,3816.1699999999996,0.7450999925560656
486,3818.91,0.7336312358990851
487,3821.64,0.7039683593758891
488,3824.38,0.6598344027189085
489,3827.12,0.650123746061928
490,3829.86,0.7033455894049474
491,3832.6,0.6035133327479669
492,3835.33,0.6084980562247708
493,3838.07,0.6705851995677903
494,3840.81,0.7540686429108098
495,3843.55,0.8037223862538292
496,3846.28,0.7494643097306333
497,3849.0200000000004,0.8629153530736526
498,3851.76,0.8170231964166721
499,3854.5,0.7358491397596916
500,3857.23,0.8178603632364956
501,3859.97,0.765264606579515
502,3862.7099999999996,0.8287925499225346
503,3865.4500000000003,0.8237275932655539
504,3868.18,0.8374747167423581
505,3870.92,0.7418900600853775
506,3873.66,0.7585732034283968
507,3876.3999999999996,0.8063305467714164
508,3879.13,0.8498608702482204
509,3881.87,0.8075769135912398
510,3884.61,0.8786500569342592
511,3887.35,0.8549613002772787
512,3890.09,0.830857443620298
513,3892.82,0.870698767097102
514,3895.56,0.9186751104401216
515,3898.3,0.984692953783141
516,3901.04,0.9233240971261605
517,3903.7699999999995,0.9520526206029647
518,3906.51,0.960314063945984
519,3909.25,0.9595260072890034
520,3911.9900000000002,1.000700450632023
521,3914.72,0.935992774108827
522,3917.46,0.9410264174518463
523,3920.2,0.9323414607948659
524,3922.9399999999996,0.8008582041378853
525,3925.67,0.7386686276146893
526,3928.41,0.6615004709577088
527,3931.15,0.6257015143007281
528,3933.89,0.6530194576437476
529,3936.6200000000003,0.7069014811205516
530,3939.36,0.789641424463571
531,3942.1,0.8715742678065905
532,3944.84,0.92733201114961
533,3947.58,0.9478711544926295
534,3950.3100000000004,0.9530819779694335
535,3953.05,0.926874121312453
536,3955.79,0.9176704646554723
537,3958.53,0.8999360079984917
538,3961.2599999999998,0.7565765314752959
539,3963.9999999999995,0.6503917748183152
540,3966.7400000000002,0.6945352181613347
541,3969.48,0.7456991615043542
542,3972.21,0.8412964849811582
543,3974.95,0.9433461283241777
544,3977.69,1.027002171667197
545,3980.43,1.0805694150102165
546,3983.16,1.1331041384870206
547,3985.9,1.17462458183004
548,3988.64,1.1838656251730595
549,3991.38,1.2075746685160789
550,3994.11,1.195897691992883
551,3996.85,1.1982218353359024
552,3999.59,1.1988743786789218
553,4002.33,1.2006221220219413
554,4005.07,1.2443326653649607
555,4007.8,1.2468355888417648
556,4010.5400000000004,1.2810349321847843
557,4013.28,1.3285493755278037
558,4016.02,1.316059818870823
559,4018.75,1.2872062423476271
560,4021.49,1.3155846856906468
561,4024.2299999999996,1.2730641290336662
562,4026.9700000000003,1.2697966723766854
563,4029.7,1.2540273958534895
564,4032.44,1.211737339196509
565,4035.18,1.2424784825395285
566,4037.9199999999996,1.278061325882548
567,4040.65,1.2550295493593517
568,4043.39,1.2314149927023714
569,4046.13,1.2229603360453907
570,4048.87,1.20574417938841
571,4051.6000000000004,1.2245593028652142
572,4054.34,1.2076890462082337
573,4057.08,1.1835558895512532
574,4059.82,1.1789633328942726
575,4062.5499999999997,1.1729349563710767
576,4065.29,1.1877096997140961
577,4068.03,1.2087671430571154
578,4070.7700000000004,1.181867386400135
579,4073.51,1.1953163297431544
580,4076.24,1.2327495532199584
581,4078.98,1.2955968965629778
582,4081.72,1.3610383399059973
583,4084.4599999999996,1.338172783249017
584,4087.19,1.317620206725821
585,4089.93,1.2889906500688402
586,4092.67,1.2592084934118597
587,4095.41,1.2341532367548793
588,4098.14,1.205068560231683
589,4100.88,1.2106784035747027
590,4103.62,1.236577746917722
591,4106.36,1.2505454902607416
592,4109.09,1.2478029137375457
593,4111.83,1.2595801570805651
594,4114.570000000001,1.2933766004235845
595,4117.31,1.3133390437666037
596,4120.05,1.2717984871096233
597,4122.78,1.2548758105864275
598,4125.5199999999995,1.218003953929447
599,4128.26,1.253875397272466
600,4131.0,1.2517610406154858
601,4133.73,1.2770316640922899
602,4136.47,1.2530142074353092
