,lambda (Angstroms),Total Flux (erg/s/cm^2/Angstrom)
0,100.00999999999999,36.966079058018444
1,102.11,36.849984003801396
2,104.0,36.745498455015216
3,104.712855,36.706089436037885
4,105.94,36.349732171054335
5,107.91,35.77765323011348
6,109.91000000000001,35.19686242721844
7,114.03999999999999,33.997529419265604
8,118.05,32.833043859724214
9,120.22644299999999,32.20101482458666
10,121.07,31.995637328854407
11,125.03999999999999,31.02907708377038
12,127.07,30.534840988894768
13,127.95,30.320590859645677
14,130.93,29.595062011970196
15,132.15,29.298033426107782
16,133.98,28.852490544527992
17,137.1,28.092876457088106
18,138.038426,27.864401581695997
19,139.98,27.526518090442295
20,142.91,27.01662331711273
21,146.91,26.32052140221824
22,151.03,25.60353622790161
23,154.9,24.930057480106043
24,158.489319,24.30542441718473
25,158.86999999999998,24.25533956441868
26,161.82999999999998,23.865902856548686
27,165.98000000000002,23.319902110487366
28,169.84,22.812055679611717
29,173.0,22.39630577615502
30,177.03,21.866093132520323
31,179.91,21.487181917854414
32,181.970086,21.216143841468117
33,181.99,21.214145022210026
34,185.79999999999998,20.831725626608343
35,191.01,20.308784724220462
36,194.11,19.99762997686846
37,198.17999999999998,19.58911391694552
38,201.85999999999999,19.219743360711465
39,205.14000000000001,18.890521702641895
40,208.929613,18.51014885045239
41,209.92000000000002,18.435412844766667
42,215.79999999999998,17.9917007867348
43,219.81,17.689101169784752
44,222.87,17.458189620019034
45,227.01,17.14578031170777
46,230.17,16.90733082270265
47,233.91,16.625124361978997
48,239.88329199999998,16.174387100299448
49,239.91,16.172834069114444
50,246.07,15.814624514260212
51,251.8,15.481428294787563
52,257.07,15.17496346054195
53,260.05,15.001687166916362
54,264.27,14.756297849901813
55,269.19,14.470199875056554
56,274.19,14.179449565080068
57,275.42287,14.10775823715958
58,279.28999999999996,13.935179222830014
59,283.83,13.732572686361223
60,289.77,13.467481901809986
61,295.84,13.19659799904467
62,301.34000000000003,12.951146776356484
63,307.65000000000003,12.669553674911317
64,316.227766,12.286757519839492
65,317.73,12.236686340968138
66,328.13,11.890038628741626
67,338.11,11.557389643080606
68,348.38,11.215073836698172
69,357.32,10.917090169289807
70,363.078055,10.725168181310703
71,365.64,10.661219778998358
72,375.02,10.427080053393569
73,384.64,10.186942724069038
74,395.41,9.918117919483258
75,404.62,9.688228096025783
76,414.04999999999995,9.452839778183549
77,416.86938299999997,9.382462333671622
78,421.75,9.289426567746702
79,429.59,9.139980688449759
80,440.61,8.929922345347675
81,450.87,8.734343257400909
82,460.31,8.554393628145403
83,469.95000000000005,8.370635226270078
84,478.630092,8.205178226487833
85,479.79,8.188174221622932
86,489.84,8.04082867775855
87,500.09,7.890569979722733
88,505.89000000000004,7.805529505451247
89,511.73999999999995,7.719792854486904
90,520.06,7.597817361895394
91,529.73,7.456044562996726
92,539.58,7.311623759803772
93,549.5408739999999,7.16558851804703
94,549.61,7.164815418975162
95,559.8199999999999,7.050647276095811
96,570.23,6.934239874700995
97,579.5,6.8305610605543166
98,590.27,6.710116816691668
99,599.86,6.602840354140248
100,609.61,6.49374279933646
101,619.52,6.382990392980301
102,629.58,6.270472020462544
103,630.957344,6.255069474881644
104,639.81,6.176593262982398
105,650.2099999999999,6.084381458367488
106,657.74,6.017608241849286
107,665.35,5.950156509370203
108,674.6099999999999,5.868066174597889
109,685.57,5.770864582256789
110,695.11,5.686312200721381
111,704.78,5.600538592549536
112,716.23,5.499066911548023
113,724.43596,5.426312061431305
114,726.19,5.4147684371078695
115,734.6,5.359422753422986
116,744.82,5.292155925669296
117,755.1800000000001,5.2239734944682965
118,765.6899999999999,5.154749602673752
119,774.55,5.096496549408225
120,785.33,5.025531133465292
121,794.42,4.9657230394363285
122,805.4699999999999,4.893006840545011
123,814.8,4.83160333750637
124,824.24,4.769481881159127
125,831.763771,4.71992227538625
126,835.7,4.700536012064053
127,845.38,4.652976895548001
128,855.17,4.604810798740856
129,865.07,4.5561185552426195
130,875.09,4.506833079454101
131,885.22,4.4570034474744915
132,895.47,4.406583516204601
133,905.84,4.355560919344429
134,914.22,4.314463119823094
135,924.81,4.263583974080738
136,935.52,4.212486781248101
137,944.17,4.172364575448632
138,954.992586,4.121527188242134
139,955.11,4.120988131482472
140,963.9399999999999,4.078724698222813
141,975.11,4.018352693439078
142,984.13,3.9792359411625067
143,995.52,3.9255313142012938
144,1004.7399999999999,3.8857103778542887
145,1014.03,3.8412770101326323
146,1025.77,3.77852677729816
147,1035.27,3.7351032394525467
148,1044.85,3.6976689211787614
149,1054.51,3.6510562574768013
150,1064.27,3.599633123239625
151,1074.12,3.555355750520754
152,1084.06,3.5034641193201868
153,1094.0900000000001,3.4606670396379235
154,1096.4782,3.4490442795206153
155,1104.21,3.418160697268763
156,1114.43,3.376888645763104
157,1124.74,3.334441430535771
158,1135.15,3.298769853395466
159,1145.65,3.2555530925334883
160,1156.25,3.2154872697585386
161,1164.27,3.184412680338246
162,1175.04,3.135010428311246
163,1185.91,3.0988218643712733
164,1194.13,3.0593835711250383
165,1205.18,3.0119301377417185
166,1216.3300000000002,2.9667514424454264
167,1224.76,2.940439651181953
168,1236.1,2.904074942251017
169,1244.6599999999999,2.8727102305006795
170,1256.18,2.825776944126394
171,1258.92541,2.813819884658997
172,1264.8899999999999,2.7945911426151797
173,1273.66,2.7774067025954783
174,1285.4399999999998,2.746236106058182
175,1294.35,2.7132659678283604
176,1306.33,2.6794659824194635
177,1315.3799999999999,2.6615982259795206
178,1324.5000000000002,2.6346422354345167
179,1333.6799999999998,2.604682864228034
180,1346.02,2.5767845948502552
181,1355.35,2.5497022819900708
182,1364.7500000000002,2.5194794650248253
183,1374.2099999999998,2.494865447398102
184,1383.73,2.4684938091098965
185,1396.54,2.4285640778838555
186,1406.22,2.4022981144983695
187,1415.96,2.3759587104514033
188,1425.7800000000002,2.3497417588557963
189,1435.66,2.32192453659871
190,1442.29,2.305260533505139
191,1445.43977,2.297168875634006
192,1445.61,2.2968759814664432
193,1455.6299999999999,2.2761681870375243
194,1465.72,2.253840275721377
195,1475.8799999999999,2.2342740875180027
196,1486.11,2.2153149724274
197,1496.4099999999999,2.1959415004495693
198,1503.32,2.180645527724636
199,1510.26,2.1636017463337485
200,1517.23,2.1521886062769053
201,1524.23,2.1375012475541078
202,1534.8,2.113002667582684
203,1545.4399999999998,2.0948256507240313
204,1556.15,2.072688306978151
205,1563.33,2.059324906259625
206,1574.17,2.0400186582946067
207,1585.0800000000002,2.0204994134423604
208,1596.07,1.9996880721475687
209,1603.4399999999998,1.985049099877995
210,1614.55,1.9637010839193834
211,1625.74,1.9402259115182254
212,1633.25,1.9278629154741955
213,1644.57,1.9063887888539
214,1655.97,1.8818544657910576
215,1659.58691,1.8761775265861034
216,1663.6100000000001,1.8722267630757319
217,1671.29,1.8577209269066561
218,1675.1399999999999,1.8570840695953357
219,1686.76,1.8430777680738952
220,1694.54,1.830439759636993
221,1706.29,1.813200873167378
222,1714.16,1.8006869366894318
223,1726.04,1.7844984952716427
224,1734.01,1.7760906965258698
225,1746.03,1.7592354859331234
226,1754.0900000000001,1.7507550991463066
227,1766.25,1.7313959493786037
228,1774.3999999999999,1.7209694345507431
229,1786.7,1.7052265956080828
230,1794.9499999999998,1.6967245485123958
231,1803.23,1.6855930287363607
232,1815.73,1.6655031752580471
233,1824.11,1.6551930432141861
234,1836.76,1.6367675363341325
235,1845.24,1.6226351120224445
236,1853.7500000000002,1.611290535030408
237,1866.6,1.5951262036147027
238,1875.22,1.586639760128057
239,1883.87,1.5719918839610643
240,1896.93,1.5531817937829222
241,1905.46072,1.5439361949073307
242,1905.6899999999998,1.5437718366450306
243,1914.49,1.5336964641970765
244,1923.32,1.5244375077294132
245,1936.65,1.5128455683054098
246,1945.5900000000001,1.505692700432147
247,1954.57,1.4943440438659394
248,1968.12,1.4849623116307369
249,1977.21,1.47740946365893
250,1981.76,1.470974547336408
251,1995.5,1.4566316263097157
252,2004.71,1.4491925822590728
253,2013.97,1.4389897048422482
254,2023.26,1.4318854734057145
255,2037.29,1.4158696068551695
256,2046.6899999999998,1.4084901140130366
257,2056.14,1.3959412878047224
258,2065.63,1.3875226829034621
259,2075.16,1.3826187493092577
260,2079.9500000000003,1.3760495608290637
261,2084.74,1.373678262348871
262,2094.36,1.362022056695539
263,2104.03,1.3531653476760255
264,2113.7400000000002,1.3447919499635668
265,2123.5,1.3356860588849269
266,2133.2999999999997,1.3238053891133417
267,2143.15,1.3152945759755745
268,2153.04,1.3075326441448625
269,2162.98,1.2965732489479687
270,2172.96,1.2870559650581295
271,2182.99,1.2768576978021091
272,2187.7616199999998,1.2732354130725743
273,2193.07,1.2709337645990821
274,2203.19,1.2635989132441507
275,2213.36,1.2548347756868732
276,2223.58,1.247558611927249
277,2233.84,1.2437312612057478
278,2244.15,1.2358194642819
279,2254.51,1.2270289011557054
280,2264.92,1.2214544318271647
281,2275.37,1.2160552655367467
282,2285.8700000000003,1.210819783043982
283,2296.42,1.200703164348871
284,2307.02,1.1953603194514133
285,2312.34,1.1900570735217462
286,2323.01,1.1748287939410036
287,2333.74,1.173828308917445
288,2344.5099999999998,1.1661182769320098
289,2355.33,1.1622584987442275
290,2366.2,1.1521061243540989
291,2377.12,1.1460541037616239
292,2382.6,1.1399402699844474
293,2393.6,1.1354822154682178
294,2404.65,1.127450574749642
295,2415.75,1.1215529478287194
296,2426.9,1.1175202447054502
297,2432.49,1.112877669283112
298,2443.7200000000003,1.1083262622360883
299,2455.0,1.1012362389867185
300,2466.33,1.093065709535002
301,2477.72,1.08446937464047
302,2483.4300000000003,1.0799788783325
303,2494.89,1.0651203187546827
304,2506.41,1.0680052137340497
305,2511.88643,1.0590561482125203
306,2512.19,1.0586127757742025
307,2517.98,1.0577046013604214
308,2523.7799999999997,1.0545444334847862
309,2535.4300000000003,1.0511665804242423
310,2547.13,1.0449015900544258
311,2553.01,1.0479227544839542
312,2564.79,1.0400123364193015
313,2576.6299999999997,1.0380203475835217
314,2582.57,1.0344477412419224
315,2594.49,1.0278851947113063
316,2606.4700000000003,1.0210023074095624
317,2612.4700000000003,1.017411600296836
318,2624.5299999999997,1.0149550853002562
319,2636.6499999999996,1.0154928295325494
320,2642.73,1.0189756447249865
321,2654.92,1.0228594647242975
322,2667.1800000000003,1.0026392904906265
323,2673.33,1.0035181114500824
324,2685.67,1.001514369521575
325,2698.06,0.9882727402837951
326,2704.28,0.9906935270102687
327,2716.7599999999998,0.9784010166157981
328,2723.03,0.972655136032999
329,2735.6000000000004,0.9707802644818373
330,2741.9,0.9597124335134746
331,2754.56,0.956896070805622
332,2767.27,0.9551488007884968
333,2773.6499999999996,0.9553168021252979
334,2786.45,0.9426991509514817
335,2792.8799999999997,0.92930150497901
336,2805.77,0.9266224826485029
337,2812.24,0.936633962828613
338,2825.22,0.937389289341415
339,2838.26,0.9280068950830896
340,2844.8,0.919623331030218
341,2857.9300000000003,0.9075197856152019
342,2864.52,0.9180172642530574
343,2877.74,0.9211959076813504
344,2884.0315,0.9158813064424618
345,2884.38,0.9156388587180577
346,2897.69,0.9183415854376842
347,2911.07,0.9303449205773238
348,2931.24,0.9175340424582303
349,2951.56,0.9072725180963076
350,2972.0200000000004,0.9039446305744109
351,2992.62,0.8981803798925407
352,3013.3700000000003,0.890713282967841
353,3027.2799999999997,0.8921580147161511
354,3048.2599999999998,0.8872655068857802
355,3069.3900000000003,0.8886006528125799
356,3090.6699999999996,0.881264852496551
357,3112.09,0.8869318890205475
358,3126.4500000000003,0.8764952820403699
359,3148.12,0.872119741492985
360,3169.9500000000003,0.8720655716199155
361,3191.9199999999996,0.8526164385868724
362,3206.6499999999996,0.8562286575410494
363,3228.88,0.8365552643537688
364,3251.26,0.8583231249236591
365,3266.27,0.8703682175578886
366,3288.91,0.8617921179735416
367,3311.31121,0.8482363117406171
368,3311.71,0.8480366675420206
369,3319.34,0.8488039045243582
370,3326.9900000000002,0.8531361655879077
371,3334.66,0.8599932507326692
372,3342.35,0.8468634599586427
373,3350.05,0.8582591312252217
374,3357.78,0.8550400886136189
375,3365.52,0.8193932080426221
376,3373.28,0.810661151552837
377,3381.0499999999997,0.8346799571036579
378,3388.85,0.8477533487762967
379,3396.6600000000003,0.8288309024895414
380,3404.4900000000002,0.853217880283998
381,3412.3399999999997,0.8330513821596666
382,3420.2,0.838997146075941
383,3428.0899999999997,0.8394985961140333
384,3435.99,0.8343585081927316
385,3443.91,0.8011588443526417
386,3451.8500000000004,0.8315740045937636
387,3459.81,0.8315911889160976
388,3467.7799999999997,0.8264332352790376
389,3475.78,0.826428167763795
390,3483.79,0.8245498622891588
391,3491.8199999999997,0.8264753808957345
392,3499.87,0.8075353235835219
393,3507.94,0.8412903903525212
394,3516.03,0.8091055812027323
395,3524.1299999999997,0.8146173340935496
396,3532.25,0.8294254110655787
397,3540.4,0.8374559741594256
398,3548.56,0.8448299992938785
399,3556.74,0.8221876485095432
400,3564.9399999999996,0.83015792180642
401,3573.1600000000003,0.7828385191845084
402,3581.39,0.7910003786032029
403,3589.6499999999996,0.7598622241437153
404,3597.92,0.8100481317248335
405,3606.22,0.8045997254277697
406,3614.53,0.7992042811713116
407,3619.51,0.7306462773930733
408,3622.22,0.775048890397285
409,3624.9300000000003,0.7672546034014966
410,3627.64,0.7947484164057085
411,3630.36,0.811691391450526
412,3633.0699999999997,0.8039051044547377
413,3635.78,0.7754167174589492
414,3638.5,0.8197046925037669
415,3641.2099999999996,0.8141023055079788
416,3643.92,0.8135298185121904
417,3646.63,0.818478631516402
418,3649.35,0.7871645065612196
419,3652.06,0.7989663195654313
420,3654.77,0.7992460325696431
421,3657.48,0.8407394455738546
422,3660.2000000000003,0.7415008206186722
423,3662.91,0.7646029336228839
424,3665.62,0.7948593466270957
425,3668.3300000000004,0.7915360596313072
426,3671.05,0.7972183346761249
427,3673.7599999999998,0.8204116476803366
428,3676.47,0.7880231606845483
429,3679.1800000000003,0.8138483736887598
430,3681.9,0.7636753487335776
431,3684.6099999999997,0.7484255617377893
432,3687.32,0.7821659747420009
433,3690.03,0.7876736877462125
434,3692.75,0.7777432627910301
435,3695.46,0.769187975795242
436,3698.17,0.8258461887994535
437,3700.8799999999997,0.7696244018036652
438,3703.6000000000004,0.7971937768484827
439,3706.31,0.7771717898526945
440,3709.02,0.7974043028569062
441,3711.7400000000002,0.7996897779017238
442,3714.4500000000003,0.8325582909059355
443,3717.16,0.8034438039101472
444,3719.8700000000003,0.8547472169143588
445,3722.59,0.8870169919591764
446,3725.2999999999997,0.9409761049633882
447,3728.0099999999998,0.9870397179675998
448,3730.7200000000003,0.9438030309718115
449,3733.44,0.848654406016629
450,3736.1499999999996,0.7951082190208408
451,3738.86,0.7562550320250524
452,3741.57,0.811637045029264
453,3744.29,0.7996930200740817
454,3747.0,0.7895126330782934
455,3749.71,0.782903546082505
456,3752.42,0.7988871590867168
457,3755.1400000000003,0.7929876341315343
458,3757.85,0.783140247135746
459,3760.56,0.8316492601399578
460,3763.2700000000004,0.8033987731441692
461,3765.9900000000002,0.806457048188987
462,3768.7,0.7930384611931988
463,3771.41,0.8111980741974103
464,3774.1200000000003,0.856694787201622
465,3776.84,0.8466570622464397
466,3779.5499999999997,0.8286605752506513
467,3782.26,0.879008788254863
468,3784.98,0.8139996632996807
469,3787.69,0.8462895763038923
470,3790.4,0.868309789308104
471,3793.11,0.7896460023123157
472,3795.83,0.7722996773571333
473,3798.5400000000004,0.7819413903613449
474,3801.25,0.8230860033655566
475,3801.8939600000003,0.8270178218593565
476,3803.96,0.8397844942329554
477,3806.6800000000003,0.8688775840789722
478,3809.3900000000003,0.8643824758005549
479,3812.1,0.8810650675221376
480,3814.81,0.8430654592437204
481,3817.53,0.8445440490897369
482,3820.24,0.8345355408113198
483,3822.95,0.8113202325329028
484,3825.6600000000003,0.8068330242544853
485,3828.38,0.7954816141005019
486,3831.0899999999997,0.7938640058220849
487,3833.8,0.7700976975436676
488,3836.51,0.7471279892652504
489,3839.23,0.788556179111267
490,3841.9399999999996,0.81251977083285
491,3844.65,0.8146676625544325
492,3847.36,0.8415604542760152
493,3850.0800000000004,0.8854220441220318
494,3852.79,0.8661506358436146
495,3855.5,0.8719094275651974
496,3858.22,0.8631142174112141
497,3860.9300000000003,0.8593287091327968
498,3863.64,0.9087071008543797
499,3866.35,0.9031814925759625
500,3869.07,0.866371382421979
501,3871.78,0.8578215741435617
502,3874.49,0.8568620658651446
503,3877.2000000000003,0.8484944575867273
504,3879.92,0.8333457474327439
505,3882.63,0.7920365391543267
506,3885.3399999999997,0.7766770308759097
507,3888.05,0.7694470225974922
508,3890.77,0.794925512443509
509,3893.4800000000005,0.7844612041650916
510,3896.19,0.8167681958866744
511,3898.9,0.8407992876082571
512,3901.62,0.8556391774542738
513,3904.33,0.8522776691758566
514,3907.04,0.8670299608974392
515,3909.75,0.8720357526190221
516,3912.4700000000003,0.8608147424650386
517,3915.18,0.8768116341866216
518,3917.89,0.8795739259082043
519,3920.6000000000004,0.877025017629787
520,3923.32,0.8735885074758036
521,3926.0299999999997,0.8390294991973865
522,3928.7400000000002,0.7827495909189692
523,3931.46,0.7696145807649858
524,3934.17,0.7651986724865687
525,3936.8799999999997,0.7750359642081515
526,3939.59,0.7954877559297341
527,3942.31,0.8535787457757509
528,3945.02,0.8578116374973335
529,3947.73,0.8408984292189163
530,3950.44,0.859729320940499
531,3953.16,0.8517586107865158
532,3955.8700000000003,0.8648262025080984
533,3958.58,0.8517816942296812
534,3961.29,0.7938965859512641
535,3964.01,0.7561791757972807
536,3966.7200000000003,0.7237285675188634
537,3969.43,0.7033986592404462
538,3972.1400000000003,0.742907550962029
539,3974.86,0.7747913408080456
540,3977.57,0.8270591325296284
541,3980.2799999999997,0.8452478242512111
542,3982.9900000000002,0.8666431159727938
543,3985.71,0.8668493058188105
544,3988.4199999999996,0.9016772975403933
545,3991.13,0.9115583892619761
546,3993.84,0.8671535809835588
547,3996.56,0.9110545708295755
548,3999.27,0.8931307625511582
549,4001.98,0.9155091542727409
550,4004.7,0.9192585441187577
551,4007.4100000000003,0.9314940358403404
552,4010.12,0.9093649275619232
553,4012.83,0.9186276192835059
554,4015.5499999999997,0.9372802091295227
555,4018.26,0.9144377008511053
556,4020.97,0.953229392572688
557,4023.68,0.947351184294271
558,4026.4,0.9366332741402875
559,4029.11,0.9420116658618702
560,4031.8199999999997,0.9200410575834531
561,4034.53,0.9254591493050357
562,4037.25,0.9358674391510524
563,4039.96,0.9319709308726352
564,4042.67,0.9326723225942181
565,4045.38,0.9217999143158008
566,4048.1,0.9298695041618175
567,4050.8100000000004,0.9267261958834001
568,4053.52,0.919262487604983
569,4056.23,0.9365317793265657
570,4058.9500000000003,0.9319970691725823
571,4061.6600000000003,0.9441930608941651
572,4064.37,0.9126700526157479
573,4067.08,0.8929983443373306
574,4069.8,0.9198160341833472
575,4072.5099999999998,0.9002236259049301
576,4075.22,0.9052453176265128
577,4077.94,0.8775395074725295
578,4080.65,0.8982015991941121
579,4083.3599999999997,0.903104290915695
580,4086.07,0.9116138826372777
581,4088.79,0.8995485724832943
582,4091.5,0.9223271642048771
583,4094.2099999999996,0.86934925592646
584,4096.92,0.8564829476480427
585,4099.64,0.8469148374940593
586,4102.35,0.833890129215642
587,4105.0599999999995,0.844092120937225
588,4107.77,0.8596887126588075
589,4110.49,0.8988095025048244
590,4113.2,0.923688794226407
591,4115.91,0.9001328859479898
592,4118.62,0.8969894776695726
593,4121.34,0.9195264675155892
594,4124.05,0.9062362592371719
595,4126.76,0.8984950509587547
596,4129.47,0.9097395426803374
597,4132.19,0.9101199325263541
598,4134.900000000001,0.9309961242479368
599,4137.61,0.9160807159695198
