,lambda (Angstroms),Total Flux (erg/s/cm^2/Angstrom)
0,101.98,10.348361308239411
1,104.11999999999999,10.315144556897302
2,104.712855,10.305942359472185
3,106.05,10.196919482131634
4,108.02000000000001,10.036297383161743
5,110.03,9.872414021038812
6,113.9,9.556877324921778
7,117.9,9.230741264803486
8,120.22644299999999,9.041059363499729
9,120.92999999999999,8.992966533955325
10,124.89,8.722271171439496
11,126.92,8.583505583024401
12,128.09,8.503527471825839
13,131.07,8.299822454799783
14,131.98,8.237618460774566
15,134.13,8.090650186288233
16,136.94,7.898568206622094
17,138.038426,7.823482944489322
18,140.13,7.721287837285453
19,143.06,7.578152815942356
20,147.07,7.382284499213615
21,150.84,7.198093111669459
22,155.07,6.991428575427346
23,158.489319,6.824374488754031
24,159.04000000000002,6.8040352196987355
25,162.0,6.694708842672341
26,166.16,6.541064366986597
27,170.03,6.398130824647695
28,173.19,6.28142100166141
29,176.80999999999997,6.147726265097374
30,180.10000000000002,6.026215769652155
31,181.970086,5.957148780262782
32,182.19,5.950952867583426
33,185.99999999999997,5.843612586598797
34,191.20999999999998,5.696828295055775
35,193.87,5.621894619404826
36,197.93,5.507513077895484
37,202.08,5.390600521265246
38,204.89000000000001,5.311441679579469
39,208.929613,5.197620834705551
40,210.14000000000001,5.171982520843659
41,216.03,5.047280799757619
42,220.05,4.962158343256959
43,223.11,4.897352755444517
44,227.26,4.80948389358712
45,229.89,4.754184789177733
46,234.16,4.664595745321808
47,239.88329199999998,4.543905741484559
48,240.17,4.539253235021359
49,245.76000000000002,4.447935683516321
50,252.07,4.345165429914033
51,256.76,4.268195733030558
52,259.73,4.220139883379402
53,263.95,4.151448581309409
54,268.86,4.071347898896217
55,273.85,3.9899428204722214
56,275.42287,3.9642787037104665
57,278.95,3.920119180886294
58,284.13,3.855281566996604
59,290.08,3.7806488780557452
60,296.15,3.704714284275743
61,300.96999999999997,3.6443099689034835
62,307.98,3.5565927182168573
63,316.227766,3.453389112250036
64,318.07,3.436179861410887
65,327.72999999999996,3.345859440740896
66,337.69,3.252688499304756
67,347.95,3.156692665102467
68,356.88,3.0731623796301046
69,363.078055,3.0152045946768484
70,366.03,2.994538386855177
71,375.42,2.928734463793418
72,385.04999999999995,2.861121113512828
73,394.93,2.792019721504289
74,405.06,2.7210667337678016
75,413.54,2.661612889035776
76,416.86938299999997,2.6382598650952445
77,422.2,2.6096996798041845
78,430.05,2.567655748441883
79,441.08000000000004,2.5086372519468276
80,451.36,2.453559591473648
81,459.75,2.4086077389755958
82,470.46,2.351247605783208
83,478.630092,2.3075106947856763
84,480.30999999999995,2.300593870047985
85,490.36,2.259135348338423
86,499.48,2.2216104217781045
87,506.43,2.1929315762326866
88,512.29,2.1689487581094995
89,519.4200000000001,2.139553930631969
90,530.3,2.094679640068783
91,540.16,2.0539560021208945
92,549.5408739999999,2.015278512038067
93,550.2,2.0132043822911143
94,560.4300000000001,1.981136897884324
95,569.53,1.9525773199320478
96,580.12,1.9192316326282441
97,589.55,1.8896028894370387
98,600.51,1.8550512626835274
99,610.27,1.8240293532533929
100,620.18,1.793282472532837
101,630.26,1.7615369514164683
102,630.957344,1.7593476268560273
103,640.5,1.7355990743468344
104,649.41,1.7133511114634128
105,658.4399999999999,1.690784124409844
106,664.54,1.6756349449273669
107,675.3299999999999,1.648752470711641
108,684.73,1.6252036930501186
109,694.25,1.6015602252184495
110,705.5400000000001,1.5732907331271104
111,715.35,1.5489572884675857
112,724.43596,1.5263013604346622
113,725.3,1.524701184241814
114,735.39,1.506029315516066
115,745.62,1.4870659879566603
116,754.2600000000001,1.4710548590795087
117,764.75,1.4514242822575967
118,775.39,1.4319330448996228
119,784.3700000000001,1.415246681140731
120,795.28,1.3950924638178464
121,804.4900000000001,1.3780615309036597
122,815.6800000000001,1.35734775691346
123,825.12,1.3398860578439795
124,831.763771,1.327463305841626
125,834.68,1.3233712526484258
126,844.3399999999999,1.3101570038834456
127,854.12,1.2966086107984032
128,864.0100000000001,1.2829369317533041
129,874.02,1.2690939283881435
130,884.1400000000001,1.2550936430629256
131,894.37,1.2409416807776517
132,904.73,1.2265885918123103
133,915.21,1.2124777425269069
134,925.8,1.2009890542814474
135,934.3700000000001,1.1931371907570287
136,945.19,1.1839373172314502
137,953.94,1.176571122226939
138,954.992586,1.175338411928481
139,964.98,1.1639398795210207
140,973.9100000000001,1.1359515869567667
141,985.1899999999999,1.133619771980867
142,994.3000000000001,1.1218583763850822
143,1005.82,1.1136354363671421
144,1015.12,1.1001952647380757
145,1024.52,1.0737298830914925
146,1034.0,1.0680220794308957
147,1045.97,1.0662574593341294
148,1055.65,1.052470315638499
149,1065.42,1.0329655459271034
150,1075.27,1.0240738542016945
151,1085.22,1.0043230524587685
152,1095.26,0.9984040747000775
153,1096.4782,0.9965962277230582
154,1105.4,0.9855412958963209
155,1115.6299999999999,0.9730715105995146
156,1125.95,0.9587017638191582
157,1133.75,0.9566038785781914
158,1144.24,0.9421298934400193
159,1154.83,0.9320411922090145
160,1165.52,0.9209808348851765
161,1176.3,0.899252756077789
162,1184.46,0.8988790449026234
163,1195.4199999999998,0.877659843128137
164,1203.7,0.862740356641572
165,1214.84,0.8446371918999861
166,1226.08,0.8431481310655672
167,1234.58,0.84380078317477
168,1246.0,0.8340980993732517
169,1254.6399999999999,0.8230804869524886
170,1258.92541,0.8167230899367287
171,1266.2499999999998,0.8081839758695086
172,1275.03,0.8089593987393839
173,1283.86,0.8035939727303865
174,1295.74,0.7865597051101265
175,1304.73,0.7791049346887348
176,1313.77,0.77901656538847
177,1325.9299999999998,0.7677810800465208
178,1335.12,0.7566112441096364
179,1344.3700000000001,0.7548797015181041
180,1353.6899999999998,0.7463961044961499
181,1366.22,0.7327679314505391
182,1375.69,0.7267158277919651
183,1385.22,0.7194412474787434
184,1394.82,0.7071196827350993
185,1404.49,0.7004169135610328
186,1414.23,0.6939854899565436
187,1424.03,0.6868614196974071
188,1433.8999999999999,0.678924075007848
189,1440.5200000000002,0.675339447445043
190,1445.43977,0.6718156707717009
191,1447.17,0.6709885399627211
192,1453.85,0.6662733918674298
193,1463.93,0.6582262351607625
194,1474.0700000000002,0.6524981938903648
195,1484.29,0.647383146534994
196,1494.5800000000002,0.642162938855271
197,1504.9399999999998,0.6347135508511964
198,1511.8899999999999,0.6277379072191193
199,1515.3700000000001,0.6275891725227697
200,1525.87,0.6209435138699914
201,1536.45,0.6115032691322393
202,1543.54,0.6095610448514585
203,1554.24,0.6022867409862462
204,1565.02,0.5969434910360604
205,1575.8600000000001,0.5925815365221442
206,1586.79,0.587732170162633
207,1594.11,0.5843047733875533
208,1605.1599999999999,0.5775521679005817
209,1616.29,0.5714239663286365
210,1623.75,0.5658346289048528
211,1635.0,0.5612552682054475
212,1646.34,0.5553458356604467
213,1653.94,0.5490881075879595
214,1659.58691,0.5471003353139074
215,1665.3999999999999,0.5460130000611828
216,1673.0900000000001,0.5399715715641711
217,1676.95,0.541830528092329
218,1684.69,0.5398883988508634
219,1696.3600000000001,0.5335380630953204
220,1704.1899999999998,0.5294746485138377
221,1716.01,0.5236039705249329
222,1723.9299999999998,0.5203671106034332
223,1735.8799999999999,0.5174475726789483
224,1743.8899999999999,0.5136578374174315
225,1755.98,0.5107478734084756
226,1764.0800000000002,0.5052513828069417
227,1776.3100000000002,0.5011561727135148
228,1784.51,0.49850191062307325
229,1796.8799999999999,0.4955840944451755
230,1805.17,0.49204776701471675
231,1813.5100000000002,0.4866856888398042
232,1826.08,0.4823443896840907
233,1834.51,0.4780922161691612
234,1842.9699999999998,0.47253813420755925
235,1855.75,0.4679495159251393
236,1864.3100000000002,0.46551778247462944
237,1872.9199999999998,0.4640281882796659
238,1885.9,0.45701547701943024
239,1894.61,0.4529644513355588
240,1903.3500000000001,0.4508194672050148
241,1905.46072,0.4498830675783336
242,1916.54,0.44610935269571456
243,1925.3899999999999,0.44286562455760153
244,1934.28,0.4404657830154745
245,1943.21,0.43988140806933335
246,1956.68,0.43459290676759527
247,1965.71,0.434517843311419
248,1974.78,0.4322729064512287
249,1983.9,0.4288132503360207
250,1993.0500000000002,0.4256147466678022
251,2006.8700000000001,0.4221986505809411
252,2016.1299999999999,0.4189716625516839
253,2025.44,0.416705635267409
254,2034.79,0.41369852457912015
255,2044.1799999999998,0.41234344048681726
256,2053.6099999999997,0.40826024299050034
257,2063.09,0.40564136623916563
258,2072.62,0.40501218023281355
259,2077.39,0.40739772930413576
260,2086.98,0.40801169819176236
261,2096.62,0.4030859578243715
262,2106.29,0.4000505199039701
263,2116.02,0.3989229468775476
264,2125.7799999999997,0.3949215562981146
265,2135.6,0.3900781906126604
266,2145.4500000000003,0.39100475737419554
267,2155.36,0.38885038902970975
268,2165.3,0.38337512313221334
269,2175.3,0.3806240421286958
270,2185.34,0.3810379677211643
271,2187.7616199999998,0.38049428075187774
272,2195.43,0.379473533542271
273,2205.56,0.3765369643036235
274,2215.74,0.3699178959374407
275,2225.97,0.36964705844372264
276,2236.24,0.37384330364797635
277,2246.56,0.3700373097246948
278,2256.93,0.362838146673878
279,2267.35,0.36012247449552587
280,2272.58,0.3610382397553357
281,2283.07,0.3649799247984342
282,2293.61,0.3582542207139974
283,2304.19,0.3602152493275324
284,2314.83,0.35401380698802504
285,2325.51,0.3452124773464895
286,2336.25,0.34371897675191165
287,2347.0299999999997,0.33734301885530554
288,2352.44,0.3450242912559883
289,2363.3,0.33510060875532577
290,2374.21,0.3362326671271279
291,2385.17,0.3283505363713948
292,2396.18,0.3289546864881265
293,2407.24,0.32627245747732275
294,2412.79,0.3272762043209068
295,2423.92,0.3342967025315537
296,2435.11,0.3319013897891583
297,2446.35,0.33463281791922767
298,2457.6400000000003,0.33395139692176157
299,2463.31,0.32862602185926104
300,2474.68,0.3233364162577386
301,2486.1,0.3137363015286809
302,2497.58,0.3134894258465809
303,2503.34,0.3225737043545168
304,2511.88643,0.3100129100297164
305,2514.8900000000003,0.30574490586974906
306,2520.69,0.30316830199111205
307,2526.5,0.30269511364027046
308,2532.32,0.30820327081722426
309,2544.0099999999998,0.3074010828101093
310,2555.75,0.3213614324419715
311,2567.55,0.3106811552406064
312,2573.47,0.3174734976955148
313,2585.3500000000004,0.3118980747165133
314,2597.28,0.3071663493764892
315,2603.2699999999995,0.3025083305259658
316,2615.2799999999997,0.29863890940830523
317,2627.36,0.30449514698521285
318,2633.41,0.3244122413014622
319,2645.5699999999997,0.34048030310073346
320,2657.78,0.36516616253898193
321,2663.91,0.32879425107759486
322,2676.2000000000003,0.3358538947382069
323,2682.37,0.34554421538800173
324,2694.75,0.3224707187987729
325,2707.19,0.3346052353763169
326,2713.43,0.31380333472067984
327,2725.96,0.3016369210483828
328,2732.2400000000002,0.3122009625039275
329,2744.85,0.28697898305399416
330,2757.52,0.29550589677083355
331,2763.88,0.30720199244874186
332,2776.6400000000003,0.3092533959157403
333,2783.04,0.2860984137048305
334,2795.88,0.2655305513941926
335,2802.33,0.26811342682226
336,2815.2599999999998,0.29730636426178125
337,2821.75,0.3199993718010304
338,2834.78,0.31406395451850605
339,2847.8599999999997,0.2932660448749591
340,2854.43,0.2714792266365719
341,2867.6000000000004,0.31073994674318395
342,2874.21,0.3347108106159786
343,2884.0315,0.32617638998067494
344,2887.48,0.3233241093901677
345,2894.14,0.34223933035384224
346,2907.49,0.3788319942224691
347,2927.65,0.35802735876115943
348,2947.94,0.346720345045387
349,2968.38,0.3510038410360037
350,2988.9500000000003,0.3509461587721575
351,3009.67,0.3499849862147004
352,3030.53,0.3566567293832064
353,3051.54,0.3604376822581016
354,3072.69,0.37098165085895973
355,3086.87,0.36654201510293943
356,3108.27,0.38843313321444606
357,3129.8199999999997,0.3736112610323419
358,3151.51,0.3712992045762007
359,3173.36,0.38567295180687455
360,3188.01,0.3598065331308732
361,3210.1000000000004,0.37501923589176955
362,3232.35,0.345035642339481
363,3247.27,0.40317966113498005
364,3269.7799999999997,0.4358180110737658
365,3292.4500000000003,0.4288525646993665
366,3307.64,0.41269382096636587
367,3311.31121,0.4094916238179053
368,3322.91,0.39971498229573943
369,3330.5699999999997,0.41977414523595125
370,3338.25,0.386526683014127
371,3345.95,0.4179984956302668
372,3353.66,0.3938581956653886
373,3361.3900000000003,0.3932455705384744
374,3369.14,0.3955589202495242
375,3376.9100000000003,0.386757444798538
376,3384.69,0.3764673567665338
377,3392.4900000000002,0.41699014357249364
378,3400.3100000000004,0.43620170521641743
379,3408.1499999999996,0.40929004169830524
380,3416.0099999999998,0.387960553018157
381,3423.88,0.4439012517569908
382,3431.7799999999997,0.43189421275277057
383,3439.69,0.4260448611675324
384,3447.6200000000003,0.35725638442025814
385,3455.56,0.406034695091966
386,3463.53,0.36848066802061974
387,3471.5099999999998,0.4150430283682556
388,3479.52,0.35939855097283735
389,3487.54,0.3901345609964011
390,3495.58,0.3773961458579289
391,3503.64,0.4349937055574207
392,3511.71,0.4236914526758945
393,3519.81,0.41902026205131426
394,3527.92,0.3586150588457161
395,3536.05,0.4148765304780818
396,3544.21,0.4402889643673936
397,3552.38,0.44592498567568745
398,3560.57,0.4267837818219452
399,3568.77,0.370212565387185
400,3577.0,0.38105191120937076
401,3585.25,0.33032823186952054
402,3593.5099999999998,0.38572803994865235
403,3601.8,0.45490901028473013
404,3610.1,0.39264396803978996
405,3618.42,0.4323893006328137
406,3626.4,0.5387881609804495
407,3629.1400000000003,0.4178664137815174
408,3631.88,0.34224646658258534
409,3634.62,0.4190697193836532
410,3637.36,0.4925402721847212
411,3640.1099999999997,0.5040817124047712
412,3642.8500000000004,0.5337480652058391
413,3645.59,0.471957618006907
414,3648.3300000000004,0.34015927080797487
415,3651.07,0.36397342360904283
416,3653.81,0.5817091764101108
417,3656.55,0.5212772292111787
418,3659.29,0.6834875820122466
419,3662.03,0.6345508348133145
420,3664.77,0.5617438876143825
421,3667.5099999999998,0.42321354041545045
422,3670.25,0.4740853932165183
423,3672.99,0.5128871460175863
424,3675.73,0.5091214988186542
425,3678.47,0.6181229516197222
426,3681.2200000000003,0.547594691839772
427,3683.96,0.51108514464084
428,3686.7,0.4771792974419079
429,3689.44,0.33269265024297584
430,3692.18,0.2824583030440438
431,3694.92,0.45652075584511165
432,3697.66,0.37796620864617964
433,3700.3999999999996,0.36012756144724756
434,3703.14,0.4806066142483155
435,3705.8799999999997,0.4941012670493834
436,3708.6200000000003,0.38473581985045135
437,3711.36,0.3200799726515193
438,3714.1000000000004,0.4312932254525872
439,3716.84,0.4731952782536551
440,3719.58,0.484965631054723
441,3722.32,0.513177883855791
442,3725.0699999999997,0.520591324075841
443,3727.81,0.5905171768769089
444,3730.55,0.5975588296779768
445,3733.2900000000004,0.3773516824790447
446,3736.03,0.26005293528011264
447,3738.77,0.3536224880811806
448,3741.51,0.33567064088224846
449,3744.25,0.4276987936833164
450,3746.9900000000002,0.4045827464843843
451,3749.73,0.29846559928545224
452,3752.47,0.3568005520865202
453,3755.21,0.2895496048875881
454,3757.95,0.38417305768865606
455,3760.69,0.39671851048972395
456,3763.43,0.27216516329079193
457,3766.1699999999996,0.2914074160918598
458,3768.92,0.3374965563119098
459,3771.66,0.5264330091129777
460,3774.4,0.45917356191404557
461,3777.14,0.36305401471511356
462,3779.88,0.4521386675161815
463,3782.62,0.44684022031724946
464,3785.3599999999997,0.4992533731183174
465,3788.1,0.4969420259193853
466,3790.8399999999997,0.5766042787204532
467,3793.58,0.4881480315215211
468,3796.32,0.40557008432258906
469,3799.0600000000004,0.553411537123657
470,3801.8,0.5088288899247249
471,3801.8939600000003,0.5016869509850005
472,3804.54,0.3006150283610202
473,3807.28,0.34370570866602723
474,3810.02,0.4728456889710343
475,3812.77,0.5389594633647458
476,3815.5099999999998,0.45578514366975276
477,3818.2500000000005,0.49683802397475973
478,3820.9900000000002,0.5668292042797668
479,3823.73,0.5788304845847738
480,3826.4700000000003,0.5068030648897808
481,3829.21,0.31688824519478787
482,3831.9500000000003,0.37444372549979493
483,3834.69,0.375332805804802
484,3837.43,0.227820426109809
485,3840.17,0.292507366414816
486,3842.91,0.4118849467198231
487,3845.65,0.4985271270248301
488,3848.39,0.33054860732983715
489,3851.1299999999997,0.37552908763484416
490,3853.88,0.46642766202855557
491,3856.62,0.48968894233356264
492,3859.36,0.37952702263856963
493,3862.1,0.3097116029435767
494,3864.84,0.4660477832485837
495,3867.58,0.5986882635535907
496,3870.3199999999997,0.4049677438585978
497,3873.06,0.3387663241636048
498,3875.7999999999997,0.3087226044686119
499,3878.54,0.3878665847736189
500,3881.2799999999997,0.3533902650786259
501,3884.0200000000004,0.4552723453836329
502,3886.76,0.43730742568863995
503,3889.5,0.446783205993647
504,3892.2400000000002,0.36890338629865405
505,3894.98,0.4298901666036611
506,3897.73,0.29514214099737246
507,3900.47,0.4417160213023795
508,3903.2099999999996,0.5105838016073866
509,3905.9500000000003,0.5188925819123936
510,3908.69,0.4417271622174006
511,3911.4300000000003,0.38545344252240765
512,3914.17,0.4956956228274147
513,3916.9100000000003,0.5155693031324217
514,3919.65,0.5370540834374288
515,3922.39,0.45350516374243577
516,3925.13,0.4642784440474428
517,3927.87,0.5019960243524498
518,3930.61,0.4815056046574569
519,3933.35,0.557053084962464
520,3936.0899999999997,0.49014616526747096
521,3938.83,0.509619245572478
522,3941.58,0.28719351996618947
523,3944.32,0.3901464002711964
524,3947.06,0.39404868057620346
525,3949.8,0.33733956088121053
526,3952.54,0.5117634411862175
527,3955.2799999999997,0.3557683214912246
528,3958.02,0.4132629017962316
529,3960.7599999999998,0.46095168210123866
530,3963.5,0.5078914624062457
531,3966.24,0.5105919427112527
532,3968.9799999999996,0.5578627230162597
533,3971.7200000000003,0.47737920332126677
534,3974.46,0.29281108362627384
535,3977.2000000000003,0.29039956393128086
536,3979.94,0.2765275442362879
537,3982.69,0.2966177186299993
538,3985.43,0.44987969893500634
539,3988.1699999999996,0.44748567924001337
540,3990.91,0.5305309595450205
541,3993.65,0.5677172398500274
542,3996.3900000000003,0.5322307201550345
543,3999.13,0.6494921004600416
544,4001.8700000000003,0.7155383807650485
545,4004.61,0.5385208610700556
546,4007.35,0.5767173413750626
547,4010.09,0.4858097216800696
548,4012.83,0.5728873019850766
549,4015.57,0.7060330822900837
550,4018.31,0.6777834625950907
551,4021.0499999999997,0.6139681429000978
552,4023.79,0.7932868232051048
553,4026.54,0.6546443975988162
554,4029.28,0.5881470779038233
555,4032.02,0.6691633582088303
556,4034.76,0.7238188385138373
557,4037.5,0.6165917188188443
558,4040.24,0.7480304991238513
559,4042.98,0.6587514794288585
560,4045.72,0.6586652597338654
561,4048.46,0.6261136400388725
562,4051.2,0.7040559203438794
563,4053.9399999999996,0.5725578006488865
564,4056.68,0.6120606809538935
565,4059.42,0.6610731612589006
566,4062.1600000000003,0.6362895415639076
567,4064.9,0.6316662218689146
568,4067.6400000000003,0.6512526021739216
569,4070.39,0.6816867765676331
570,4073.1299999999997,0.6999407568726401
571,4075.87,0.5922606371776472
572,4078.6099999999997,0.5828475174826542
573,4081.3500000000004,0.5916527977876612
574,4084.09,0.6089923780926683
575,4086.8300000000004,0.6586144583976753
576,4089.57,0.6472419387026823
577,4092.31,0.6661664190076894
578,4095.05,0.6940869993126964
579,4097.79,0.7295838796177034
580,4100.53,0.6855892599227105
581,4103.2699999999995,0.6450343402277176
582,4106.01,0.6389915205327246
583,4108.75,0.6416050008377316
584,4111.5,0.599488475231443
585,4114.24,0.61087125553645
586,4116.9800000000005,0.672624335841457
587,4119.72,0.7244931161464641
588,4122.46,0.687979296451471
589,4125.2,0.7310437767564782
590,4127.94,0.7353902570614853
591,4130.68,0.7214575373664922
592,4133.42,0.6803280176714992
593,4136.16,0.6655765979765063
