,lambda (Angstroms),Total Flux (erg/s/cm^2/Angstrom)
0,102.07000000000001,3.115983990001773
1,103.97,3.107102635424388
2,104.712855,3.1036302379397362
3,105.9,3.074481136039028
4,108.12,3.019971365507199
5,109.87,2.9770019849841884
6,114.0,2.875594197447627
7,118.0,2.7773784378153885
8,120.22644299999999,2.7227110761520303
9,121.02999999999999,2.7061693457609133
10,125.0,2.624443573552983
11,127.03,2.5826543083395532
12,127.91,2.564538807104234
13,130.89,2.5031930036385384
14,132.1,2.478284405991474
15,133.94,2.440406496888897
16,137.06,2.3761791386083098
17,138.038426,2.3560374675706144
18,139.93,2.328204189326972
19,142.86,2.2850967480551074
20,146.85999999999999,2.226252689347443
21,150.97,2.1657785705808177
22,154.84,2.1088364304046516
23,158.489319,2.0551413688147844
24,159.18,2.047458469565705
25,162.14,2.0145326488898903
26,165.92,1.972486298065032
27,170.17999999999998,1.9250998029846362
28,172.94,1.8943994206402954
29,176.97,1.8495718003210944
30,179.84,1.8176477376944427
31,181.93,1.7943998931805394
32,181.970086,1.7939539989858257
33,186.16,1.7583988458742599
34,190.94,1.717837225729829
35,194.04000000000002,1.6915318622980853
36,198.10999999999999,1.6569948123281835
37,201.79,1.6257681207037267
38,205.07000000000002,1.5979350103356234
39,208.929613,1.5651812930232185
40,209.84,1.559373068555273
41,216.22,1.5186766940079932
42,220.23999999999998,1.4930327678077322
43,222.79,1.4767654417654024
44,226.93,1.4503564029402083
45,230.09,1.4302534185403017
46,233.83,1.4065076548315516
47,239.83,1.3682947104848933
48,239.88329199999998,1.3679545661079395
49,245.98,1.3379647848166738
50,252.29000000000002,1.3069646343195025
51,256.97999999999996,1.2838506443152664
52,259.95,1.269296076594886
53,264.18,1.2485183008688903
54,269.09,1.2243789820446258
55,274.09,1.1997962290985316
56,275.42287,1.1932430997203702
57,279.19,1.1790291328988252
58,283.72,1.1619369808159279
59,290.33,1.1369789544905529
60,295.72999999999996,1.1166108644341195
61,301.23,1.0958521186025667
62,308.25,1.069368320309203
63,316.227766,1.0392720962216764
64,318.34000000000003,1.0333209917351012
65,328.02,1.0060384788155883
66,337.98,0.9779631847996426
67,348.25,0.9490132699983616
68,357.19,0.9238145903051334
69,363.078055,0.9072188957985624
70,366.35,0.900312445465432
71,374.88,0.8823036117511838
72,385.39,0.8601035595430069
73,395.27,0.8392557050238074
74,405.41,0.8178505089488394
75,413.90000000000003,0.7999237743354786
76,416.86938299999997,0.7936533707046651
77,421.6,0.786023620588366
78,430.41999999999996,0.7718004089181386
79,441.46999999999997,0.7539844134697243
80,450.71,0.7390828562009146
81,460.15,0.7238590871470656
82,469.78,0.7083299927224296
83,478.630092,0.6940607957285769
84,479.62,0.6928331835173406
85,489.66,0.6803767039180421
86,499.92,0.6676554762520259
87,505.7,0.6604887495900793
88,511.56,0.653271908458417
89,519.87,0.6429685839792167
90,529.54,0.6309768766148527
91,539.38,0.6187643482398432
92,549.41,0.6063567075117591
93,549.5408739999999,0.6061947392053991
94,559.62,0.5966840851964142
95,570.03,0.5868565257892495
96,580.63,0.5768178494353643
97,590.0600000000001,0.5679341484586531
98,599.65,0.5588640418320721
99,609.39,0.5496637522212378
100,619.29,0.5403591723605337
101,629.36,0.5308543039843425
102,630.957344,0.529344448193771
103,639.58,0.522884120701396
104,649.98,0.5151274928596526
105,657.5,0.5095091344710075
106,665.12,0.5038246084117687
107,674.37,0.49689695548185275
108,685.3299999999999,0.48866938910478486
109,694.86,0.4816494860572065
110,704.53,0.4743662412507971
111,715.9699999999999,0.4659091964148795
112,724.43596,0.4595879421411042
113,725.9300000000001,0.45876103910883936
114,734.34,0.4541121766116646
115,744.56,0.4485103191301989
116,754.9100000000001,0.44280695825317634
117,765.41,0.4369943720735883
118,774.28,0.4321660260152124
119,785.0500000000001,0.4262376187910063
120,794.14,0.42124484995553446
121,805.1899999999999,0.415161864833206
122,814.51,0.41002887236713353
123,825.84,0.4038512663466828
124,831.763771,0.4004072088448838
125,835.4,0.39880410668114813
126,845.08,0.39511329700568953
127,854.86,0.39109818046581507
128,864.76,0.3871121098886416
129,874.78,0.383068696274169
130,884.91,0.3790119822088389
131,895.15,0.37486595369265135
132,905.52,0.37057784855272313
133,916.0,0.36715017096193747
134,924.48,0.3799189876594697
135,935.1800000000001,0.39876707016696894
136,946.01,0.43372239805072765
137,954.7700000000001,0.4645295603278953
138,954.992586,0.46474815301383227
139,965.82,0.4754786021263746
140,974.7599999999999,0.3615555181617933
141,986.05,0.4478345262423165
142,995.17,0.4499844270301262
143,1004.38,0.4998357001941314
144,1016.01,0.48735179725139316
145,1025.4099999999999,0.3889334454318112
146,1034.9,0.42952346598842445
147,1044.47,0.5306054286572116
148,1054.1399999999999,0.522173893966216
149,1063.8899999999999,0.47286010138739415
150,1076.21,0.4997829866621546
151,1086.17,0.45322082962778887
152,1096.22,0.5006442449696187
153,1096.4782,0.5002333128971859
154,1103.82,0.4890902014023282
155,1114.03,0.47707092479032254
156,1124.3400000000001,0.45386312715371346
157,1134.74,0.4966909405949613
158,1145.24,0.4725254330116059
159,1155.8400000000001,0.48075940440364706
160,1163.8500000000001,0.4844815903329159
161,1174.62,0.41409991598313134
162,1185.49,0.4694306206087433
163,1193.71,0.40165313238634504
164,1204.75,0.3578543912701313
165,1215.9,0.31894271702685384
166,1224.33,0.3875284346527884
167,1235.6499999999999,0.4551357946676853
168,1244.22,0.473199882859175
169,1255.7299999999998,0.4584069329273255
170,1258.92541,0.4460558620456543
171,1264.44,0.42526815365842896
172,1276.14,0.47684053521709
173,1284.98,0.48569668128363397
174,1293.89,0.43002969954753734
175,1305.8600000000001,0.4244125452960136
176,1314.9099999999999,0.4710444079546361
177,1324.03,0.457700342810618
178,1336.28,0.4280367773485324
179,1345.54,0.46433625659923333
180,1354.87,0.4536682080472938
181,1364.26,0.425795307093091
182,1373.72,0.43366307833624773
183,1386.4299999999998,0.43272884445681037
184,1396.04,0.3993494846943088
185,1405.71,0.40347007252954403
186,1415.46,0.40777925716176155
187,1425.27,0.41031198939171587
188,1435.15,0.4064948938190296
189,1441.77,0.4159558787693147
190,1445.43977,0.4167935800042755
191,1448.43,0.41769066413437617
192,1455.1100000000001,0.4099119817179253
193,1465.2,0.3912210016906814
194,1475.36,0.3890694152608699
195,1485.58,0.3906626804860005
196,1495.8799999999999,0.39181578125105376
197,1506.25,0.37888927561353947
198,1513.2,0.35629332564432786
199,1516.69,0.3674160635734576
200,1523.69,0.36073122331669766
201,1534.25,0.3354988145864999
202,1544.8899999999999,0.3466428413962249
203,1555.6000000000001,0.33564956180338223
204,1566.3799999999999,0.33802037580797206
205,1573.61,0.34749320022849006
206,1584.52,0.3535971594854542
207,1595.5,0.3552159123398509
208,1606.56,0.34909560073417023
209,1613.9800000000002,0.34786402206200473
210,1625.1599999999999,0.33651761376620826
211,1636.43,0.3454165829528248
212,1643.9799999999998,0.3463111495330338
213,1655.3799999999999,0.33070376397202483
214,1659.58691,0.33551328835201716
215,1666.85,0.34417758770862006
216,1670.69,0.3239826571000524
217,1678.4099999999999,0.34370475077241136
218,1686.1499999999999,0.3499263218895172
219,1693.9399999999998,0.33716108661849076
220,1705.68,0.32829434668500546
221,1713.5500000000002,0.31822712119296714
222,1725.43,0.31569242337271114
223,1733.3899999999999,0.32507754638203457
224,1745.41,0.3192386906750078
225,1753.46,0.32855576218569293
226,1765.62,0.3125720485918956
227,1773.77,0.31515560732631587
228,1786.06,0.3165258971233743
229,1794.3100000000002,0.3259327430815298
230,1806.75,0.322786513714191
231,1815.08,0.30799536945133477
232,1823.46,0.31017521880034604
233,1836.1,0.3020700638804777
234,1844.5800000000002,0.2878575004532242
235,1853.09,0.2875743531930914
236,1865.94,0.290025311443067
237,1874.5500000000002,0.30069535140666925
238,1883.1999999999998,0.28657424625976574
239,1896.26,0.27836631767958525
240,1905.01,0.28621669975641695
241,1905.46072,0.2858526080874137
242,1913.8,0.2793748827139291
243,1927.07,0.2747727006070726
244,1935.9599999999998,0.27854495818582503
245,1944.8999999999999,0.2839091607453354
246,1953.88,0.27249105928945205
247,1967.42,0.2845826000786882
248,1976.5,0.28796948858432064
249,1985.62,0.27825247307455936
250,1994.79,0.272834002545556
251,2004.0,0.276323428001159
252,2013.25,0.2705593494413683
253,2027.2,0.27544039907281903
254,2036.56,0.2664887594706956
255,2045.96,0.27060221585317856
256,2055.4,0.26113606822026786
257,2064.89,0.261683065568115
258,2074.42,0.27178555890056844
259,2079.2,0.26389867906102255
260,2084.0,0.2684371972137798
261,2093.62,0.2595785315115974
262,2103.2799999999997,0.2597778617940214
263,2112.99,0.2603290370572032
264,2122.74,0.2612416083049914
265,2137.46,0.25016603064011356
266,2147.32,0.2519746408455691
267,2157.23,0.2558727960317825
268,2167.19,0.25028419619875375
269,2177.19,0.24843549235033138
270,2187.2400000000002,0.24495603348266687
271,2187.7616199999998,0.24522026170051925
272,2197.34,0.25033587254743145
273,2207.48,0.24573766665884805
274,2212.57,0.23900121222365184
275,2222.78,0.23468737611690269
276,2233.04,0.2413296612828923
277,2243.35,0.23535456772162058
278,2253.7,0.22957907117853993
279,2264.11,0.23139062016274572
280,2274.56,0.23355746616514253
281,2285.06,0.23545613344027805
282,2295.6,0.22749049773360458
283,2306.2,0.22721920755421762
284,2316.85,0.22163973864756936
285,2327.54,0.19782076675911212
286,2332.9,0.2129359671967051
287,2343.67,0.20888378934462987
288,2354.49,0.21562043276529336
289,2365.36,0.20665969745869556
290,2376.28,0.20843588342483652
291,2387.25,0.20036919066371622
292,2392.75,0.2059534306649777
293,2403.79,0.20122310768569163
294,2414.89,0.20266593023369206
295,2426.04,0.2073415740544312
296,2437.23,0.20248731489336136
297,2442.85,0.20751654594919583
298,2454.13,0.20500940507905574
299,2465.46,0.20332418548165437
300,2476.83,0.198777562902444
301,2482.54,0.20028331224920817
302,2494.0,0.19134600796092754
303,2505.52,0.20275444919993338
304,2511.29,0.19137684407398406
305,2511.88643,0.19162534044082516
306,2517.08,0.19386541153296372
307,2522.88,0.18968880359178492
308,2534.5299999999997,0.19019214281338273
309,2546.23,0.18802933713893588
310,2552.1,0.19398882634329462
311,2563.88,0.1907497888351763
312,2575.71,0.19510480643101338
313,2587.6,0.1933433501515969
314,2593.56,0.19157657854307525
315,2605.54,0.18760116145077838
316,2617.56,0.1856618284416458
317,2623.6,0.18911652499945275
318,2635.71,0.19142913117743982
319,2647.87,0.19838859245938223
320,2653.98,0.20036448616272667
321,2666.23,0.18969898663178872
322,2672.37,0.19336939339750636
323,2684.71,0.19288033305368807
324,2697.1,0.1871981278138251
325,2703.32,0.18925570274587133
326,2715.7999999999997,0.18369653669312802
327,2722.06,0.1827068957083385
328,2734.62,0.1862113978219238
329,2747.2400000000002,0.17366187606025546
330,2753.58,0.17524065324179455
331,2766.29,0.17778682066724588
332,2772.6600000000003,0.18117686091115814
333,2785.46,0.1753615675237291
334,2791.88,0.15891287287159675
335,2804.77,0.16327398867128737
336,2817.71,0.1774218095749333
337,2824.2099999999996,0.18112267308912955
338,2837.25,0.17663508420068622
339,2843.79,0.1737358317980467
340,2856.91,0.16948198107593193
341,2863.5,0.17730301377724775
342,2876.72,0.17702400326304374
343,2883.35,0.17601849004752385
344,2884.0315,0.17597864091834217
345,2896.66,0.17539935908019733
346,2910.03,0.1821460983859136
347,2930.2,0.1772208232771849
348,2950.51,0.17441960669521767
349,2970.9600000000005,0.17510364864001182
350,2991.55,0.1740479491115674
351,3012.2900000000004,0.17373030514751023
352,3033.17,0.1729073197102145
353,3047.17,0.1720276723863572
354,3068.29,0.17169981585208105
355,3089.56,0.17087061488219213
356,3110.98,0.17028476947669047
357,3132.54,0.16747478259795023
358,3147.0,0.16708279900488046
359,3168.82,0.16648483510441142
360,3190.7799999999997,0.16087082973070388
361,3212.9,0.1628592769590093
362,3227.7299999999996,0.15777882375809477
363,3250.1000000000004,0.16255765692704563
364,3272.63,0.16462638269800958
365,3287.7400000000002,0.16322820655061787
366,3310.5299999999997,0.16138415529985303
367,3311.31121,0.16139998776247597
368,3325.81,0.1618219530022774
369,3333.4700000000003,0.1631580743998977
370,3341.1600000000003,0.157934152017091
371,3348.86,0.1648694150408086
372,3356.58,0.1602792488775748
373,3364.32,0.15087888352738962
374,3372.0699999999997,0.15095496358372879
375,3379.85,0.15960088985964083
376,3387.64,0.1599414215420772
377,3395.45,0.15739762403756216
378,3403.27,0.16112321193957146
379,3411.1200000000003,0.15475435606115365
380,3418.98,0.15624698558926017
381,3426.86,0.15776798593041533
382,3434.77,0.16152574249114338
383,3442.6800000000003,0.15393279905187146
384,3450.62,0.15589081183217246
385,3458.57,0.15433601001899777
386,3466.5499999999997,0.15279146442539598
387,3474.54,0.1563981042383185
388,3482.5499999999997,0.15249441486428966
389,3490.58,0.15633659630330943
390,3498.62,0.14991173314885353
391,3506.69,0.15508548621397053
392,3514.77,0.15029201468561182
393,3522.8700000000003,0.15502097397030173
394,3530.99,0.14953448406804032
395,3539.14,0.1549539303853518
396,3547.29,0.15721943670266325
397,3555.47,0.15537119923954765
398,3563.67,0.15378153258948066
399,3571.88,0.14786113134593798
400,3580.12,0.14636867632196823
401,3588.3700000000003,0.1385727667045228
402,3596.64,0.146949117900126
403,3604.9300000000003,0.15113171990877775
404,3613.24,0.14486824273047816
405,3617.0299999999997,0.15157586180319113
406,3619.77,0.15681756319085166
407,3622.5099999999998,0.1536092645785122
408,3625.2400000000002,0.13908517055964842
409,3627.98,0.14744735194730899
410,3630.7200000000003,0.17517808333496954
411,3633.45,0.14859908931610577
412,3636.19,0.1509396007037663
413,3638.9300000000003,0.13193304209142684
414,3641.66,0.13666213807256308
415,3644.3999999999996,0.14162125946022364
416,3647.14,0.14621699084788417
417,3649.87,0.16497373682902042
418,3652.61,0.16967323821668095
419,3655.35,0.1519644396043415
420,3658.0800000000004,0.1466228155854777
421,3660.82,0.15823805697313828
422,3663.56,0.15339755836079882
423,3666.29,0.15386417434193506
424,3669.0299999999997,0.1553221757295956
425,3671.77,0.15327327711725613
426,3674.5,0.14311542309839237
427,3677.24,0.14872629448605293
428,3679.98,0.15435449587371347
429,3682.71,0.1507259118548497
430,3685.4500000000003,0.13470715324251023
431,3688.19,0.1449727446301708
432,3690.9199999999996,0.13584734061130704
433,3693.6600000000003,0.13913377199896756
434,3696.4,0.1463942733866281
435,3699.13,0.13752843936776435
436,3701.87,0.14137434075542488
437,3704.6099999999997,0.15071705214308545
438,3707.34,0.14928026812422168
439,3710.08,0.15449316951188222
440,3712.82,0.15097347089954277
441,3715.55,0.147264176880679
442,3718.2900000000004,0.15607628826833952
443,3721.03,0.18095768965600006
444,3723.7599999999998,0.2616505056371363
445,3726.5,0.3247269070247969
446,3729.24,0.3347095084124574
447,3731.9799999999996,0.27420840980011796
448,3734.71,0.2024613257812542
449,3737.45,0.16948482716891472
450,3740.19,0.16261392855657528
451,3742.92,0.14136443453771153
452,3745.6600000000003,0.14367608592537207
453,3748.4,0.1418002273130326
454,3751.1299999999997,0.15207236329416884
455,3753.8700000000003,0.14429010468182937
456,3756.61,0.16263066606948992
457,3759.3399999999997,0.14628971205062619
458,3762.08,0.14176062343828671
459,3764.8199999999997,0.14622369482594727
460,3767.55,0.1606372008070835
461,3770.29,0.151499502194744
462,3773.03,0.14838350358240457
463,3775.76,0.16677111956354082
464,3778.5,0.17089382095120134
465,3781.2400000000002,0.1526486223388619
466,3783.97,0.1461188383199981
467,3786.7099999999996,0.1628271397076587
468,3789.45,0.17041064109531923
469,3792.18,0.16265225707645545
470,3794.92,0.158976858464116
471,3797.66,0.15134455985177656
472,3800.3900000000003,0.16257417583291278
473,3801.8939600000003,0.16217452941356456
474,3803.13,0.16185377014819016
475,3805.87,0.17801962488499007
476,3808.6,0.15675833197676514
477,3811.3399999999997,0.174285486713565
478,3814.0800000000004,0.1635325414503649
479,3816.81,0.16680214854213996
480,3819.5499999999997,0.18054540327893984
481,3822.29,0.14673815801573972
482,3825.02,0.15531996510751478
483,3827.76,0.13547684984431466
484,3830.5,0.14423099458111455
485,3833.2300000000005,0.13310957167288962
486,3835.9700000000003,0.13461348640968948
487,3838.71,0.13010145114648938
488,3841.44,0.14595079823826443
489,3844.18,0.16260695297506433
490,3846.9199999999996,0.17258960771186418
491,3849.65,0.16584041480363926
492,3852.39,0.15577376954043914
493,3855.13,0.17055532427723902
494,3857.86,0.1666612313690141
495,3860.6000000000004,0.17424448610581397
496,3863.34,0.16166884084261385
497,3866.0699999999997,0.17958894793438895
498,3868.81,0.1659924026711888
499,3871.55,0.1749483574079887
500,3874.2799999999997,0.17688566449976376
501,3877.02,0.15877851923656364
502,3879.7599999999998,0.16319527397336353
503,3882.4900000000002,0.14958208106513857
504,3885.23,0.13892723580193847
505,3887.9700000000003,0.15955749053873833
506,3890.7000000000003,0.1616446976305134
507,3893.44,0.15949165236731327
508,3896.1800000000003,0.15983040710411317
509,3898.91,0.15645531419588823
510,3901.6499999999996,0.1739305689326881
511,3904.39,0.170589323669488
512,3907.12,0.15637063076126306
513,3909.86,0.15995098549806294
514,3912.6,0.17228114023486282
515,3915.34,0.1642333949716627
516,3918.07,0.16809130206343775
517,3920.81,0.17596865680023765
518,3923.55,0.16318541153703753
519,3926.2799999999997,0.1528312186288126
520,3929.0199999999995,0.1505974733656125
521,3931.76,0.13886405810241237
522,3934.49,0.13324521519418744
523,3937.23,0.1449582899309873
524,3939.97,0.15423154466778718
525,3942.7000000000003,0.15856245175956224
526,3945.44,0.16100070649636214
527,3948.18,0.158709261233162
528,3950.9100000000003,0.1566146683249371
529,3953.65,0.15975662306173696
530,3956.3900000000003,0.16353877779853684
531,3959.12,0.16222288489031192
532,3961.8599999999997,0.1507143396271118
533,3964.6,0.14281655436391166
534,3967.33,0.13946453145568674
535,3970.07,0.1451674561924866
536,3972.81,0.1485863109292865
537,3975.54,0.14699921802106158
538,3978.28,0.15136977275786145
539,3981.02,0.16808362749466133
540,3983.75,0.17420833458643642
541,3986.49,0.17064218932323627
542,3989.2300000000005,0.17642004406003617
543,3991.96,0.18341575115181125
544,3994.7,0.1896838058886111
545,3997.44,0.186359960625411
546,4000.17,0.17591346771718608
547,4002.91,0.18439652245398594
548,4005.65,0.18306827719078583
549,4008.38,0.1757364842825609
550,4011.1200000000003,0.18030883901936076
551,4013.86,0.18198569375616064
552,4016.5899999999997,0.18680120084793572
553,4019.33,0.1907448555847356
554,4022.0699999999997,0.18443311032153548
555,4024.8,0.18304231741331053
556,4027.54,0.18591897215011044
557,4030.28,0.1786440268869103
558,4033.01,0.17672253397868537
559,4035.75,0.18139298871548526
560,4038.4900000000002,0.18657664345228514
561,4041.22,0.1777048505440602
562,4043.9599999999996,0.1767689052808601
563,4046.7,0.18800316001765996
564,4049.43,0.182390267109435
565,4052.17,0.1835538218462349
566,4054.91,0.1835060765830348
567,4057.6400000000003,0.17421318367480984
568,4060.38,0.17651303841160973
569,4063.12,0.18130449314840963
570,4065.85,0.1834667002401847
571,4068.59,0.18005625497698458
572,4071.3300000000004,0.17699770971378442
573,4074.06,0.1729651168055595
574,4076.7999999999997,0.16919137154235941
575,4079.54,0.17071252627915925
576,4082.27,0.17179033337093436
577,4085.01,0.1808154881077342
578,4087.75,0.1838305428445341
579,4090.48,0.17734664993630916
580,4093.2200000000003,0.17230390467310905
581,4095.96,0.16994325940990893
582,4098.69,0.179782566501684
583,4101.429999999999,0.1805192212384839
584,4104.17,0.17867767597528375
585,4106.9,0.16981738306705885
586,4109.64,0.1669318378038587
587,4112.38,0.1727327925406586
588,4115.12,0.17143344727745846
589,4117.85,0.1747030543692335
590,4120.59,0.1773778091060334
