,lambda (Angstroms),Total Flux (erg/s/cm^2/Angstrom)
0,100.05999999999999,99.44601972552317
1,101.92,99.16937406537991
2,104.05,98.8525701642482
3,104.712855,98.75398093895035
4,105.99000000000001,97.75617419304913
5,107.96,96.2170542893383
6,109.97,94.64668322007122
7,114.09,91.42781316764439
8,118.1,88.2948838205059
9,120.22644299999999,86.63353826452406
10,121.13000000000001,86.04168987312198
11,125.10000000000001,83.44125834096842
12,127.13000000000001,82.11156665073293
13,128.01,81.5351485781318
14,131.0,79.57663717235097
15,131.9,78.98711868907853
16,134.05,77.57882453445349
17,136.85,75.74476703094876
18,138.038426,74.9663235942589
19,140.04000000000002,74.02919070892291
20,142.97,72.65737065679741
21,146.98,70.77989680207153
22,151.1,68.85092116640612
23,154.97,67.03899502519836
24,158.489319,65.39125701797582
25,158.95,65.22819149239007
26,161.9,64.1839910591741
27,166.06,62.7114914678898
28,169.93,61.341642091777665
29,173.08,60.22664841587588
30,177.11999999999998,58.79662478471713
31,179.99,57.78074166506206
32,181.970086,57.07985806171613
33,182.07999999999998,57.05017661602011
34,185.89000000000001,56.021314895024204
35,191.1,54.61439375508143
36,194.2,53.777262183747574
37,197.81,52.80240897840769
38,201.95999999999998,51.681732860964644
39,204.76999999999998,50.922913623905416
40,208.929613,49.79964158951774
41,210.02,49.578269291230015
42,215.9,48.38450138535321
43,219.92000000000002,47.56835394460979
44,222.98,46.947107383050515
45,227.12,46.10659737011357
46,229.75,45.57265092187668
47,234.01999999999998,44.70574952047431
48,239.88329199999998,43.51537516529503
49,240.03,43.49242268411511
50,246.18,42.530253359191036
51,251.92,41.632229564949824
52,257.19,40.80773567341313
53,260.16999999999996,40.34151518761536
54,263.79,39.775166106768744
55,268.69,39.008560366141495
56,273.69,38.22630963267817
57,275.42287,37.95520188114171
58,278.78,37.55211649833696
59,283.96000000000004,36.93016208802566
60,289.90999999999997,36.21575440532269
61,295.98,35.486939526092314
62,300.79,34.90941041296468
63,307.79,34.06893224107942
64,316.227766,33.05582424493761
65,317.88,32.90765334682076
66,328.28999999999996,31.974093414327324
67,338.27000000000004,31.07909568467678
68,347.74,30.229834716914805
69,356.66,29.429897734114203
70,363.078055,28.85433328643344
71,365.81,28.67085618603788
72,375.2,28.040223940769586
73,384.82000000000005,27.39414349935197
74,394.69,26.731277592158154
75,404.82,26.05094890676466
76,414.24999999999994,25.417630774262577
77,416.86938299999997,25.241713130421047
78,421.95000000000005,24.98114150145785
79,429.79,24.579048630240685
80,440.82000000000005,24.013350694126608
81,451.09000000000003,23.486629524577566
82,459.47,23.05684143986998
83,470.17,22.508066856672826
84,478.630092,22.074172849897437
85,480.02000000000004,22.01934883147056
86,490.07,21.622929524097263
87,500.33,21.218231580312576
88,506.13,20.98945353875535
89,511.99,20.758332514452018
90,520.3100000000001,20.4301563363582
91,529.98,20.048729989276925
92,539.83,19.660196819357324
93,549.5408739999999,19.277173395151706
94,549.87,19.267270556863636
95,560.09,18.959768947675098
96,570.5,18.64654802887337
97,579.77,18.36761039085079
98,590.5500000000001,18.043267624928625
99,600.15,17.75440862070945
100,609.9,17.461042244500913
101,619.8100000000001,17.16290318889705
102,629.88,16.859917896697876
103,630.957344,16.82750189221161
104,640.12,16.608951847397474
105,650.52,16.360917269049935
106,658.0500000000001,16.18132708755811
107,665.67,15.999593382860011
108,674.93,15.778723119358647
109,684.32,15.554740676170432
110,695.4399999999999,15.289622111072685
111,705.11,15.058941608820502
112,716.5699999999999,14.785707407687925
113,724.43596,14.598110449913262
114,726.54,14.560865092406178
115,734.95,14.412001130156984
116,745.1800000000001,14.230985860547205
117,755.54,14.047629467433099
118,764.29,13.892768239911046
119,774.9200000000001,13.704689677480255
120,785.7,13.51393453442909
121,794.8,13.35289777412616
122,805.86,13.157161840450286
123,815.1899999999999,12.992048778062776
124,824.63,12.825098258286985
125,831.763771,12.698567426953847
126,834.1800000000001,12.6665149923115
127,845.78,12.513457199224451
128,855.5799999999999,12.383857127702635
129,865.48,12.253038834093855
130,875.51,12.120513465472035
131,885.64,11.986726086763257
132,895.9,11.851151640041437
133,904.1899999999999,11.741489915132673
134,914.6600000000001,11.60483033292824
135,925.25,11.49667347501946
136,935.96,11.402709981406328
137,944.62,11.371481196075823
138,954.992586,11.30689561644367
139,955.5600000000001,11.303524796594147
140,964.4,11.226003374251787
141,975.57,10.843355763893848
142,984.6,10.92916554853734
143,995.9999999999999,10.802249667688594
144,1005.22,10.81741035931794
145,1014.52,10.68692819599396
146,1023.9,10.33995587771666
147,1035.76,10.298059955886295
148,1045.34,10.449511850225683
149,1055.02,10.322897600873413
150,1064.78,10.082887296567817
151,1074.63,10.051415742939732
152,1084.57,9.81174723998916
153,1094.6100000000001,9.834918893346925
154,1096.4782,9.807825070010178
155,1104.74,9.707398186782951
156,1114.96,9.582509655424376
157,1125.28,9.423999486968357
158,1135.69,9.46243010512464
159,1146.2,9.295642386183484
160,1154.14,9.259428560646585
161,1164.82,9.176237838639778
162,1175.6,8.858474579535528
163,1183.75,8.969390556094002
164,1194.7,8.643344293924098
165,1205.76,8.39729647094701
166,1214.1100000000001,8.200410073310598
167,1225.3500000000001,8.326742523558114
168,1233.84,8.49545909398529
169,1245.26,8.460153517457407
170,1253.89,8.33958505594816
171,1258.92541,8.238777188123215
172,1265.49,8.127338833946503
173,1274.2600000000002,8.276930148306992
174,1286.05,8.242210736255702
175,1294.97,7.978892112549379
176,1303.94,7.907688076154121
177,1316.01,8.020077953044783
178,1325.1299999999999,7.917128178582715
179,1334.32,7.747264626356134
180,1343.57,7.849297578902831
181,1356.0,7.730884584433147
182,1365.3999999999999,7.560093998913033
183,1374.86,7.545448318166195
184,1384.39,7.4924718596548425
185,1393.99,7.307472723378981
186,1403.6499999999999,7.274934191876398
187,1413.3799999999999,7.221356482609301
188,1426.46,7.157544123183438
189,1436.3500000000001,7.082782393311743
190,1442.98,7.0912006707587265
191,1445.43977,7.087671713906888
192,1446.3000000000002,7.08840104611383
193,1456.3300000000002,7.012924969823572
194,1466.4199999999998,6.88880494851064
195,1476.5900000000001,6.839286067167475
196,1483.4,6.8265113070940275
197,1493.69,6.798125735705516
198,1504.0400000000002,6.69656701929433
199,1510.98,6.561616211671758
200,1517.9599999999998,6.588410874034071
201,1524.96,6.527771821388825
202,1535.53,6.364592739894502
203,1546.18,6.39658169836995
204,1553.31,6.316340098175577
205,1564.08,6.275932366605678
206,1574.9199999999998,6.279928132509326
207,1585.84,6.271270638382743
208,1596.83,6.240960541729705
209,1604.2,6.187073161444638
210,1615.3200000000002,6.139081417242475
211,1626.52,6.031843913010083
212,1634.03,6.057720927672113
213,1645.35,6.020164533394372
214,1656.76,5.88461832158262
215,1659.58691,5.90513127860934
216,1664.4,5.947664625982306
217,1672.09,5.809154666086373
218,1675.9399999999998,5.918834710871897
219,1683.6799999999998,5.940132998310841
220,1695.35,5.83329552627111
221,1703.17,5.770664209445857
222,1714.98,5.683821729943781
223,1726.8700000000001,5.64197894617751
224,1734.84,5.680515171356888
225,1746.8600000000001,5.618127230661295
226,1754.93,5.662356450510427
227,1763.03,5.542855318760486
228,1775.2499999999998,5.533486767404402
229,1783.44,5.5239294808572375
230,1795.8,5.560495622038808
231,1804.0900000000001,5.522338630161398
232,1816.6,5.399079513347601
233,1824.98,5.39397096667297
234,1833.41,5.323150167333216
235,1846.12,5.1971499398589245
236,1854.6399999999999,5.178391585721949
237,1863.2,5.183752429452875
238,1876.11,5.216999891318091
239,1884.77,5.108531829718771
240,1893.4699999999998,5.045661465987352
241,1905.46072,5.054189625990917
242,1906.6,5.056124676988531
243,1915.3999999999999,5.002905959543703
244,1924.24,4.9635275302013975
245,1933.1200000000001,4.9571827889616165
246,1946.52,4.985403203306994
247,1955.51,4.903259104349152
248,1969.06,4.968105449078991
249,1978.1499999999999,4.971113570377459
250,1982.71,4.904197014065138
251,1996.4499999999998,4.843088877281964
252,2005.6699999999998,4.8468789849136344
253,2014.93,4.788312780647827
254,2024.23,4.811283264484542
255,2033.5700000000002,4.742577436423782
256,2042.96,4.765510218491176
257,2057.12,4.685913806784498
258,2066.61,4.664985809108201
259,2076.15,4.718530421560058
260,2085.73,4.697761722114439
261,2095.36,4.6137636327969735
262,2105.0299999999997,4.5924982315820335
263,2114.75,4.583562440495245
264,2124.51,4.574809337510981
265,2134.32,4.465036844654872
266,2144.17,4.481598039901287
267,2154.0699999999997,4.494754845275857
268,2164.01,4.432784338752948
269,2174.0,4.400822442358194
270,2184.03,4.368772234065965
271,2187.7616199999998,4.3790569200499885
272,2194.11,4.402113806778006
273,2204.2400000000002,4.353171087096384
274,2214.42,4.2762767695881
275,2224.64,4.2300566738184875
276,2234.9,4.298104299787545
277,2245.22,4.230824508364609
278,2255.58,4.165641438680344
279,2266.0,4.170102451604086
280,2276.46,4.187089186266497
281,2286.96,4.2078016426675795
282,2297.52,4.1255791816766685
283,2302.81,4.1280541316158805
284,2313.44,4.062241433667643
285,2324.12,3.8314720378927447
286,2334.85,3.946988344291184
287,2345.63,3.8883922528629618
288,2356.45,3.967221483173412
289,2367.33,3.853562196091867
290,2372.79,3.88330981342043
291,2383.7400000000002,3.782427189381558
292,2394.74,3.829257567516026
293,2405.7999999999997,3.7745019282584997
294,2416.9,3.7812362107396438
295,2422.47,3.8469688128495525
296,2433.66,3.7915641192427056
297,2444.8900000000003,3.834300747374529
298,2456.17,3.802646277679693
299,2467.5099999999998,3.775508090592863
300,2473.2000000000003,3.7251789579187817
301,2484.6099999999997,3.726895333874626
302,2496.08,3.6562293924384743
303,2507.6,3.755354753175663
304,2511.88643,3.6480992957800753
305,2513.39,3.6111789822505784
306,2519.18,3.6182829462324313
307,2524.99,3.5751427109534273
308,2536.64,3.5804191915041335
309,2542.4900000000002,3.5643205577034145
310,2554.22,3.628950841210692
311,2566.01,3.5822492269353976
312,2577.86,3.6299447148775315
313,2583.8,3.6127818344029565
314,2595.73,3.580960225301662
315,2607.7099999999996,3.5293023680482256
316,2613.72,3.503903340160649
317,2625.79,3.550423036233355
318,2637.9,3.579226333784346
319,2643.98,3.68013235848377
320,2656.19,3.7019661597304756
321,2662.31,3.568994585908186
322,2674.6,3.610986190111462
323,2686.9500000000003,3.5999508965321674
324,2693.14,3.530859775296878
325,2705.5699999999997,3.557343284674155
326,2718.06,3.4735688962688593
327,2724.33,3.465319577990141
328,2736.9,3.5084389925414174
329,2743.21,3.330475675740985
330,2755.8700000000003,3.3490656436184034
331,2762.2200000000003,3.389080128296256
332,2774.98,3.428043199869391
333,2787.78,3.3296596729208097
334,2794.2099999999996,3.106106760555234
335,2807.1099999999997,3.1510907373023676
336,2813.58,3.372255626415077
337,2826.5699999999997,3.4350027564883536
338,2833.08,3.387086847079349
339,2846.16,3.339345130478768
340,2852.7200000000003,3.27444297291762
341,2865.89,3.386066409643182
342,2872.49,3.3827596535603206
343,2884.0315,3.3629150540189743
344,2885.7500000000005,3.3606493126754122
345,2892.4,3.351927767137834
346,2912.45,3.4547667313440824
347,2932.6400000000003,3.384238736696907
348,2952.97,3.34879078319631
349,2966.6,3.367670574823799
350,2987.16,3.3576579032068645
351,3007.8700000000003,3.362281632818406
352,3028.72,3.346317403576524
353,3049.71,3.33623721548122
354,3070.85,3.3351554286143914
355,3092.14,3.3311350429760385
356,3113.57,3.3179076984842624
357,3127.95,3.28949749625413
358,3149.63,3.2852711538098136
359,3171.46,3.274848212593973
360,3193.44,3.1850196726066087
361,3208.18,3.226102433324818
362,3230.42,3.1396342554668104
363,3252.81,3.2170114788372794
364,3267.83,3.2649573218486436
365,3290.48,3.24124390734847
366,3311.31121,3.222452299119891
367,3313.29,3.2212236499000984
368,3320.9300000000003,3.2165079660072706
369,3328.58,3.245241453994165
370,3336.25,3.2817712857405024
371,3343.94,3.175959461246282
372,3351.65,3.197445980511505
373,3359.38,3.2228018435361703
374,3367.12,3.1911758784405575
375,3374.89,3.056237428984109
376,3382.6699999999996,3.1006981514073817
377,3390.46,3.2138040457103756
378,3398.28,3.202130455652534
379,3406.11,3.163674037474414
380,3413.9599999999996,3.185662963055737
381,3421.8399999999997,3.2324644042762243
382,3429.72,3.1895008454967115
383,3437.6299999999997,3.2087528023563623
384,3445.55,3.024218931095735
385,3453.5,3.2376985754742726
386,3461.46,3.089913391732531
387,3469.4399999999996,3.1244105517502327
388,3477.44,3.0574820555273767
389,3485.45,3.1078097311842425
390,3493.4900000000002,3.0830489224802724
391,3501.5400000000004,3.094534285656023
392,3509.61,3.099488992591218
393,3517.7000000000003,3.0484810432858547
394,3525.81,3.082783437739935
395,3531.22,2.597574124669229
396,3533.87,3.515728972795408
397,3536.5099999999998,3.2626933490418653
398,3539.1600000000003,2.8752808971680444
399,3541.8100000000004,2.991037445294223
400,3544.4500000000003,3.5287468215406808
401,3547.1000000000004,3.38561836966686
402,3549.75,3.077525917793039
403,3552.3900000000003,3.2159772940394964
404,3555.04,3.089327842165676
405,3557.68,3.0508782184121337
406,3560.33,2.6511247665383126
407,3562.98,3.1594333146644917
408,3565.62,3.060429690910949
409,3568.27,3.066981239037128
410,3570.91,3.2874766152835857
411,3573.56,2.8462151634097648
412,3576.21,2.910532711535944
413,3578.85,3.1758560877824014
414,3581.5000000000005,3.32597663590858
415,3584.1400000000003,3.2582690121550377
416,3586.7900000000004,2.913398560281217
417,3589.44,2.9493661084073963
418,3592.0800000000004,3.0027344846538533
419,3594.73,3.0156140327800327
420,3597.37,3.2661834090264907
421,3600.02,3.0344649571526694
422,3602.67,2.7730495052788484
423,3605.31,3.242339881525306
424,3607.96,3.0203954296514848
425,3610.6,2.6844988058979427
426,3613.25,3.0357373540241217
427,3615.9,3.0496819021503008
428,3618.54,3.0605082783967585
429,3621.19,3.2678318265229374
430,3623.83,3.098719202769395
431,3626.4800000000005,3.171933750895574
432,3629.1299999999997,3.152609299021753
433,3631.7700000000004,3.2750846752682103
434,3634.42,3.2528462233943896
435,3637.06,2.8589025996408473
436,3639.71,3.0845521477670266
437,3642.36,2.9084706958932056
438,3645.0,3.131785072139663
439,3647.65,2.832401620265842
440,3650.29,3.0109189965122996
441,3652.94,3.0370185446384785
442,3655.59,3.0485820927646574
443,3658.23,2.916841469011115
444,3660.88,3.2847450171372943
445,3663.52,2.9832463933837516
446,3666.17,3.2917549415099305
447,3668.8199999999997,3.10498948963611
448,3671.4599999999996,2.988693865882568
449,3674.1099999999997,3.0619084140087467
450,3676.7499999999995,3.0655927902552045
451,3679.4,2.985902338381383
452,3682.05,3.2760208865075624
453,3684.69,3.0429082627540196
454,3687.34,3.1143998108801987
455,3689.98,3.3042591871266564
456,3692.63,3.241953735252835
457,3695.28,2.9460472833790146
458,3697.92,3.011006659625472
459,3700.57,3.292855207751651
460,3703.21,3.125215583998109
461,3705.86,2.9682111321242877
462,3708.5099999999998,2.9761096802504667
463,3711.1499999999996,2.979136056496925
464,3713.7999999999997,2.9206536046231037
465,3716.4399999999996,3.448525980869561
466,3719.0899999999997,3.4281985289957406
467,3721.7400000000002,3.590943077121919
468,3724.38,3.8773834533683766
469,3727.03,4.352953001494556
470,3729.67,4.591529377741013
471,3732.32,4.1682459258671924
472,3734.9700000000003,3.6248894739933712
473,3737.61,3.234142850239829
474,3740.26,3.344541398366008
475,3742.9,3.4256657746124657
476,3745.55,3.2514623227386448
477,3748.2,3.2468928708648237
478,3750.8399999999997,3.281246247111282
479,3753.49,3.2140857952374606
480,3756.1299999999997,3.338253171483918
481,3758.7799999999997,3.302857719610097
482,3761.43,3.336286267736276
483,3764.0699999999997,3.351218643982734
484,3766.7200000000003,3.2353451921089125
485,3769.36,3.1526315683553703
486,3772.01,3.062603116481549
487,3774.6600000000003,3.257300664607728
488,3777.3,3.347134040854186
489,3779.9500000000003,3.5232875889803648
490,3782.59,3.7448179652268228
491,3785.2400000000002,3.5952685133530013
492,3787.89,3.547561061479181
493,3790.5299999999997,3.6411234377256383
494,3793.18,3.5391269858518175
495,3795.8199999999997,3.2713673620982755
496,3798.47,3.1600999102244542
497,3801.12,3.033606458350633
498,3801.8939600000003,3.0745634178202446
499,3803.7599999999998,3.17368137737445
500,3806.41,3.5103747204460776
501,3809.0499999999997,3.6017029112796983
502,3811.7000000000003,3.6711802543513246
503,3814.3500000000004,3.5482505974229515
504,3816.9900000000002,3.6196547882565726
505,3819.6400000000003,3.6266361313281994
506,3822.28,3.6164973221618206
507,3824.9300000000003,3.5019946652334473
508,3827.58,3.395354008305075
509,3830.22,3.2707791991386954
510,3832.87,3.025926542210322
511,3835.5099999999998,2.949781733043943
512,3838.16,2.89555207611557
513,3840.81,3.061547419187197
514,3843.45,3.3691846100208176
515,3846.1,3.5298539530924447
516,3848.74,3.6880641439260655
517,3851.39,3.6634994869976927
518,3854.0400000000004,3.614311830069319
519,3856.6800000000003,3.84964902090294
520,3859.3300000000004,3.967212363974567
521,3861.9700000000003,3.961867554808188
522,3864.6200000000003,4.146719897879815
523,3867.27,4.035129240951442
524,3869.91,4.164364431785063
525,3872.56,3.9532807748566894
526,3875.2,3.7074099656903106
527,3877.85,3.6102613087619373
528,3880.5,3.5360126518335644
529,3883.14,3.456641842667185
530,3885.79,3.350346185738812
531,3888.43,3.143131376572433
532,3891.08,3.2869797196440595
533,3893.7300000000005,3.4242790627156867
534,3896.37,3.3298402535493077
535,3899.0200000000004,3.5561395966209344
536,3901.6600000000003,3.617237787454555
537,3904.31,3.783608130526183
538,3906.96,3.79491147359781
539,3909.6,3.81309266443143
540,3912.25,4.0808990075030565
541,3914.89,4.1972901983366775
542,3917.54,3.9021555414083045
543,3920.19,3.8637448844799316
544,3922.83,3.7217210753135523
545,3925.48,3.95202941838518
546,3928.12,3.4538226092188005
547,3930.77,3.2917979522904273
548,3933.42,3.179018295362054
549,3936.06,3.232439486195675
550,3938.7100000000005,3.4674788292673018
551,3941.35,3.4669260201009227
552,3943.9999999999995,3.5996213631725498
553,3946.65,3.7394897062441768
554,3949.29,3.7569498970777975
555,3951.94,3.9363522401494246
556,3954.58,3.7682024309830453
557,3957.23,3.6252857740546722
558,3959.88,3.658988117126299
559,3962.52,3.47830830795992
560,3965.17,3.101664651031547
561,3967.81,3.0091668418651674
562,3970.46,2.965086184936794
563,3973.11,2.983785528008421
564,3975.75,3.2048037188420424
565,3978.4,3.4979220619136693
566,3981.04,3.53677825274729
567,3983.6899999999996,3.7882005958189175
568,3986.3399999999997,3.809371938890544
569,3988.9799999999996,3.732697129724165
570,3991.63,4.054979472795791
571,3994.27,3.9655856636294127
572,3996.92,4.10307300670104
573,3999.57,4.103756349772667
574,4002.21,4.179078540606287
575,4004.86,4.283921883677914
576,4007.51,4.144419226749541
577,4010.15,3.863777417583162
578,4012.8,4.178509760654789
579,4015.44,4.47258595148841
580,4018.09,4.297526294560036
581,4020.74,4.1582746376316635
582,4023.3799999999997,4.407145828465285
583,4026.0299999999997,4.2849971715369115
584,4028.6699999999996,4.324920362370532
585,4031.3199999999997,4.23597770544216
586,4033.9700000000003,4.235722048513786
587,4036.61,4.073181239347407
588,4039.26,4.208349582419034
589,4041.9,4.326526773252654
590,4044.55,4.0635971163242814
591,4047.2000000000003,4.207567459395909
592,4049.84,4.04095465022953
593,4052.4900000000002,4.081860993301156
594,4055.13,4.062326184134777
595,4057.78,4.170960527206404
596,4060.43,4.349108870278031
597,4063.0699999999997,4.301976061111652
598,4065.72,4.119148404183279
599,4068.3599999999997,3.9801965950169
600,4071.0099999999998,4.019818938088527
601,4073.66,4.066302281160153
