,lambda (Angstroms),Total Flux (erg/s/cm^2/Angstrom)
0,102.06,5.297291993665142
1,103.96000000000001,5.282193558640951
2,104.712855,5.276210963334024
3,105.89,5.227074522340072
4,108.11,5.134407181264004
5,110.11999999999999,5.050505678696746
6,113.99,4.8889639767268855
7,118.0,4.72157839712265
8,120.22644299999999,4.6286423530075504
9,121.02,4.600870862303047
10,124.99,4.46193561324536
11,127.02,4.390893153385531
12,127.89999999999999,4.3600964453428706
13,130.88,4.255807530833739
14,132.09,4.213462160512391
15,133.93,4.149069038794163
16,137.05,4.039880909236647
17,138.038426,4.005289717176615
18,139.92,3.958222681410635
19,142.85,3.884933008026754
20,146.85,3.784883585258035
21,150.96,3.68207494330821
22,154.84,3.5850201541663322
23,158.489319,3.493735729364589
24,159.17000000000002,3.480863408054769
25,162.13000000000002,3.42488728249629
26,165.91000000000003,3.3534051749167446
27,170.17000000000002,3.272845151258528
28,172.93,3.2206521946861613
29,176.96,3.1444423983289753
30,179.84,3.0899802401869407
31,181.92,3.050646504449361
32,181.970086,3.0496993541476862
33,186.15,2.9893973494585233
34,190.92999999999998,2.920439069432029
35,194.03,2.8757176515186536
36,198.10000000000002,2.8170022836322866
37,201.78,2.7639146254802154
38,205.06,2.716596480767935
39,208.929613,2.6607703854098825
40,209.83,2.6510047687123577
41,216.21,2.5818155943326695
42,220.23000000000002,2.5382189322775686
43,222.78,2.5105638623370194
44,226.92000000000002,2.4656666608723623
45,230.08,2.431458712297408
46,233.82,2.391035244197935
47,239.81,2.326153268856801
48,239.88329199999998,2.3253581992579515
49,245.97,2.274474760385415
50,252.28,2.2217723473420565
51,256.97,2.1825108387551544
52,259.94,2.1577514517849847
53,264.15999999999997,2.122509732661376
54,269.08000000000004,2.0813960669158407
55,274.08,2.039612834702087
56,275.42287,2.0283909500026422
57,279.17,2.0043611758042164
58,283.71,1.975249505888901
59,290.32,1.9328325527593337
60,295.72,1.8982140971873718
61,301.21,1.8630009145408783
62,308.23,1.8179859262273288
63,316.227766,1.766704050024433
64,318.33,1.7566377153286035
65,328.0,1.7103207226336814
66,337.97,1.662560784718234
67,348.24,1.6133591860822623
68,357.16999999999996,1.5705796004046355
69,363.078055,1.542277662981689
70,366.33,1.5306121125375298
71,374.85999999999996,1.5000075061877554
72,385.37,1.4622785379618315
73,395.25,1.4268479137465004
74,405.39,1.3904677761807664
75,413.88,1.3600005434618232
76,416.86938299999997,1.3492721459618857
77,421.57,1.3363887083352732
78,430.40000000000003,1.3121896653211351
79,441.44000000000005,1.2819378387233908
80,450.69,1.2565834017571649
81,460.11999999999995,1.2307373258257583
82,469.76,1.2043173139683072
83,478.630092,1.1800088103808248
84,479.59000000000003,1.177985548185243
85,489.64,1.1567923757943164
86,499.89,1.1351908480125255
87,505.68,1.1229814297470064
88,511.53,1.110674525064228
89,519.85,1.0931374237042768
90,529.51,1.0727691059255353
91,540.6,1.0493801890021148
92,549.38,1.030875244643176
93,549.5408739999999,1.0305363635248201
94,559.6,1.014374239817376
95,570.0,0.9976601199756302
96,580.6,0.9806044726850045
97,590.03,0.9654525627103255
98,599.62,0.9500194238565426
99,609.36,0.9343126121161
100,620.6899999999999,0.9161668558770635
101,629.32,0.902289718897903
102,630.957344,0.8996578538376313
103,639.55,0.8887091490450948
104,649.9399999999999,0.8754731573077352
105,657.47,0.8658734502205057
106,665.0799999999999,0.856190832346559
107,674.33,0.8444049144949155
108,685.2900000000001,0.8304161641146981
109,694.82,0.8183214601595455
110,704.49,0.8059667943026384
111,715.94,0.7914332153662798
112,724.43596,0.7806151248252345
113,725.9,0.7792317821794849
114,734.3,0.7712984671173585
115,744.5200000000001,0.7616539612334379
116,754.87,0.7518801090622464
117,765.38,0.7419127976374906
118,774.2400000000001,0.7336069126588666
119,785.01,0.7234276828595689
120,794.0999999999999,0.7148655154726965
121,805.15,0.704444538354661
122,814.47,0.6956528206595398
123,825.8,0.684984775922767
124,831.763771,0.6792665060977788
125,835.36,0.6766774464256987
126,845.03,0.670003305953569
127,854.82,0.6631018111799237
128,864.7199999999999,0.6561629095548893
129,874.7299999999999,0.6491391650784656
130,884.8599999999999,0.6420360994005262
131,895.1099999999999,0.6348395645210713
132,905.47,0.627528337790227
133,915.9599999999999,0.6204655755077411
134,924.43,0.6203673499507671
135,935.14,0.6209612199655024
136,945.96,0.6265097091288485
137,954.72,0.6318609764182119
138,954.992586,0.631789977462624
139,965.77,0.6291474662255884
140,974.71,0.5858403669736988
141,985.99,0.6076105805753411
142,995.12,0.6037208658628409
143,1004.3299999999999,0.6162264823248204
144,1015.95,0.6065764354180017
145,1025.3600000000001,0.5685326398161803
146,1034.8400000000001,0.5768946939920289
147,1044.4199999999998,0.6065961221359772
148,1054.08,0.5985038714544051
149,1063.8400000000001,0.5757390047409325
150,1076.15,0.5788275742140017
151,1086.11,0.5569848554367286
152,1096.16,0.5688686392307452
153,1096.4782,0.5685204217322384
154,1103.76,0.5614648186305768
155,1113.97,0.5527484348984759
156,1124.28,0.5396550249985778
157,1134.68,0.5511041635476619
158,1145.1799999999998,0.5381683459289489
159,1155.78,0.5366324121424386
160,1163.79,0.5344318541018775
161,1174.56,0.5031640718301119
162,1185.43,0.5198359133905488
163,1193.6399999999999,0.49223179301439324
164,1204.69,0.47137996147279515
165,1215.83,0.4533246883801797
166,1224.26,0.4746382864348701
167,1235.59,0.4944934156234396
168,1244.15,0.4971564336599935
169,1255.67,0.48688655512974843
170,1258.92541,0.48093688302402715
171,1264.37,0.4718717197914212
172,1276.07,0.48768773291198897
173,1284.9099999999999,0.48851608438086236
174,1293.82,0.46446818837267934
175,1305.79,0.45910231979602945
176,1314.84,0.4746465788337336
177,1323.96,0.46664603039438124
178,1336.2099999999998,0.4515519019095057
179,1345.47,0.4629414285160404
180,1354.8,0.45611003764551883
181,1364.19,0.44253421750894884
182,1373.64,0.4428662681063305
183,1386.3500000000001,0.43854655191508407
184,1395.96,0.4216388611363367
185,1405.6399999999999,0.42020742288053303
186,1415.3799999999999,0.4203352553586809
187,1425.2,0.41828240214876417
188,1435.07,0.4142983778838073
189,1441.6999999999998,0.41619460398546243
190,1445.43977,0.41537885030587196
191,1448.35,0.415098943898589
192,1455.04,0.4105603109124745
193,1465.1200000000001,0.40114929219797024
194,1475.28,0.39846999373176367
195,1485.51,0.3970901942328174
196,1495.8,0.3955296424200943
197,1506.17,0.38792189085566886
198,1513.1200000000001,0.3775303311765215
199,1516.61,0.38142268825850373
200,1523.61,0.37739181498454244
201,1534.17,0.3646456577598237
202,1544.8100000000002,0.3663566807834025
203,1555.52,0.3599611527742418
204,1566.3,0.35920654373234145
205,1573.53,0.3618142799222357
206,1584.44,0.36212878753381894
207,1595.4199999999998,0.36061073411266253
208,1606.48,0.3559165909398037
209,1613.89,0.35400192018836757
210,1625.0800000000002,0.34728435366899224
211,1636.34,0.3487233761168775
212,1643.9,0.3476566145809993
213,1655.2900000000002,0.33926722368236795
214,1659.58691,0.3403305856259896
215,1666.77,0.3427148293587656
216,1670.61,0.33374319162348365
217,1678.3200000000002,0.3413438935924876
218,1686.0700000000002,0.3426048188142491
219,1693.8500000000001,0.3362923314755787
220,1705.59,0.3311754961598987
221,1713.46,0.32560984113993263
222,1725.34,0.32293912720890383
223,1733.3000000000002,0.32604822450764204
224,1745.32,0.3219696319612644
225,1753.37,0.324899401578707
226,1765.53,0.3166422804169805
227,1773.68,0.31620110816631675
228,1785.97,0.31530708257605206
229,1794.22,0.3182811884572821
230,1806.6499999999999,0.3152824042516686
231,1814.99,0.30771051245160286
232,1823.37,0.3075796839042947
233,1836.0099999999998,0.302397051775658
234,1844.48,0.29503066554705404
235,1853.0,0.29395770838439694
236,1865.84,0.2934439725195477
237,1874.45,0.29681504767559497
238,1883.1000000000001,0.28940891608439967
239,1896.16,0.28437370810971646
240,1904.9099999999999,0.28652475465041494
241,1905.46072,0.28625896488548336
242,1913.7,0.28271710124276994
243,1926.97,0.2791253572245228
244,1935.8600000000001,0.2796649554368651
245,1944.8,0.2818505900621003
246,1953.77,0.2760026845350711
247,1967.32,0.28023384242902366
248,1976.4,0.28076965301035867
249,1985.52,0.27595988672200794
250,1994.69,0.27287098684655003
251,2003.89,0.2733024168188277
252,2013.1399999999999,0.2700444832039984
253,2027.1,0.270432515683672
254,2036.4499999999998,0.26604416489462823
255,2045.85,0.26723206051847725
256,2055.2999999999997,0.26161775255521913
257,2064.7799999999997,0.2610135444396966
258,2074.31,0.26525551273706693
259,2079.1,0.2638964050921985
260,2083.89,0.2671153774473301
261,2093.51,0.26148092528790745
262,2103.17,0.2602486362587991
263,2112.88,0.2601774636425836
264,2122.63,0.2587672141566823
265,2137.34,0.2520760728297482
266,2147.21,0.25338342273478964
267,2157.12,0.2544540757701454
268,2167.08,0.24985585521839393
269,2177.08,0.2482467477969567
270,2187.13,0.2472810067884123
271,2187.7616199999998,0.24735629489845706
272,2197.22,0.24892631698501894
273,2207.37,0.24592582073650188
274,2212.45,0.24065194322492878
275,2222.67,0.2388865755540081
276,2232.93,0.24358922278457118
277,2243.23,0.2398276149166179
278,2253.59,0.2342077344008901
279,2263.99,0.23408510878664607
280,2274.44,0.23520169929925655
281,2284.94,0.23767780593872162
282,2295.48,0.23160768747967037
283,2306.08,0.2327242663728447
284,2316.72,0.22772525016750267
285,2327.42,0.2144384413143861
286,2332.78,0.21983939811319878
287,2343.55,0.21554888783767867
288,2354.37,0.22156616368901322
289,2365.2400000000002,0.21341999566720227
290,2376.15,0.21491889254687507
291,2387.12,0.20822150677877338
292,2392.62,0.21123636073277893
293,2403.67,0.20828331476764458
294,2414.7599999999998,0.20906269370399394
295,2425.91,0.21439769999256875
296,2437.11,0.21148530240799818
297,2442.72,0.21505232984108386
298,2454.0,0.21394493205948062
299,2465.33,0.21080919040473198
300,2476.71,0.20691347487683798
301,2482.41,0.20422269333826187
302,2493.87,0.19992036761333523
303,2505.3900000000003,0.20874990924063402
304,2511.16,0.19652120627965441
305,2511.88643,0.19649500078660567
306,2516.95,0.1964386741144033
307,2522.7500000000005,0.19494175743367198
308,2534.4,0.19699789772151347
309,2546.0899999999997,0.1958939009287982
310,2557.85,0.20301107924510847
311,2563.74,0.1981874091331245
312,2575.58,0.2018549532883213
313,2587.4700000000003,0.19915579109282214
314,2593.43,0.1968113960898638
315,2605.4,0.19318586973325108
316,2617.43,0.19079386775580326
317,2623.46,0.19488127786187057
318,2635.5699999999997,0.2020422517233092
319,2647.73,0.21083225923405186
320,2653.84,0.2185089551790056
321,2666.0899999999997,0.2024606792584956
322,2672.23,0.20695801739303177
323,2684.57,0.20865806804126896
324,2696.96,0.1997214823388102
325,2703.18,0.20451739631223287
326,2715.65,0.19526037644866057
327,2721.92,0.19242865407138726
328,2734.48,0.19649809077656227
329,2747.1,0.18129802186090213
330,2753.43,0.18509132386279367
331,2766.1400000000003,0.18947966151588075
332,2772.52,0.19231102716707638
333,2785.32,0.18130021138891075
334,2798.1699999999996,0.1669665692600492
335,2804.62,0.16969950002027043
336,2817.5699999999997,0.186150145190017
337,2824.06,0.1963359488696814
338,2837.1000000000004,0.19318003060817515
339,2843.64,0.1872523579371437
340,2856.7599999999998,0.17646136551452396
341,2863.35,0.19466554649279652
342,2876.57,0.19911482136878483
343,2883.2000000000003,0.1949742152665006
344,2884.0315,0.19514147242512547
345,2896.5099999999998,0.19791886390380298
346,2909.88,0.210980875545279
347,2930.05,0.20298653004853795
348,2950.36,0.1991403539930689
349,2970.81,0.20188594737887183
350,2991.4,0.20102069020594676
351,3012.14,0.2022281874343846
352,3033.0099999999998,0.20220239914400356
353,3047.01,0.20319325327120358
354,3068.13,0.20428799898309397
355,3089.4,0.20384953909634718
356,3110.82,0.2066064836109633
357,3132.38,0.20251002756685138
358,3146.84,0.20130684985823086
359,3168.65,0.20382800781639038
360,3190.6200000000003,0.1940029751360036
361,3212.7299999999996,0.1999180318968889
362,3227.56,0.18894487771163004
363,3249.93,0.20435906343487759
364,3272.46,0.2128630785195788
365,3287.56,0.21022246825677318
366,3310.3500000000004,0.20722059230383666
367,3311.31121,0.2071867183965127
368,3325.63,0.20689722000926203
369,3333.3,0.21081680947217057
370,3340.99,0.20428236931177512
371,3348.69,0.21798106433972764
372,3356.4100000000003,0.2115776297443762
373,3364.14,0.1868389203373727
374,3371.9,0.1905033464954132
375,3379.67,0.21098887784180165
376,3387.46,0.20827618956488614
377,3395.2700000000004,0.20252237166466652
378,3403.1,0.21855992414114295
379,3410.94,0.2016875118059674
380,3418.81,0.19988680503583578
381,3426.69,0.2062802334540521
382,3434.59,0.21738843224896448
383,3442.5,0.19776826623222482
384,3450.44,0.20330150578052913
385,3458.39,0.20697668051718143
386,3466.37,0.20167446081887772
387,3474.36,0.20938637630892196
388,3482.3700000000003,0.2026334621756622
389,3490.39,0.20823748323075045
390,3498.44,0.19422380985088264
391,3506.5099999999998,0.21154530684771083
392,3514.59,0.199371239032887
393,3522.69,0.21009714159475915
394,3530.81,0.1957331145333273
395,3538.9500000000003,0.2109156578485914
396,3547.11,0.2155537715405515
397,3555.29,0.2103080556092076
398,3563.48,0.20802207486621166
399,3571.7,0.1927297996882597
400,3579.93,0.19617995969865573
401,3588.1800000000003,0.1770572100857477
402,3596.45,0.19998609084953572
403,3604.75,0.20961079717836767
404,3613.0499999999997,0.18997400350719965
405,3621.38,0.18942261540107558
406,3625.1499999999996,0.20684528140826794
407,3627.9,0.20425955820396524
408,3630.64,0.2024090998113146
409,3633.38,0.19875144141866397
410,3636.12,0.2041409830260133
411,3638.8700000000003,0.20664925982171062
412,3641.61,0.20412110142905998
413,3644.35,0.21237954303640932
414,3647.1,0.20663131983210667
415,3649.8399999999997,0.201448861439456
416,3652.5800000000004,0.20600260304680534
417,3655.32,0.2092461446541547
418,3658.0699999999997,0.21488312144985205
419,3660.81,0.2243500630572014
420,3663.5499999999997,0.22353880466455073
421,3666.3,0.21882958146024806
422,3669.04,0.2186282230675974
423,3671.78,0.21803146467494677
424,3674.52,0.21830450628229608
425,3677.2700000000004,0.21737908307799342
426,3680.01,0.21290822468534282
427,3682.75,0.21248096629269214
428,3685.5,0.21340794308838945
429,3688.24,0.2179729846957388
430,3690.98,0.21552392630308817
431,3693.72,0.22610906791043753
432,3696.4700000000003,0.21138134470613484
433,3699.21,0.21110088631348417
434,3701.95,0.21294392792083355
435,3704.7000000000003,0.20931910471653087
436,3707.44,0.20615844632388022
437,3710.1800000000003,0.21401018793122956
438,3712.93,0.2151969647269269
439,3715.6699999999996,0.22200970633427625
440,3718.41,0.2150539479416256
441,3721.1499999999996,0.22144878954897496
442,3723.9,0.22950276634467226
443,3726.64,0.24303590795202162
444,3729.38,0.24642634955937098
445,3732.13,0.22518142635506833
446,3734.8700000000003,0.20198376796241765
447,3737.61,0.190977709569767
448,3740.35,0.19650955117711635
449,3743.1,0.1999215279728137
450,3745.8399999999997,0.19349656958016304
451,3748.5800000000004,0.19709021118751235
452,3751.33,0.20418428798320973
453,3754.0699999999997,0.2094043295905591
454,3756.81,0.21309967119790843
455,3759.5499999999997,0.21356471280525777
456,3762.3,0.21105798960095506
457,3765.04,0.21460653120830442
458,3767.78,0.2158508728156538
459,3770.53,0.21415744961135114
460,3773.2700000000004,0.21092899121870046
461,3776.01,0.22966903282604983
462,3778.75,0.23514897443339916
463,3781.5,0.2418024512290965
464,3784.24,0.23631509283644586
465,3786.9799999999996,0.2326348344437952
466,3789.73,0.22092291123949254
467,3792.47,0.2117872528468419
468,3795.21,0.21043379445419122
469,3797.95,0.2099048360615406
470,3800.7000000000003,0.2136443128572379
471,3801.8939600000003,0.21728721624319125
472,3803.44,0.22202071253352318
473,3806.1800000000003,0.2300935450524171
474,3808.93,0.2271077185659056
475,3811.6699999999996,0.22265455108479953
476,3814.41,0.21918408360369349
477,3817.15,0.2148890161225874
478,3819.9,0.2098814896360759
479,3822.64,0.20349682215496984
480,3825.38,0.19749625467386378
481,3828.13,0.18597282818735222
482,3830.87,0.18216336070624617
483,3833.61,0.17544442322514014
484,3836.35,0.17817242574403408
485,3839.1,0.18535779925752255
486,3841.84,0.19560143177641648
487,3844.5800000000004,0.2034031642953104
488,3847.33,0.21152023780879892
489,3850.0699999999997,0.21609167032769283
490,3852.81,0.22298980284658682
491,3855.5499999999997,0.21398483536548074
492,3858.3,0.2126819088789692
493,3861.04,0.21852964139786313
494,3863.78,0.22139557391675707
495,3866.53,0.22250974743024554
496,3869.2700000000004,0.2215805799491395
497,3872.01,0.22040301246803345
498,3874.7599999999998,0.2180722859815219
499,3877.5,0.21453401850041587
500,3880.24,0.2119557510193098
501,3882.9799999999996,0.20849658353820377
502,3885.73,0.2089444570516922
503,3888.47,0.21289458957058616
504,3891.21,0.21478912208948012
505,3893.96,0.22168629560296854
506,3896.7000000000003,0.2311597281218625
507,3899.44,0.23227486064075645
508,3902.1800000000003,0.2319782931596504
509,3904.93,0.22833736667313886
510,3907.6699999999996,0.22984789919203283
511,3910.4100000000003,0.23866613171092677
512,3913.16,0.24120340522441525
513,3915.9,0.23810573774330915
514,3918.64,0.2357646702622031
515,3921.3799999999997,0.22343910278109708
516,3924.13,0.21614987629458554
517,3926.87,0.20405010881347946
518,3929.61,0.18968004133237343
519,3932.3599999999997,0.1758987148458619
520,3935.1000000000004,0.17481144736475582
521,3937.84,0.18852937988364976
522,3940.5800000000004,0.19830761240254371
523,3943.33,0.2095194859160322
524,3946.0699999999997,0.22242651843492614
525,3948.81,0.2333456509538201
526,3951.56,0.23293502446730854
527,3954.3,0.22993895698620248
528,3957.04,0.22119378950509644
529,3959.7799999999997,0.21623232202399037
530,3962.53,0.20396219553747882
531,3965.27,0.18988572805637277
532,3968.01,0.17679996057526676
533,3970.7599999999998,0.1787930340887552
534,3973.5,0.19181856660764912
535,3976.24,0.2162575991265431
536,3978.9799999999996,0.22788833164543704
537,3981.73,0.2437197051589255
538,3984.47,0.25597163767781944
539,3987.21,0.2625648701967134
540,3989.96,0.26266244371020186
541,3992.7000000000003,0.2664770762290958
542,3995.44,0.26925270874798973
543,3998.1800000000003,0.2697355412668837
544,4000.93,0.27117711478037215
545,4003.6699999999996,0.2668256472992661
546,4006.4100000000003,0.26948827981816004
547,4009.16,0.2740020533316485
548,4011.9,0.27328758585054247
549,4014.64,0.2777236183694364
550,4017.3799999999997,0.2814705508883304
551,4020.13,0.2826975244018188
552,4022.87,0.27989345692071277
553,4025.61,0.2785351894396067
554,4028.36,0.27678026295309516
555,4031.1000000000004,0.2703618954719891
556,4033.84,0.26788542799088305
557,4036.5899999999997,0.27259120150437155
558,4039.33,0.2733564340232654
559,4042.0699999999997,0.2702699665421594
560,4044.81,0.26516179906105336
561,4047.56,0.2623000725745418
562,4050.3,0.27006800509343576
563,4053.04,0.2736681376123297
564,4055.7900000000004,0.2645490111258182
565,4058.53,0.2647042436447121
566,4061.27,0.26590987616360606
567,4064.01,0.26055320868250004
568,4066.7599999999998,0.2638132821959885
569,4069.5,0.26636301471488244
570,4072.24,0.2674669472337764
571,4074.99,0.26821952074726485
572,4077.73,0.2684651532661588
573,4080.47,0.2705178857850527
574,4083.21,0.2752926183039467
575,4085.96,0.27701659181743515
576,4088.7000000000003,0.27485642433632906
577,4091.44,0.27341905685522305
578,4094.1899999999996,0.2682418303687115
579,4096.929999999999,0.2589658628876055
580,4099.67,0.25479519540649936
581,4102.41,0.25576352792539336
582,4105.16,0.2561999014388818
583,4107.9,0.2617879339577758
584,4110.639999999999,0.2680875664766697
585,4113.39,0.27310963999015814
586,4116.13,0.2749703725090521
587,4118.87,0.27424460502794606
588,4121.61,0.27378983754684
589,4124.360000000001,0.27173011106032846
