,lambda (Angstroms),Total Flux (erg/s/cm^2/Angstrom)
0,100.08,9.642934294928583
1,101.94,9.616108225870713
2,104.07,9.585388029855288
3,104.712855,9.576116385518894
4,106.00999999999999,9.477844528697943
5,107.98,9.328597144839133
6,109.99,9.1763195240059
7,114.11,8.864188116428918
8,118.11999999999999,8.560390451446382
9,120.22644299999999,8.40081083472432
10,120.88,8.359300398177048
11,125.12,8.089991059671192
12,126.86,7.979472697290944
13,128.04,7.90452354223549
14,131.02,7.715244833853912
15,131.93,7.657447334764877
16,134.07,7.521522512925492
17,136.88,7.343045657690552
18,138.038426,7.269467036369297
19,140.07,7.177233667225748
20,143.0,7.044263696981443
21,147.01000000000002,6.862346367210328
22,151.13,6.675316264247689
23,155.0,6.499640939065792
24,158.489319,6.341248676775625
25,158.98,6.324410233632903
26,161.94,6.222833704414336
27,166.08999999999997,6.080426390203849
28,169.96,5.947623933103224
29,173.12,5.839187383234756
30,177.15,5.7008960575142105
31,180.03000000000003,5.602069983655606
32,181.970086,5.535496472003728
33,182.11,5.531833987921653
34,185.92999999999998,5.43184199552284
35,191.14,5.295462622134144
36,193.79,5.22610473996926
37,197.85,5.119829860527589
38,202.0,5.011203976844845
39,204.81,4.937654819484724
40,208.929613,4.829795447323878
41,210.06,4.807546081236065
42,215.94,4.691891419941142
43,219.96,4.612803288816042
44,223.01999999999998,4.552584757304399
45,227.16,4.471139016265116
46,229.8,4.41971595995311
47,234.07,4.336757548656797
48,239.88329199999998,4.222932750942484
49,240.07,4.220120164618351
50,246.23,4.1265340615288855
51,251.97,4.0396788314682475
52,257.24,3.959237617558916
53,260.22,3.9144570762591417
54,263.84000000000003,3.8597189943916312
55,268.75,3.7852460123641523
56,273.74,3.7095517281407058
57,275.42287,3.6840264127465363
58,278.83000000000004,3.6443680426626743
59,284.01,3.5840656063634633
60,289.96000000000004,3.5146374540062597
61,296.03000000000003,3.444035830730928
62,300.84,3.388017091095946
63,307.85,3.3064398522952745
64,316.227766,3.2089515024450637
65,317.94000000000005,3.194072636353234
66,328.35,3.103545654310194
67,338.33000000000004,3.016716813620516
68,347.81,2.934228860388237
69,356.73,2.856627132988245
70,363.078055,2.8014123734913277
71,365.88000000000005,2.7831598294408497
72,375.27,2.7219526615795444
73,384.89000000000004,2.65915074802728
74,394.77,2.5948516764330627
75,404.89,2.5289079420308886
76,414.32,2.46742885670159
77,416.86938299999997,2.4508044676448617
78,422.03,2.425095339114678
79,429.86999999999995,2.38604774708168
80,440.9,2.3311359832393386
81,451.16999999999996,2.2799784123797875
82,459.55999999999995,2.238186100793455
83,470.26,2.1849064414831143
84,478.630092,2.1432412944696946
85,480.10999999999996,2.1375740300521064
86,490.15999999999997,2.0990346020690174
87,500.42999999999995,2.059721943719134
88,506.22,2.037516292293056
89,512.0799999999999,2.0151432789775434
90,520.4,1.9832783288333344
91,530.08,1.9461719836943983
92,539.93,1.9083963106811228
93,549.5408739999999,1.871578522463539
94,549.97,1.8703238644830529
95,560.2,1.8404634416725127
96,570.61,1.8100725844048957
97,579.88,1.7829467943654327
98,590.66,1.7514669484360463
99,600.26,1.7233672017252755
100,610.02,1.6946537550526584
101,619.93,1.665929870165811
102,630.0,1.6364867653171165
103,630.957344,1.6336912315013874
104,640.24,1.6121987442679218
105,650.64,1.5881022008538566
106,658.17,1.5706365195742493
107,664.26,1.5565495914596668
108,675.06,1.5315337762219832
109,684.45,1.5097309865625528
110,695.5699999999999,1.484041657065975
111,705.25,1.4615625207344218
112,716.71,1.4350896665877686
113,724.43596,1.4171941277264606
114,726.68,1.4133339782513057
115,735.09,1.398874434804507
116,745.32,1.3812901807021585
117,755.68,1.363482951124414
118,764.43,1.3483354158188865
119,775.07,1.330160097063365
120,785.85,1.3116140247189547
121,794.9499999999999,1.2959928514412067
122,804.16,1.2801719089150454
123,815.3399999999999,1.2609612820309541
124,824.78,1.2447635418944765
125,831.763771,1.2326594807534723
126,834.3399999999999,1.2293114630581514
127,845.94,1.2145425072854754
128,855.74,1.2019474266671795
129,865.65,1.1892427025950056
130,875.6700000000001,1.1764005270689522
131,885.81,1.1634081828659404
132,894.01,1.1528949809404279
133,904.36,1.1395827120527382
134,914.8299999999999,1.12659692548809
135,925.42,1.1187580012464833
136,933.99,1.1157281050670143
137,944.8,1.1150073699176497
138,954.992586,1.1132011672346105
139,955.74,1.1130894404039418
140,964.59,1.1054149312603179
141,975.75,1.0549742116453071
142,984.78,1.0706845416207962
143,993.9000000000001,1.0627036936558414
144,1005.4000000000001,1.0681733712658215
145,1014.71,1.055285270426597
146,1024.1,1.0115967336403113
147,1035.95,1.0099887464818997
148,1045.54,1.0358320398279617
149,1055.21,1.021950777226962
150,1064.98,0.9918975546921368
151,1074.83,0.9916835562102505
152,1084.78,0.9627457377945376
153,1094.81,0.970186373431764
154,1096.4782,0.9676054120714886
155,1104.94,0.9564395607802622
156,1115.17,0.9421719592236593
157,1125.49,0.9241145481518955
158,1135.8999999999999,0.9316927075649712
159,1143.78,0.916028314459787
160,1154.36,0.9101035358997812
161,1165.04,0.9012039967673745
162,1175.8200000000002,0.8646960070625667
163,1183.97,0.8791507154119009
164,1194.92,0.8429936177340118
165,1205.98,0.8170494484264821
166,1214.34,0.7992474745737743
167,1225.58,0.8129556362359232
168,1234.07,0.8312972386390942
169,1245.49,0.8272151512709214
170,1254.12,0.8135863988727315
171,1258.92541,0.8036997717425539
172,1265.73,0.791708662940224
173,1274.5,0.8070246993056929
174,1286.3,0.8030571297176122
175,1295.21,0.7741501873591546
176,1304.19,0.7665760406387341
177,1316.26,0.7780914627973669
178,1325.3799999999999,0.7670779073530198
179,1334.57,0.7488869575467095
180,1343.82,0.7589567125730022
181,1356.25,0.7464892837272529
182,1365.6499999999999,0.7291419808350532
183,1375.12,0.7264959435808902
184,1384.65,0.7202841211593299
185,1394.25,0.7008982743758069
186,1403.9099999999999,0.6963379324248866
187,1413.6499999999999,0.692162046917437
188,1423.45,0.6875099662425903
189,1436.6200000000001,0.6774904769989443
190,1443.25,0.6771415510015735
191,1445.43977,0.6765641821312502
192,1446.5700000000002,0.6765163356274163
193,1456.6000000000001,0.6684843836913689
194,1463.32,0.6581342828528606
195,1473.47,0.6532883905446969
196,1483.68,0.649835553050475
197,1493.97,0.646016238641509
198,1504.3200000000002,0.6359487590464848
199,1511.26,0.6238523191924302
200,1518.2399999999998,0.6253154558810035
201,1525.25,0.6193230949765475
202,1535.82,0.6042607263659769
203,1546.47,0.6038974208406623
204,1553.6,0.5970923395640902
205,1564.37,0.5935750036666594
206,1575.22,0.5925086208544843
207,1586.14,0.5905781269919081
208,1593.4599999999998,0.5881522242928188
209,1604.5,0.5813525000581264
210,1615.63,0.5758206430443468
211,1626.82,0.5664215408445092
212,1634.33,0.5672438767229024
213,1645.6599999999999,0.5626218224222626
214,1653.26,0.5535196255215685
215,1659.58691,0.5537240628143104
216,1664.72,0.5546767212860428
217,1672.4,0.5433789322844468
218,1676.26,0.5515774466404154
219,1683.99,0.5519996422807361
220,1695.6699999999998,0.5430764346324753
221,1703.49,0.537439752628246
222,1715.3,0.5293860450489686
223,1723.22,0.5262407923285727
224,1735.16,0.5269126748182786
225,1743.17,0.5225697944533327
226,1755.2599999999998,0.523097400868789
227,1763.36,0.514209832859293
228,1775.58,0.5111197893437326
229,1783.7800000000002,0.50998908061807
230,1796.1399999999999,0.5107388240998765
231,1804.4299999999998,0.5072335077296639
232,1816.94,0.4966238751372203
233,1825.33,0.49543598805084127
234,1833.75,0.48979013174961206
235,1846.46,0.47951462772483516
236,1854.99,0.477351677635823
237,1863.55,0.47673426833196064
238,1876.47,0.4774484598032338
239,1885.1299999999999,0.4686891797832049
240,1893.83,0.46358457747670934
241,1905.46072,0.4629930113912094
242,1906.96,0.4630602859532457
243,1915.76,0.4582383788301322
244,1924.6,0.45409299876555
245,1933.48,0.45327866575949893
246,1946.89,0.4541932346321179
247,1955.8700000000001,0.4473994742723952
248,1964.9,0.45196003523583667
249,1973.9699999999998,0.4512908432578094
250,1983.0800000000002,0.4458438983383134
251,1996.83,0.4407513422084485
252,2006.05,0.4401460541999136
253,2015.3,0.4357415389852772
254,2024.6100000000001,0.4357759193584376
255,2033.9499999999998,0.43068177252549666
256,2043.34,0.4313638770157198
257,2052.77,0.42366293856447423
258,2067.0,0.4208780171369849
259,2071.77,0.42648349136684266
260,2076.54,0.4268242255967005
261,2086.13,0.4296747053795801
262,2095.76,0.422497582220991
263,2105.4300000000003,0.4197796561209332
264,2115.15,0.41941825134403965
265,2124.9100000000003,0.4161186936256772
266,2134.72,0.4085653972304792
267,2144.57,0.4104077778938122
268,2154.47,0.4105890198803095
269,2164.42,0.4039286231899708
270,2174.41,0.4014847735581636
271,2184.44,0.4008551609848875
272,2187.7616199999998,0.4009100329011107
273,2194.53,0.40159668103146373
274,2204.65,0.3977254062249945
275,2214.83,0.3893132627931904
276,2225.05,0.3876695336111631
277,2235.32,0.39377988224135685
278,2245.6400000000003,0.3887850086837716
279,2256.0099999999998,0.38047576293840735
280,2266.42,0.3794690614428199
281,2276.88,0.38072397775945344
282,2287.39,0.38433975188830805
283,2292.66,0.37686891929640154
284,2303.25,0.3789230319248097
285,2313.88,0.3717725188029946
286,2324.56,0.3555956334934006
287,2335.29,0.3595203059960275
288,2346.07,0.3529704263108755
289,2356.9,0.3613000844379444
290,2362.33,0.35056594884514525
291,2373.23,0.35247876190932353
292,2384.19,0.34277353634816715
293,2395.19,0.3454220650367874
294,2406.25,0.341937185100073
295,2417.36,0.3428748229755796
296,2422.9300000000003,0.35169339725699916
297,2434.1099999999997,0.34841332006961523
298,2445.35,0.3521767042568963
299,2456.64,0.35094577625639845
300,2462.3,0.34659159259981587
301,2473.66,0.34106137953642746
302,2485.08,0.33396561784770423
303,2496.5499999999997,0.32823156397120207
304,2502.31,0.3425042359390614
305,2511.88643,0.3261618837146137
306,2513.86,0.3228833218760021
307,2519.65,0.32185622938996244
308,2525.46,0.320692799710534
309,2537.12,0.3246975859648997
310,2542.97,0.3244014418986938
311,2554.7,0.336476462976199
312,2566.5,0.32727542887684347
313,2572.41,0.33366778323047136
314,2584.2900000000004,0.32892510035756084
315,2596.2200000000003,0.3243041795011787
316,2602.2000000000003,0.31960666867794596
317,2614.21,0.3157145590480087
318,2626.2799999999997,0.3219920078379053
319,2632.33,0.3369797218378121
320,2644.48,0.35228242185415365
321,2656.69,0.368400810290329
322,2662.81,0.3387105991133752
323,2675.1000000000004,0.34572896877599557
324,2687.4500000000003,0.3501419268584498
325,2693.65,0.33458273690794105
326,2706.08,0.34353086621684037
327,2712.3199999999997,0.32703059187955413
328,2724.84,0.319936748818204
329,2737.42,0.3270546441766877
330,2743.7299999999996,0.302588624662541
331,2756.3900000000003,0.30889998124746965
332,2762.7400000000002,0.31793016734654533
333,2775.5,0.3215740079645304
334,2781.8900000000003,0.30260801967682854
335,2794.74,0.2803805079245644
336,2807.6299999999997,0.2833775517855227
337,2814.11,0.3116059111275716
338,2827.1000000000004,0.3302768990215861
339,2833.6099999999997,0.32696093757355194
340,2846.69,0.3143046430973172
341,2853.25,0.2949028936658111
342,2866.43,0.32892589322263277
343,2873.0299999999997,0.3419544194043491
344,2884.0315,0.33374569978007385
345,2886.2900000000004,0.3321483450634657
346,2892.9500000000003,0.3406970834277615
347,2913.0,0.3667817550800332
348,2933.19,0.3512967398510739
349,2946.73,0.3446569514805881
350,2967.16,0.35072790159808986
351,2987.72,0.34999179961159144
352,3008.4300000000003,0.3519981759666312
353,3029.29,0.3533849306632092
354,3050.29,0.3555615984785561
355,3071.43,0.360093879412672
356,3092.72,0.35945003868832615
357,3106.9999999999995,0.3684955768027621
358,3128.5299999999997,0.3603186014248773
359,3150.2200000000003,0.3581112696112999
360,3172.05,0.3647131509164915
361,3186.7000000000003,0.34552940227338824
362,3208.7900000000004,0.3575804793705794
363,3231.0299999999997,0.3341868348093088
364,3253.42,0.36944746858957633
365,3268.44,0.38955673318893397
366,3291.1000000000004,0.3833525279839701
367,3306.29,0.3778362013704045
368,3311.31121,0.37742464310672463
369,3321.5499999999997,0.37686460051944926
370,3329.21,0.39310051749004804
371,3336.8799999999997,0.38321937234180947
372,3344.57,0.3779810029558963
373,3352.28,0.3664238093323084
374,3360.0099999999998,0.38790849147104584
375,3367.76,0.38351024937210854
376,3375.52,0.342593245154334
377,3383.3,0.3503452166988847
378,3391.1000000000004,0.3862324640057607
379,3398.92,0.3955845870749622
380,3406.75,0.3838863480253262
381,3414.61,0.38296312261917825
382,3422.48,0.40290523509419296
383,3430.37,0.386655223331533
384,3438.28,0.3924348873311983
385,3446.2,0.3362176892120263
386,3454.15,0.38537690473634223
387,3462.11,0.3549964581418209
388,3470.09,0.37502228730962495
389,3478.0899999999997,0.3433697922397542
390,3486.11,0.3645850729322088
391,3494.14,0.3558990915058261
392,3502.2,0.3869304237229314
393,3510.27,0.38287669382119927
394,3518.3599999999997,0.36803663968179257
395,3526.47,0.3563741613047111
396,3534.6,0.383119558689955
397,3542.75,0.4060877318375242
398,3550.92,0.40112628074741874
399,3559.1,0.391873167538476
400,3567.3100000000004,0.38136636797302115
401,3575.53,0.350505106288729
402,3583.77,0.3341247203667622
403,3592.0400000000004,0.3303909480882833
404,3600.32,0.4002283136909671
405,3608.6200000000003,0.3640882550559763
406,3616.94,0.37204817218331077
407,3625.27,0.38836482719180787
408,3633.63,0.382015295843793
409,3641.28,0.3831350749332291
410,3644.04,0.3651054301341238
411,3646.79,0.3729182474538557
412,3649.54,0.3293786647735877
413,3652.2900000000004,0.3385452820933196
414,3655.05,0.3664802372942142
415,3657.7999999999997,0.4004272546139462
416,3660.55,0.3853190719336781
417,3663.2999999999997,0.39612478925341005
418,3666.05,0.377284206573142
419,3668.81,0.3783047617740366
420,3671.56,0.3651182790937685
421,3674.31,0.3945719964135005
422,3677.06,0.3812986137332324
423,3679.81,0.3700856310529643
424,3682.57,0.36743918625385896
425,3685.32,0.37281360357359095
426,3688.07,0.34890062089332285
427,3690.82,0.3896381382130548
428,3693.5800000000004,0.37021399341394934
429,3696.33,0.3731908107336814
430,3699.08,0.3678278280534133
431,3701.83,0.3934540453731452
432,3704.58,0.36170126269287717
433,3707.34,0.35928311789377176
434,3710.0899999999997,0.37612093521350376
435,3712.84,0.3838793525332357
436,3715.5899999999997,0.39273876985296763
437,3718.3500000000004,0.3711616250538622
438,3721.1,0.4072208423735942
439,3723.8500000000004,0.4196767596933261
440,3726.6,0.47043687701305803
441,3729.3500000000004,0.46791739433279
442,3732.11,0.4644169495336846
443,3734.8599999999997,0.40337136685341657
444,3737.61,0.35953558417314846
445,3740.3599999999997,0.37476950149288046
446,3743.11,0.4096029188126124
447,3745.87,0.383113574013507
448,3748.62,0.35838779133323895
449,3751.37,0.3483601086529709
450,3754.1200000000003,0.36119642597270285
451,3756.88,0.38707908117359746
452,3759.63,0.38010949849332937
453,3762.38,0.4116970158130613
454,3765.1299999999997,0.3903420331327933
455,3767.88,0.3887874504525252
456,3770.6400000000003,0.38618430565341977
457,3773.39,0.40439762297315185
458,3776.14,0.3898629402928837
459,3778.89,0.42155115761261563
460,3781.64,0.43767957493234766
461,3784.4,0.4547570301332422
462,3787.15,0.44938334745297415
463,3789.9,0.4471627647727061
464,3792.65,0.40278598209243804
465,3795.4100000000003,0.3856207372933326
466,3798.16,0.3785804546130646
467,3800.9100000000003,0.3765039719327965
468,3801.8939600000003,0.38003378256331477
469,3803.66,0.386403103258052
470,3806.41,0.4010022299791506
471,3809.17,0.43700088661559866
472,3811.9199999999996,0.4704707133366973
473,3814.67,0.4483232400577959
474,3817.42,0.44365466677889454
475,3820.17,0.4426014934999931
476,3822.93,0.40880645013644124
477,3825.6800000000003,0.40908527685753976
478,3828.43,0.3876226035786384
479,3831.1800000000003,0.37590253029973697
480,3833.94,0.35173618693618514
481,3836.6899999999996,0.35295821365728375
482,3839.44,0.3439429403783823
483,3842.1899999999996,0.350188367099481
484,3844.94,0.3913348938205795
485,3847.7,0.4264366504570276
486,3850.4500000000003,0.4335384771781262
487,3853.2,0.4456693038992248
488,3855.9500000000003,0.45858853062032345
489,3858.71,0.4386678872567715
490,3861.46,0.4456338139778701
491,3864.21,0.44950094069896873
492,3866.96,0.4738643674200674
493,3869.71,0.46982099414116596
494,3872.4700000000003,0.468357950777614
495,3875.22,0.45208197749871265
496,3877.9700000000003,0.43075000421981124
497,3880.72,0.4343995309409099
498,3883.47,0.4078862576620085
499,3886.23,0.4020115142984565
500,3888.98,0.38482484101955516
501,3891.73,0.37273236774065377
502,3894.48,0.3968320944617524
503,3897.2400000000002,0.41271785109820047
504,3899.99,0.4319434778192991
505,3902.7400000000002,0.4529905045403977
506,3905.49,0.4570478312614964
507,3908.2400000000002,0.4658895579825949
508,3911.0,0.479730714619043
509,3913.7499999999995,0.4999079413401416
510,3916.5,0.47988066806124025
511,3919.2500000000005,0.47765859478233885
512,3922.0,0.47059792150343743
513,3924.7599999999998,0.44997047813988555
514,3927.51,0.4299433048609841
515,3930.2599999999998,0.38856603158208275
516,3933.01,0.35213065830318135
517,3935.77,0.3360841149396294
518,3938.52,0.358751141660728
519,3941.27,0.4086914683818267
520,3944.0199999999995,0.43169569510292527
521,3946.77,0.4429838218240239
522,3949.53,0.4462507784604719
523,3952.28,0.4771654051815706
524,3955.0299999999997,0.4839683319026692
525,3957.78,0.47582025862376776
526,3960.5299999999997,0.4469039853448664
527,3963.29,0.40065074198131445
528,3966.04,0.3609099687024131
529,3968.79,0.3208482954235117
530,3971.54,0.3155136221446103
531,3974.3,0.3361865787810584
532,3977.0499999999997,0.381266405502157
533,3979.8,0.43273173222325556
534,3982.55,0.4556816589443542
535,3985.2999999999997,0.4795829856654529
536,3988.06,0.5101963423019009
537,3990.8100000000004,0.5113723690229995
538,3993.56,0.5154840957440981
539,3996.31,0.5194056224651967
540,3999.07,0.5226450791016448
541,4001.8199999999997,0.5309159058227434
542,4004.57,0.532880232543842
543,4007.3199999999997,0.5279670592649407
544,4010.07,0.5309371859860392
545,4012.83,0.5419782426224873
546,4015.5800000000004,0.5497053693435859
547,4018.33,0.5612926960646846
548,4021.0800000000004,0.5600765227857831
549,4023.83,0.5490743495068818
550,4026.5899999999997,0.5441586061433299
551,4029.34,0.5383212328644285
552,4032.0899999999997,0.5373225595855271
553,4034.84,0.5411624863066257
554,4037.6,0.5438854429430737
555,4040.35,0.5480787696641723
556,4043.1,0.551510996385271
557,4045.85,0.5435533231063696
558,4048.6,0.5346442498274683
559,4051.36,0.5431300064639163
560,4054.11,0.551183433185015
561,4056.86,0.5332222599061135
562,4059.61,0.537007786627212
563,4062.3599999999997,0.5338616133483107
564,4065.12,0.5288372699847588
565,4067.87,0.5319159967058574
566,4070.62,0.528633923426956
567,4073.37,0.5336156501480547
568,4076.13,0.5238886067845028
569,4078.8799999999997,0.5155775335056013
570,4081.63,0.5271375602266999
571,4084.38,0.5329890869477986
572,4087.13,0.5343010136688972
573,4089.89,0.5306629703053453
574,4092.6400000000003,0.5252061970264439
575,4095.39,0.5045537237475425
576,4098.14,0.4692765504686411
577,4100.900000000001,0.44992680710508914
578,4103.65,0.4391147338261878
579,4106.4,0.4505931605472864
580,4109.15,0.47520128726838495
581,4111.9,0.49635711398948357
582,4114.66,0.5130524706259317
583,4117.41,0.5238241973470303
584,4120.16,0.528615524068129
585,4122.91,0.5364242507892275
586,4125.66,0.5325169775103261
587,4128.42,0.5262965341467742
588,4131.17,0.5213562608678728
589,4133.92,0.5334055875889714
590,4136.67,0.54086101431007
591,4139.43,0.5427139709465181
592,4142.179999999999,0.5400026976676168
593,4144.93,0.5356876243887153
594,4147.68,0.532405451109814
595,4150.43,0.5326028778309125
596,4153.19,0.5376636344673607
