,lambda (Angstroms),Total Flux (erg/s/cm^2/Angstrom)
0,100.07000000000001,2.5966027500234574
1,101.93,2.589380273366036
2,104.07,2.581070066751895
3,104.712855,2.578573808758824
4,106.0,2.55231672744463
5,107.97,2.512130020488243
6,109.98,2.4711295155459707
7,114.11,2.386880818153739
8,118.11999999999999,2.305080053487166
9,120.22644299999999,2.2621367805927077
10,120.87,2.2511384632340916
11,125.12,2.1784597382830553
12,126.86,2.1487044379355953
13,128.03,2.1286967480390278
14,131.01,2.077735532907172
15,131.92000000000002,2.0621824875653965
16,134.07,2.0254151752292255
17,136.87,1.977545013736072
18,138.038426,1.9575643124725701
19,140.06,1.932855826667803
20,142.98999999999998,1.897165092468107
21,147.0,1.8483689014859284
22,151.12,1.7980379359416454
23,154.99,1.750769920729418
24,158.489319,1.7080338718305264
25,158.97000000000003,1.703597201043204
26,161.92999999999998,1.6762756142685016
27,166.08,1.6379735857431574
28,169.95,1.6022536237532596
29,173.11,1.5730898837532388
30,177.14000000000001,1.5358935070430861
31,180.02,1.5093127696785105
32,181.970086,1.4913162254604198
33,182.1,1.4904019876338492
34,185.92000000000002,1.4635203837803095
35,191.12,1.4269234207634491
36,193.78,1.40821342085444
37,197.84,1.3796416920985837
38,201.98000000000002,1.3505088476086213
39,204.79000000000002,1.3307399310731642
40,208.929613,1.3015714035145665
41,210.04999999999998,1.2956375889681233
42,215.93,1.2646011379710447
43,219.95000000000002,1.243356199360797
44,223.01000000000002,1.2271688166276236
45,227.14999999999998,1.205292557282742
46,229.77999999999997,1.1921523741820081
47,234.04999999999998,1.1710934150412724
48,239.88329199999998,1.1412841876115052
49,240.06,1.1405960579278782
50,246.22000000000003,1.1151803308541788
51,251.95,1.092083345850559
52,257.23,1.0695605025016737
53,260.21,1.0582003773880984
54,263.83,1.043696568565567
55,268.73,1.0236797723251239
56,273.73,1.0032300841614068
57,275.42287,0.9962984778514761
58,278.82,0.9856157760889088
59,284.0,0.9694003686375846
60,289.95,0.950498746781334
61,296.02,0.9315030639918479
62,300.83,0.9162191235013325
63,307.83000000000004,0.8943519307292727
64,316.227766,0.8680998196265821
65,317.92,0.8641525298236444
66,328.33,0.8397077467972693
67,338.31,0.8162260312638181
68,347.78999999999996,0.7939069839314419
69,356.71000000000004,0.7729766822642691
70,363.078055,0.7580726543921871
71,365.86,0.7531974613561692
72,375.25,0.7366248081177289
73,384.87,0.719490109333512
74,394.75000000000006,0.7022541701497218
75,404.87,0.6844773111355561
76,414.3,0.66784135775872
77,416.86938299999997,0.66329065574202
78,422.0,0.6563300618807923
79,429.85,0.6457053143332654
80,440.88,0.630888196974129
81,451.15000000000003,0.617026977274371
82,459.53000000000003,0.605665646424909
83,470.24,0.5912299596065635
84,478.630092,0.5799520496284847
85,480.08000000000004,0.5784514437681791
86,490.14000000000004,0.567921346276547
87,500.40000000000003,0.557346288337765
88,506.19,0.55127528889278
89,512.0600000000001,0.545415915268935
90,520.38,0.5367520916675056
91,530.05,0.5266555495478155
92,539.9,0.5163083050256905
93,549.5408739999999,0.5062797061403423
94,549.94,0.5059620167454296
95,560.17,0.49798569093820505
96,570.5799999999999,0.4897997214686833
97,579.85,0.48241480986037705
98,590.63,0.473892294085022
99,600.23,0.46618485109583757
100,609.98,0.45819055838807227
101,619.89,0.4507075519804871
102,629.97,0.4426805018918435
103,630.957344,0.4419047505553773
104,640.1999999999999,0.4361479414845339
105,650.6,0.4295843015859596
106,658.14,0.4247885877844933
107,665.76,0.42007512056073026
108,675.0200000000001,0.41427481567988433
109,684.41,0.40827464361280635
110,695.5300000000001,0.40138416491356144
111,705.21,0.39519165981565774
112,716.67,0.3881263683216519
113,724.43596,0.38325888726816076
114,726.6400000000001,0.3822312384911982
115,735.05,0.3783046372358363
116,745.28,0.3735048116969121
117,755.6400000000001,0.36866515285201895
118,764.39,0.36442441871950804
119,775.03,0.35961718544637467
120,785.81,0.35453724745912113
121,794.9100000000001,0.3503339900413096
122,804.11,0.3460602285419838
123,815.3000000000001,0.34085471682052115
124,824.74,0.33646280752556074
125,831.763771,0.33309577072881746
126,834.2900000000001,0.3321796980914706
127,845.9,0.32825040942566014
128,855.69,0.3248232729176252
129,865.6,0.32138410884973695
130,875.62,0.3178965641019832
131,885.76,0.314361014794376
132,896.02,0.3107879909269155
133,904.31,0.3078830444170474
134,914.7800000000001,0.3042846090698436
135,925.3699999999999,0.3015903961627865
136,933.94,0.2996475090132604
137,944.75,0.29692128674647217
138,954.992586,0.29396456889578054
139,955.69,0.2937684532234517
140,964.53,0.29114192376340464
141,975.7,0.2846458896764447
142,984.73,0.2835899188433875
143,996.1299999999999,0.2795965454627839
144,1005.35,0.2773270202567166
145,1014.65,0.27410842520938206
146,1024.04,0.2689165690906216
147,1035.9,0.2661389681227304
148,1045.48,0.2644749216309599
149,1055.16,0.2610074588376051
150,1064.92,0.2569058902029831
151,1074.77,0.2540190994969352
152,1084.72,0.24972706548930299
153,1094.76,0.247298581410245
154,1096.4782,0.24667469128877234
155,1104.88,0.24413883881649356
156,1115.11,0.24116078162537588
157,1125.43,0.2378010129487057
158,1135.8400000000001,0.23560530378648326
159,1143.71,0.23311257699429397
160,1154.3,0.23023962586096675
161,1164.98,0.22725961524208724
162,1175.76,0.22300281275037173
163,1183.8999999999999,0.2217800865015254
164,1194.86,0.2179248390387052
165,1205.92,0.214203142703049
166,1214.27,0.21094352832124713
167,1225.51,0.20926585001448628
168,1234.01,0.20773113282343045
169,1245.42,0.20475996293284843
170,1254.06,0.20221300831982236
171,1258.92541,0.20073343158178159
172,1265.66,0.1992207340056129
173,1274.43,0.19802954387120267
174,1286.2199999999998,0.1957716634989454
175,1295.1399999999999,0.19329226030636398
176,1304.12,0.19150016889051408
177,1316.18,0.18967694501354854
178,1325.3100000000002,0.18766763053952737
179,1334.49,0.1854871123794492
180,1343.75,0.1840820659216797
181,1356.1799999999998,0.1815012241678919
182,1365.5800000000002,0.17929249718916254
183,1375.04,0.17746456598716479
184,1384.58,0.17557203048747566
185,1394.17,0.17299848530172943
186,1403.8400000000001,0.17109004881829193
187,1413.5700000000002,0.16954940811158595
188,1423.37,0.1675705116444001
189,1436.54,0.16499833713696763
190,1443.17,0.16378121296580003
191,1445.43977,0.16333324632501175
192,1446.5,0.16318718518529884
193,1456.52,0.16168858980561915
194,1466.62,0.1600791850077385
195,1473.3899999999999,0.15912967611747583
196,1483.6,0.15774011724456868
197,1493.8799999999999,0.15629865850573563
198,1504.24,0.15470734134870154
199,1511.18,0.1534664220697617
200,1518.16,0.15262498758172136
201,1525.17,0.15160633743685561
202,1535.7399999999998,0.14978792468204388
203,1546.3799999999999,0.14830890006130615
204,1553.52,0.14722709673686368
205,1564.2900000000002,0.1458684559365493
206,1575.1299999999999,0.14450583127030903
207,1586.05,0.14306542518586765
208,1593.3700000000001,0.14207866592047289
209,1604.42,0.14047095765645493
210,1615.54,0.13891114352651096
211,1626.7400000000002,0.13725895297836602
212,1634.2400000000002,0.13634211577201893
213,1645.5700000000002,0.1347743650442973
214,1653.1699999999998,0.13359135831519897
215,1659.58691,0.13278747968688642
216,1664.63,0.13236385295849898
217,1672.31,0.13137541816758935
218,1676.1699999999998,0.13129966713986654
219,1683.9,0.13058239926828694
220,1695.5700000000002,0.12930295083991244
221,1703.3999999999999,0.1284603498069929
222,1715.21,0.12721718795274248
223,1723.1299999999999,0.1264340315746169
224,1735.07,0.1254180071106246
225,1743.08,0.12458612138729303
226,1755.16,0.12355359849742469
227,1763.2600000000002,0.12256858342888718
228,1775.48,0.12142143411314292
229,1783.68,0.12068198888326544
230,1796.0400000000002,0.1196574561416452
231,1804.3300000000002,0.11882322556656176
232,1816.8400000000001,0.11742453558293156
233,1825.23,0.11666666084650816
234,1833.65,0.11577090166168273
235,1846.36,0.1142858923553726
236,1854.8899999999999,0.11355023619307325
237,1863.45,0.11285185058237182
238,1876.36,0.1117205829533818
239,1885.02,0.11072145118134044
240,1893.7300000000002,0.10987500732862909
241,1905.46072,0.1088150761847744
242,1906.85,0.1087253607796227
243,1915.65,0.10805342625542035
244,1924.5,0.10728968056346687
245,1933.38,0.1065253757708627
246,1946.78,0.10597851881355459
247,1955.77,0.10522294665189788
248,1964.79,0.10487121338959048
249,1973.8600000000001,0.10418246595953191
250,1982.97,0.10355186339527243
251,1996.7199999999998,0.1025594732637063
252,2005.94,0.1018941843303943
253,2015.19,0.10124688629643161
254,2024.5,0.10046417306116753
255,2033.8400000000001,0.09997550172525277
256,2043.23,0.09949389222158686
257,2052.66,0.09863807258372005
258,2066.8900000000003,0.09761840284174282
259,2071.65,0.0975872318718334
260,2076.43,0.0982901688348235
261,2086.01,0.09823562069370319
262,2095.64,0.09720661038483179
263,2105.31,0.09639876494175946
264,2115.0299999999997,0.09611650033093597
265,2124.79,0.09503153658591154
266,2134.6,0.09411851567313598
267,2144.46,0.09420566359260926
268,2154.35,0.09350642741143185
269,2164.3,0.09228935202895305
270,2174.29,0.09161424651227336
271,2184.3199999999997,0.09172094686139276
272,2187.7616199999998,0.0914901312044268
273,2194.41,0.09119629347624958
274,2204.54,0.09055345947283748
275,2214.71,0.08912960209922433
276,2224.93,0.08914098201285993
277,2235.2,0.0898874302137442
278,2245.52,0.08910966870187717
279,2255.8900000000003,0.08746595147725883
280,2266.3,0.08673134788243948
281,2276.7599999999998,0.08656352357486885
282,2287.27,0.08735541155454692
283,2292.54,0.08617828303056055
284,2303.12,0.0865875126123868
285,2313.75,0.08531452048146176
286,2324.4300000000003,0.08383441263778542
287,2335.16,0.0830338310813578
288,2345.94,0.08154796081217887
289,2356.77,0.08295279383024866
290,2367.65,0.08072925613556714
291,2373.1,0.08121574944567614
292,2384.06,0.07941102401059255
293,2395.06,0.07939749820530793
294,2406.12,0.07885009234472178
295,2417.22,0.07876596611393456
296,2422.7999999999997,0.0805704619708902
297,2433.98,0.0800418619997009
298,2445.21,0.08052140231576034
299,2456.5,0.08033727957651822
300,2462.16,0.07917399669307178
301,2473.5299999999997,0.0779410102134276
302,2484.95,0.07553360902103211
303,2496.42,0.07561162211588532
304,2502.17,0.07747238114948655
305,2511.88643,0.07429313274294362
306,2513.72,0.07371554046374376
307,2519.5099999999998,0.07296322251529776
308,2525.3199999999997,0.07298907275528542
309,2536.9799999999996,0.07410354661212815
310,2542.83,0.07413492722898318
311,2554.5699999999997,0.07712254383956069
312,2566.3599999999997,0.0747339414212224
313,2572.27,0.07614458160337852
314,2584.15,0.07486433453299185
315,2596.0699999999997,0.07377681083947257
316,2602.06,0.07274907177536348
317,2614.07,0.0718243834297958
318,2626.1400000000003,0.07310323164952921
319,2632.1899999999996,0.07756451915072121
320,2644.34,0.08102929612418938
321,2656.54,0.08656243106874181
322,2662.6699999999996,0.07872516432366855
323,2674.96,0.08008816161617258
324,2687.31,0.0821748204739777
325,2693.5,0.07699939529420552
326,2705.93,0.0796780129057454
327,2712.17,0.07498509569705744
328,2724.69,0.07216579865654894
329,2737.27,0.07425164718134153
330,2743.58,0.0689923351321715
331,2756.24,0.07100623741069884
332,2762.5899999999997,0.07364964773839622
333,2775.34,0.07403642036487515
334,2788.1600000000003,0.06839905315087204
335,2794.58,0.06405600663808733
336,2807.48,0.06429896717781898
337,2813.9500000000003,0.0711284476361185
338,2826.94,0.07592809652380177
339,2833.46,0.07463805995318554
340,2846.54,0.06977026118882042
341,2853.1,0.06481403799507154
342,2866.27,0.07344592257865805
343,2872.8799999999997,0.07895075835599343
344,2884.0315,0.07693178679230916
345,2886.14,0.07657211979372071
346,2892.79,0.08085346390626255
347,2912.8399999999997,0.08897763916287367
348,2933.0299999999997,0.08435121050606462
349,2953.3599999999997,0.08164513793583539
350,2967.0,0.08250018808547008
351,2987.5600000000004,0.0824788162289077
352,3008.27,0.08207546875082374
353,3029.1200000000003,0.08366852735931957
354,3050.12,0.08468574034629384
355,3071.26,0.08710184941984787
356,3092.55,0.08569478287188033
357,3106.83,0.09089662370302282
358,3128.36,0.08739702616062069
359,3150.0499999999997,0.08684123128859553
360,3171.88,0.09031882250315015
361,3186.52,0.08465242184264077
362,3208.61,0.08798369864655796
363,3230.85,0.08149212982895353
364,3253.2499999999995,0.09457313368172607
365,3268.26,0.10227911982146334
366,3290.92,0.1008244792635984
367,3311.31121,0.0971990757262214
368,3313.7299999999996,0.096786791577049
369,3321.3700000000003,0.09343947863575236
370,3329.02,0.09956643740526555
371,3336.7000000000003,0.0992214313072082
372,3344.39,0.09546367691996069
373,3352.1,0.09152973595433281
374,3359.83,0.10116890841032455
375,3367.5699999999997,0.09619108257712615
376,3375.34,0.08265134187635717
377,3383.12,0.08698178288639806
378,3390.91,0.09766350560724874
379,3398.73,0.09543078346052888
380,3406.5699999999997,0.09893131473542868
381,3414.42,0.09711411772113829
382,3422.29,0.10353648412846755
383,3430.18,0.09900127395741645
384,3438.0899999999997,0.10042682720798499
385,3446.0099999999998,0.08103077216936336
386,3453.9599999999996,0.10166487226317118
387,3461.92,0.09120987406778883
388,3469.9,0.0947209092940261
389,3477.9,0.08783375794188304
390,3485.92,0.09521846001135961
391,3493.9500000000003,0.088955113791646
392,3502.0099999999998,0.09453194270436188
393,3510.08,0.10016057332788755
394,3518.17,0.09280080737303287
395,3526.2799999999997,0.08830067483979784
396,3534.41,0.09972035572818244
397,3542.56,0.10762927003818669
398,3550.7300000000005,0.10517252776981056
399,3558.9100000000003,0.09967363721224429
400,3567.11,0.09610179007629766
401,3575.34,0.08794260807278047
402,3583.58,0.07999180778007312
403,3591.84,0.08076432090898539
404,3600.12,0.10486119745951732
405,3608.42,0.09312239743166886
406,3616.74,0.0972351508254401
407,3625.07,0.0959784859300211
408,3633.4300000000003,0.0989951761670316
409,3641.81,0.10921748982566173
410,3650.2000000000003,0.09427582519510169
411,3658.6200000000003,0.1156392256969711
412,3667.05,0.11502765790965036
413,3675.5,0.11667471354394925
414,3683.98,0.1019553443106776
415,3692.47,0.10522321678821576
416,3700.98,0.11378917268737357
417,3709.5099999999998,0.09130709200815103
418,3718.07,0.12113223646135793
419,3726.64,0.09340023262537467
420,3735.23,0.09948793221101106
421,3743.84,0.10460635521826707
422,3752.47,0.07746812164714274
423,3761.12,0.09972188149763805
424,3769.79,0.096326604769753
425,3778.48,0.11071391146348758
426,3787.1899999999996,0.12096932157884183
427,3795.92,0.1012985151158157
428,3801.8939600000003,0.10152501829299965
429,3804.67,0.10164462674856901
430,3813.44,0.11309818607634109
431,3822.23,0.09391736224408528
432,3831.04,0.07908169525180159
433,3839.8700000000003,0.07824197509949002
434,3848.73,0.1005990552071366
435,3857.6,0.09952160873476926
436,3866.4900000000002,0.10376800910237402
437,3875.4,0.0893665863099509
438,3884.34,0.09409305377748595
439,3893.29,0.09081734466500704
440,3895.09,0.10427074026249733
441,3899.15,0.11103186877683652
442,3903.2099999999996,0.1119362172911757
443,3907.27,0.11734513580551487
444,3911.33,0.11241187431985405
445,3915.3900000000003,0.11298146283419322
446,3919.45,0.10515499134853243
447,3923.51,0.0937502498628716
448,3927.57,0.0851602783772108
449,3931.6400000000003,0.07543213031153603
450,3935.7,0.07641440882587522
451,3939.7599999999998,0.08222671734021439
452,3943.82,0.10093282585455357
453,3947.8799999999997,0.10571805436889276
454,3951.94,0.10763649288323193
455,3956.0,0.10635299139757112
456,3960.0600000000004,0.0975420699119103
457,3964.12,0.0887961284262495
458,3968.18,0.08142806694058868
459,3972.2400000000002,0.08652529545492786
460,3976.2999999999997,0.09508415396926705
461,3980.36,0.11495712248360623
462,3984.42,0.1231487309979454
463,3988.48,0.1296237295122846
464,3992.54,0.13621939802662378
465,3996.6000000000004,0.13664930654096297
466,4000.66,0.13519343505530212
467,4004.72,0.13762222356964132
468,4008.78,0.1421085320839805
469,4012.8399999999997,0.14414344059831968
470,4016.9,0.14236634911265889
471,4020.96,0.14339105762699805
472,4025.0200000000004,0.13947136614133723
473,4029.08,0.14155567465567642
474,4033.14,0.1389919831700156
475,4037.2000000000003,0.13276133168435478
476,4041.2599999999998,0.13597350019869398
477,4045.32,0.13940330871303316
478,4049.38,0.13810021722737234
479,4053.4399999999996,0.13630682574171152
480,4057.5,0.1398272342560507
481,4061.56,0.13810534277038988
482,4065.62,0.13472585128472905
483,4069.68,0.13480735979906827
484,4073.7400000000002,0.13482116831340743
485,4077.7999999999997,0.13994127682774662
486,4081.86,0.1472970853420858
487,4085.92,0.14934559385642499
488,4089.9799999999996,0.14390860237076417
489,4094.04,0.14096401088510335
490,4098.1,0.13812731939944253
491,4102.16,0.1341204279137817
492,4106.22,0.13257354642812091
493,4110.28,0.1405701449424601
494,4114.34,0.13982995345679924
495,4118.4,0.14050626197113847
496,4122.46,0.14244757048547763
497,4126.52,0.13806687899981682
498,4130.58,0.138476687514156
499,4134.64,0.14059669602849517
500,4138.7,0.13698260454283437
501,4142.76,0.13740921305717355
502,4146.82,0.13715322157151275
503,4150.88,0.1336236300858519
504,4154.94,0.1402649386001911
505,4159.0,0.13688204711453028
506,4163.06,0.14090305562886946
507,4167.12,0.14084856414320865
508,4171.18,0.13838887265754782
509,4175.24,0.13586368117188702
510,4179.3,0.13771718968622618
511,4183.36,0.1379779982005654
512,4187.42,0.13907360671490457
513,4191.4800000000005,0.13973421522924373
514,4195.54,0.13830162374358293
515,4199.6,0.1380256322579221
516,4203.66,0.1374511407722613
517,4207.719999999999,0.1399774492866005
518,4211.78,0.14177195780093965
519,4215.84,0.14130466631527885
520,4219.9,0.13812617482961803
521,4223.96,0.13817568334395722
522,4228.02,0.13440279185829637
523,4232.08,0.13263170037263558
524,4236.14,0.13418940888697475
525,4240.2,0.13574711740131395
526,4244.26,0.1373043259156531
527,4248.32,0.13886203442999231
528,4252.38,0.1390708429443315
529,4256.4400000000005,0.14221095145867066
530,4260.5,0.13938715997300985
531,4264.56,0.13665766848734903
532,4268.62,0.13650847700168822
533,4272.679999999999,0.13664258551602743
534,4276.74,0.1361199940303666
535,4280.8,0.13575630254470578
536,4284.86,0.13503221105904495
537,4288.92,0.13283581957338414
538,4292.9800000000005,0.12504504808772332
539,4297.04,0.11522973660206251
540,4301.1,0.11919227511640168
541,4305.17,0.11826939705072692
542,4309.23,0.12636998556506612
543,4313.29,0.1320129440794053
544,4317.349999999999,0.13687615259374447
545,4321.41,0.14772986110808364
546,4325.47,0.15118846962242283
547,4329.53,0.14727917813676203
548,4333.59,0.1498379866511012
549,4337.650000000001,0.14809609516544037
550,4341.71,0.14790510367977958
551,4345.7699999999995,0.14635221219411876
552,4349.83,0.14841972070845794
553,4353.89,0.1537446292227971
554,4357.95,0.1536121377371363
555,4362.01,0.1577956462514755
556,4365.15832,0.15614030341942287
557,4366.070000000001,0.15566436385735827
558,4370.13,0.1525464541368639
559,4374.19,0.14331524441636953
560,4378.25,0.14249593469587515
561,4382.3099999999995,0.14033042497538079
562,4386.37,0.14342441525488642
563,4390.43,0.14237750553439205
564,4394.49,0.14925119581389767
565,4398.55,0.1461793860934033
566,4402.610000000001,0.15011527637290895
567,4406.67,0.15242876665241456
568,4410.73,0.1523342569319202
569,4414.79,0.15498624721142584
570,4418.849999999999,0.15294423749093147
571,4422.91,0.15622682777043712
572,4426.97,0.15785491804994273
573,4431.030000000001,0.16060070832944837
574,4435.09,0.16259939860895398
575,4439.15,0.16090248888845965
576,4443.21,0.16361247916796526
577,4447.2699999999995,0.16352766944747088
578,4451.33,0.16480745972697652
579,4455.39,0.15854385000648216
580,4459.45,0.15668764028598778
581,4463.51,0.15745393056549342
582,4467.57,0.16403562084499904
