,lambda (Angstroms),Total Flux (erg/s/cm^2/Angstrom)
0,102.08,1.1131583838668697
1,103.97999999999999,1.1099855480376213
2,104.712855,1.1087617440422057
3,105.91,1.0982606037748224
4,107.88000000000001,1.0809801204338247
5,109.88,1.063436491548186
6,114.00999999999999,1.0272088866182412
7,118.01,0.9921216225309133
8,120.22644299999999,0.9726795554667217
9,121.04,0.9666965172192569
10,125.01,0.9375002369435964
11,127.04,0.9225711530950409
12,127.92,0.9160994450507893
13,130.9,0.8941838509157868
14,132.11,0.8852853112726156
15,133.95000000000002,0.8717535500487894
16,137.07,0.8488085008467972
17,138.038426,0.8416864959140227
18,139.94,0.8316905800157687
19,142.87,0.8162900710732994
20,146.87,0.795266756354959
21,150.98,0.7736625309016694
22,154.85999999999999,0.7532675044578192
23,158.489319,0.734190272481088
24,158.83,0.7328364458162355
25,162.16000000000003,0.7196033442283603
26,165.93,0.7046221013604443
27,170.19,0.6876934377243697
28,172.95999999999998,0.676686096840819
29,176.98,0.6607113914893118
30,179.85999999999999,0.649266959504501
31,181.94,0.6410015081315817
32,181.970086,0.6408819531779875
33,186.17999999999998,0.6281195229477041
34,190.95999999999998,0.6136291958929241
35,194.06,0.6042318305168531
36,198.12,0.5919241206158056
37,201.81,0.580738480311676
38,205.07999999999998,0.570825773739724
39,208.929613,0.5591552794510807
40,209.86,0.5570348098287367
41,216.24,0.5424967122309726
42,219.75000000000003,0.534498433595698
43,222.80999999999997,0.5275248364423819
44,226.95,0.5180909039743655
45,230.11,0.5109100874206141
46,233.85,0.5024293274643387
47,239.85,0.48878372023822814
48,239.88329199999998,0.48870781978856337
49,246.0,0.47796101219245785
50,251.73000000000002,0.46790841054576715
51,257.0,0.4586299125970656
52,259.98,0.453418254149223
53,264.2,0.4460159576546271
54,269.11,0.4373946618130475
55,274.12,0.42859698758060066
56,275.42287,0.42630902534343085
57,279.21000000000004,0.42120542052079585
58,283.75,0.41508869346132654
59,289.69,0.40707645668219694
60,295.76,0.3988995319205275
61,301.25,0.39149702746557447
62,308.27,0.3820391689084213
63,316.227766,0.3713186016124795
64,317.64,0.3698979105574977
65,328.05,0.3594197542598037
66,338.01,0.3493930126141715
67,348.28,0.3390532518837857
68,357.21999999999997,0.3300539641428267
69,363.078055,0.32415879582209506
70,366.38,0.32167077286869933
71,374.91999999999996,0.3152316765407283
72,385.42,0.30730833613092784
73,395.30999999999995,0.2998613370588397
74,405.45,0.2922215102008039
75,413.94,0.2858220966300224
76,416.86938299999997,0.2836132108997457
77,421.63,0.28087187933565205
78,430.46000000000004,0.275788724376871
79,441.5,0.2694436553139103
80,450.74999999999994,0.2641245716217558
81,460.19,0.25869029672878935
82,469.82000000000005,0.2531560781350111
83,478.630092,0.24810306588552997
84,479.66,0.2476493059451302
85,489.7,0.2432035068583989
86,499.96,0.23870096194048424
87,505.75,0.23614251508797682
88,511.59999999999997,0.23371861609969213
89,519.92,0.2300578749385761
90,529.5799999999999,0.22580610317843422
91,539.43,0.22142927560499764
92,549.46,0.21707388332422917
93,549.5408739999999,0.21703946315744177
94,559.6700000000001,0.21379231643136923
95,570.08,0.21041852921940282
96,579.34,0.20733810585256232
97,590.11,0.20385410880559993
98,599.7,0.20059870830667983
99,609.4399999999999,0.19740702729317813
100,619.35,0.1944224298964838
101,629.41,0.19111707598520788
102,630.957344,0.19062903214764815
103,639.64,0.18849842613568632
104,650.0300000000001,0.18587029830869986
105,657.56,0.18389167857075886
106,665.1700000000001,0.18215217804011716
107,674.4300000000001,0.1799207355350263
108,685.38,0.17688108615913595
109,694.92,0.17495192137959306
110,704.5899999999999,0.17208442068691177
111,716.03,0.16990184833073038
112,724.43596,0.167885008611462
113,726.0,0.1676176987024416
114,734.4000000000001,0.16619691110590212
115,744.62,0.16442961983011248
116,754.9799999999999,0.1626508501943805
117,765.48,0.16049713619870612
118,774.34,0.159479775419499
119,785.12,0.15738734870394006
120,794.21,0.15617315333339915
121,805.26,0.15440164092366568
122,814.58,0.15292251196179094
123,825.91,0.15118480183217287
124,831.763771,0.14934998618256834
125,835.48,0.14837172997988216
126,845.1500000000001,0.14862110428627104
127,854.94,0.14743037360887165
128,864.84,0.1466157939463329
129,874.8499999999999,0.14563874029865484
130,884.9799999999999,0.1446491326671884
131,895.23,0.14359774405193362
132,905.59,0.14225309945153955
133,913.97,0.1424759925836532
134,924.56,0.17501867001433144
135,935.26,0.21798969145987035
136,943.9200000000001,0.2829781566298112
137,954.85,0.33230656010642246
138,954.992586,0.33262686725164187
139,965.9,0.3571644430719425
140,974.84,0.17520091659268738
141,986.1300000000001,0.31657160364517173
142,995.25,0.3212310469683477
143,1004.4599999999999,0.3976921051927393
144,1016.09,0.3915140196498157
145,1025.5,0.25497109987690847
146,1034.98,0.3255037028049467
147,1044.56,0.46861986673433553
148,1054.23,0.45507514556493994
149,1063.98,0.3896824931966248
150,1073.8300000000002,0.43366750182966024
151,1083.76,0.37476997926377625
152,1093.79,0.4461647176992428
153,1096.4782,0.4404931876952575
154,1103.91,0.42500951171983636
155,1114.12,0.412856330979389
156,1124.43,0.37523504641190497
157,1134.84,0.44199265801738424
158,1145.34,0.41492195617853045
159,1155.94,0.42631875051263995
160,1163.95,0.42918355396700003
161,1174.72,0.32090051179514717
162,1185.59,0.41976536579625756
163,1193.81,0.3527924712138406
164,1204.85,0.28991208870898866
165,1216.0,0.23537461199439627
166,1224.43,0.34321421937520225
167,1235.76,0.42217481577194377
168,1244.32,0.4369542481776021
169,1255.84,0.4228840273029739
170,1258.92541,0.4142547976718214
171,1264.5400000000002,0.39874388907203295
172,1276.2399999999998,0.4469123223755043
173,1285.0900000000001,0.45377880782300184
174,1293.9999999999998,0.3869574016464147
175,1305.9699999999998,0.39234392264150464
176,1315.02,0.4469915360087196
177,1324.14,0.4272561091478357
178,1336.39,0.39924186923053
179,1345.6599999999999,0.4360173133094343
180,1354.98,0.42706011436826785
181,1364.38,0.39686022659498843
182,1373.8300000000002,0.4005343958016383
183,1386.54,0.4002121200996828
184,1396.1599999999999,0.33702056303809264
185,1405.8300000000002,0.3436121629564317
186,1415.58,0.3773442740426579
187,1425.39,0.3751047935047992
188,1435.27,0.3813727727388416
189,1441.9,0.3902821482774754
190,1445.43977,0.38998367824083296
191,1448.5500000000002,0.3898011319724133
192,1455.2399999999998,0.3806418594417422
193,1465.32,0.3605196851354396
194,1475.48,0.3633174721441663
195,1485.71,0.3640740128035438
196,1496.0100000000002,0.36346420711357186
197,1506.3799999999999,0.3461833550742507
198,1513.33,0.319847281817425
199,1516.8200000000002,0.3316725566855801
200,1523.82,0.3306460217506478
201,1534.3799999999999,0.2961306153345213
202,1545.02,0.2938958702334241
203,1555.7299999999998,0.2874796787829776
204,1566.5100000000002,0.3029675409831818
205,1573.7400000000002,0.3180378823289588
206,1584.6499999999999,0.32398784416608567
207,1595.64,0.32577686731824185
208,1606.7,0.3220712441210487
209,1614.11,0.3198231234256418
210,1625.3000000000002,0.31203819986537135
211,1636.57,0.32519323762013025
212,1644.1200000000001,0.32598612422602463
213,1655.52,0.3161660616177062
214,1659.58691,0.3227855195498297
215,1663.1599999999999,0.3286646298989325
216,1670.8400000000001,0.3101259153966509
217,1678.55,0.33374305630646983
218,1686.3,0.3353550377657559
219,1694.08,0.32178657463714255
220,1705.8200000000002,0.3140102259057902
221,1713.7,0.300836814150845
222,1725.58,0.29807605734262815
223,1733.5400000000002,0.31107002668661754
224,1745.56,0.30469236180153614
225,1753.61,0.313229997381827
226,1765.7700000000002,0.300964224419881
227,1773.9199999999998,0.29776741137384005
228,1786.21,0.30242534519766284
229,1794.46,0.31093568352529
230,1806.8999999999999,0.31101799440961514
231,1815.24,0.2904419989735437
232,1823.62,0.29627554408693957
233,1836.2600000000002,0.2890138577186011
234,1844.73,0.2715772690682984
235,1853.25,0.2712236061048297
236,1866.1,0.27536800762119445
237,1874.71,0.2885297108940272
238,1883.3600000000001,0.2684381547163272
239,1896.42,0.2579052441173952
240,1905.1699999999998,0.27217803931336343
241,1905.46072,0.27181224263439996
242,1913.96,0.26121228472639163
243,1922.8,0.25409733251297817
244,1936.13,0.2645501760644713
245,1945.0600000000002,0.2699242876859892
246,1954.04,0.25266597921580225
247,1967.59,0.2692376343637941
248,1976.67,0.27581408571019755
249,1985.79,0.2630411209832371
250,1994.96,0.2582560361645718
251,2004.17,0.26451903527254267
252,2013.4199999999998,0.2601889183071497
253,2022.71,0.2675634852683928
254,2036.73,0.2530545515543593
255,2046.1299999999999,0.2576916743138518
256,2055.58,0.24111237698163954
257,2065.06,0.24643186759440433
258,2074.6,0.26288703409712333
259,2079.38,0.24837941333014185
260,2084.17,0.25603728854481944
261,2093.79,0.24555902290081072
262,2103.46,0.24908643716509715
263,2113.17,0.2507277353560198
264,2122.92,0.2518986174735785
265,2132.72,0.2443743794994324
266,2142.56,0.24125392545192242
267,2157.42,0.2474445541972478
268,2167.3700000000003,0.24332185594798722
269,2177.3799999999997,0.2420684335886809
270,2187.43,0.23710419515601064
271,2187.7616199999998,0.2372782149336489
272,2197.53,0.24250029415420393
273,2202.59,0.23910761846543535
274,2212.76,0.2329319386720013
275,2222.97,0.22824833614584966
276,2233.23,0.23296130520380115
277,2243.54,0.2291544458458557
278,2253.9,0.22324305807201333
279,2264.2999999999997,0.22608044756545342
280,2274.75,0.22674440864299658
281,2285.25,0.22785204130464284
282,2295.8,0.21770784555039216
283,2306.4,0.21962712138024454
284,2317.04,0.21439067447737942
285,2322.38,0.18855573965958808
286,2333.1,0.20599204729128787
287,2343.8700000000003,0.20421372650709071
288,2354.69,0.20838537730699666
289,2365.56,0.2018611996910057
290,2376.48,0.20204399365911777
291,2387.4500000000003,0.19535885921133295
292,2392.9500000000003,0.19980473346267147
293,2404.0,0.19542625354945156
294,2415.09,0.1963479509035141
295,2426.2400000000002,0.19957551415850033
296,2437.44,0.19405024899758969
297,2443.06,0.19810705505077558
298,2454.33,0.19637245010760923
299,2465.66,0.19427521106536655
300,2477.04,0.19072224360722695
301,2482.75,0.19135169851179837
302,2494.21,0.1746866855882237
303,2505.73,0.19092013856557272
304,2511.5,0.18079525937106786
305,2511.88643,0.18111701803731406
306,2517.29,0.18564460067891092
307,2523.1,0.18237786160442956
308,2534.74,0.1822212769526287
309,2546.4399999999996,0.17928407279231345
310,2552.31,0.18339161420931765
311,2564.09,0.1811255840376498
312,2575.9300000000003,0.1841358343574675
313,2587.82,0.1825616184201898
314,2593.78,0.18107268057442238
315,2605.7599999999998,0.17779108537437308
316,2617.78,0.17592467716864743
317,2623.82,0.1775465133115274
318,2635.9300000000003,0.17876422584303012
319,2642.01,0.18289084898023383
320,2654.2,0.18379483550038395
321,2666.4500000000003,0.1756021025120197
322,2672.6,0.17791575288928985
323,2684.94,0.1777532406381539
324,2697.33,0.17249146212992258
325,2703.55,0.17307383974725923
326,2716.0299999999997,0.16958948197625628
327,2722.29,0.16852464658791666
328,2734.85,0.1703176628055611
329,2747.48,0.16212420626327204
330,2753.81,0.16266249811499892
331,2766.52,0.16374891556135723
332,2772.8999999999996,0.16621364115598877
333,2785.7,0.16253887933957545
334,2792.1200000000003,0.15045389192853065
335,2805.01,0.15405225084934568
336,2817.9500000000003,0.16241054351306536
337,2824.45,0.16358683009066802
338,2837.49,0.15902949024019694
339,2844.03,0.15771666381212326
340,2857.15,0.15511789795029962
341,2863.7400000000002,0.1595965052651306
342,2876.96,0.15879530688911625
343,2883.5899999999997,0.1580900011982709
344,2884.0315,0.15805340155683406
345,2896.9,0.15704455639086096
346,2910.27,0.16031964978290056
347,2930.45,0.15673343696699626
348,2950.76,0.15382431713096972
349,2971.21,0.15363498204250375
350,2991.81,0.15195622346928137
351,3012.5499999999997,0.15058734964361953
352,3033.43,0.14980546056551838
353,3047.43,0.14851063532158082
354,3068.5499999999997,0.14773744866786928
355,3089.8199999999997,0.14582353852940128
356,3111.2400000000002,0.1453374049061768
357,3132.81,0.14261004779819586
358,3147.27,0.14191884386767176
359,3169.0800000000004,0.14061378918408046
360,3191.05,0.13636240278341558
361,3213.17,0.13695389289799423
362,3227.9999999999995,0.1336543843717375
363,3250.38,0.1360642604460716
364,3272.91,0.13665181303564922
365,3288.02,0.1349156740045137
366,3310.81,0.1333878125538468
367,3311.31121,0.13357399063716324
368,3318.4399999999996,0.13624453652942414
369,3326.0899999999997,0.13646668947427187
370,3333.76,0.13668348909348524
371,3341.44,0.13137801204988142
372,3349.14,0.1371272816806432
373,3356.8700000000003,0.13179362132295339
374,3364.6,0.1271925609652636
375,3372.3599999999997,0.12591487061912224
376,3380.13,0.13087470361016365
377,3387.9300000000003,0.1336840066127535
378,3395.73,0.13154960961534337
379,3403.56,0.13124028262948165
380,3411.4100000000003,0.12789240231798554
381,3419.27,0.12935184534367225
382,3427.15,0.13057813504372456
383,3435.06,0.1313004947553253
384,3442.9700000000003,0.12545845446692605
385,3450.91,0.12814028419007523
386,3458.87,0.12584986058758998
387,3466.84,0.12530706032228756
388,3474.83,0.12723660673135076
389,3482.8399999999997,0.12398279981477958
390,3490.87,0.12738383957257401
391,3498.9199999999996,0.12388032600473406
392,3506.98,0.1257887357740769
393,3515.07,0.12137941555496817
394,3523.17,0.12470061867304226
395,3531.2900000000004,0.12343126846548196
396,3539.4300000000003,0.12607436493228727
397,3547.5899999999997,0.1277749080734582
398,3555.77,0.12621929788899475
399,3563.9700000000003,0.1251764343788969
400,3572.18,0.12077269420598186
401,3580.42,0.11815172404461524
402,3588.67,0.11314936722043144
403,3596.95,0.11850690040779607
404,3605.2400000000002,0.12008994693234348
405,3613.5499999999997,0.11770727013125652
406,3614.78,0.11654388060474186
407,3617.52,0.11688801499283111
408,3620.26,0.12964759938092035
409,3622.99,0.12143127043182682
410,3625.7299999999996,0.13504326481991608
411,3628.47,0.11947765920800534
412,3631.2,0.12161193025891179
413,3633.94,0.12431742464700103
414,3636.68,0.12797581903509028
415,3639.4100000000003,0.12421219008599674
416,3642.15,0.118907084474086
417,3644.89,0.12892417886217525
418,3647.62,0.1234080499130817
419,3650.36,0.12196264430117096
420,3653.1000000000004,0.11366097868926023
421,3655.84,0.11719236307734948
422,3658.5699999999997,0.11658413412825593
423,3661.31,0.11628764851634518
424,3664.0499999999997,0.11612353290443445
425,3666.78,0.12355226395534089
426,3669.52,0.11650006834343016
427,3672.2599999999998,0.11124271273151942
428,3674.9900000000002,0.11718897378242586
429,3677.73,0.11793021817051512
430,3680.4700000000003,0.11975681255860438
431,3683.2,0.11241403360951083
432,3685.9399999999996,0.11166753799760008
433,3688.68,0.12335237238568934
434,3691.42,0.1229234667737786
435,3694.15,0.11733323782468505
436,3696.89,0.11839213221277431
437,3699.6299999999997,0.11335182660086356
438,3702.36,0.10794148765177
439,3705.1,0.10945573203985927
440,3707.84,0.10987930642794852
441,3710.57,0.12217365747885497
442,3713.3100000000004,0.1386975518669442
443,3716.05,0.1960998462550335
444,3718.79,0.27156644064312274
445,3721.52,0.4374797116940292
446,3724.2599999999998,0.6662412060821185
447,3726.9999999999995,0.7224459004702077
448,3729.73,0.5413522715211142
449,3732.47,0.3123617659092034
450,3735.21,0.17590276029729268
451,3737.94,0.13650763134819913
452,3740.6800000000003,0.12440982573628837
453,3743.42,0.12443102012437764
454,3746.1499999999996,0.11439864117528409
455,3748.89,0.11653761556337335
456,3751.63,0.1211596799514626
457,3754.3700000000003,0.12595107433955186
458,3757.1,0.1325486453904583
459,3759.8399999999997,0.13010253977854758
460,3762.58,0.12977963416663682
461,3765.31,0.1283031052175433
462,3768.05,0.12794309960563252
463,3770.79,0.1259523939937218
464,3773.52,0.12612776504462825
465,3776.26,0.1367060594327175
466,3779.0,0.14039095382080677
467,3781.73,0.13742142487171322
468,3784.47,0.13368891925980247
469,3787.2099999999996,0.14419831364789173
470,3789.9500000000003,0.132391708035981
471,3792.68,0.12852217908688743
472,3795.42,0.11878037347497668
473,3798.16,0.12415416786306593
474,3800.8900000000003,0.1271885389139724
475,3801.8939600000003,0.1297977702723179
476,3803.63,0.13431349330032225
477,3806.37,0.13407067994160504
478,3809.1000000000004,0.13443212101120428
479,3811.84,0.14092390765248708
480,3814.5800000000004,0.13953759429376983
481,3817.32,0.1316654809350526
482,3820.0499999999997,0.13514542200465185
483,3822.79,0.13397080864593464
484,3825.5299999999997,0.12840719528721742
485,3828.26,0.12517903635681668
486,3831.0,0.12462392299809943
487,3833.74,0.12214160963938223
488,3836.4700000000003,0.12612975070898147
489,3839.21,0.12310203735026425
490,3841.9500000000003,0.130446223991547
491,3844.68,0.13298906506114627
492,3847.4199999999996,0.13587525170242903
493,3850.1600000000003,0.14027573834371182
494,3852.9,0.1425637249849946
495,3855.63,0.14755786605459384
496,3858.37,0.15394375269587662
497,3861.1099999999997,0.1585506393371594
498,3863.84,0.16410078040675866
499,3866.58,0.16811466704804143
500,3869.32,0.16707235368932422
501,3872.05,0.15534149475892348
502,3874.79,0.13827288140020624
503,3877.53,0.13762246804148903
504,3880.27,0.13803625468277178
505,3883.0,0.14593169575237105
506,3885.74,0.15327058239365382
507,3888.4800000000005,0.1443448690349366
508,3891.21,0.13872371010453585
509,3893.95,0.13060279674581862
510,3896.69,0.1335472833871014
511,3899.42,0.13493062445670065
512,3902.16,0.14075001109798344
513,3904.9,0.1442026977392662
514,3907.63,0.14824913880886545
515,3910.3700000000003,0.14267482545014823
516,3913.11,0.144263912091431
517,3915.8500000000004,0.14171809873271377
518,3918.58,0.14373143980231304
519,3921.3199999999997,0.1411221264435958
520,3924.06,0.13434071308487858
521,3926.79,0.12663875415447784
522,3929.5299999999997,0.12260514079576061
523,3932.27,0.12101762743704338
524,3935.0,0.12407916850664265
525,3937.7400000000002,0.13442535514792542
526,3940.48,0.1364380417892082
527,3943.2099999999996,0.13709598285880745
528,3945.95,0.14190946950009023
529,3948.69,0.13666345614137299
530,3951.4300000000003,0.14174154278265577
531,3954.16,0.13547438385225502
532,3956.8999999999996,0.1297942704935378
533,3959.64,0.12980035713482058
534,3962.37,0.13394199820441982
535,3965.11,0.13385278484570262
536,3967.85,0.14320357148698537
537,3970.5800000000004,0.13409851255658464
538,3973.32,0.1293448991978674
539,3976.06,0.1342695858391502
540,3978.8,0.13494807248043295
541,3981.5299999999997,0.1334776135500322
542,3984.27,0.14162660019131498
543,3987.01,0.14557698683259776
544,3989.74,0.14388952790219703
545,3992.48,0.1448539145434798
546,3995.22,0.14731660118476256
547,3997.9500000000003,0.15091304225436183
548,4000.69,0.1486212288956446
549,4003.43,0.14655721553692738
550,4006.1600000000003,0.14762285660652663
551,4008.9,0.1443251432478094
552,4011.6400000000003,0.14892682988909217
553,4014.38,0.15534971653037496
554,4017.1099999999997,0.1475366575999742
555,4019.85,0.155087244241257
556,4022.5899999999997,0.15669753088253977
557,4025.32,0.153109371952139
558,4028.06,0.15243775859342176
559,4030.7999999999997,0.14369214523470455
560,4033.53,0.15120118630430382
561,4036.27,0.15396557294558658
562,4039.01,0.14781955958686935
563,4041.74,0.14578790065646863
564,4044.4799999999996,0.1535979872977514
565,4047.2200000000003,0.15323347393903416
566,4049.96,0.15529376058031694
567,4052.69,0.1475601016499162
568,4055.43,0.14910678829119897
569,4058.1699999999996,0.15405787493248174
570,4060.9,0.148526716002081
571,4063.64,0.1521435026433638
572,4066.38,0.15568628928464656
573,4069.11,0.15169573035424583
574,4071.8500000000004,0.1475457169955286
575,4074.59,0.14844650363681136
576,4077.33,0.14785429027809413
577,4080.06,0.14351963134769338
578,4082.7999999999997,0.14378511798897614
