,lambda (Angstroms),Total Flux (erg/s/cm^2/Angstrom)
0,102.01,51.48142638643764
1,103.91,51.33470408062952
2,104.712855,51.27270579808763
3,106.08,50.71814082972288
4,108.05,49.91903540368647
5,110.06,49.103704486766105
6,113.93,47.53388824374038
7,117.94000000000001,45.907282782620825
8,120.22644299999999,44.979816281291235
9,120.96000000000001,44.730345086132814
10,124.92,43.38361138605512
11,126.95,42.6932403226318
12,128.13,42.291940886750446
13,131.10999999999999,41.27848976901685
14,132.02,40.96901308541598
15,133.86,40.34325803285718
16,136.98,39.28219511765421
17,138.038426,38.922241086536886
18,139.84,38.48430245400996
19,143.1,37.69183989522658
20,147.11,36.71706233075226
21,150.88,35.80062556805172
22,155.11,34.772368935149245
23,158.489319,33.950901517646074
24,159.09,33.84050957488811
25,162.05,33.2965267445249
26,165.82,32.6036837479102
27,170.07999999999998,31.82078953958913
28,172.84,31.313562306257577
29,176.87,30.572937034486067
30,180.15,29.97014525011847
31,181.82,29.663236018690842
32,181.970086,29.63565351634614
33,186.06,29.062226897158492
34,190.82999999999998,28.39344878343833
35,193.93,27.95881311235494
36,197.99,27.389580588662486
37,202.14,26.80772961071028
38,204.95,26.41375340714382
39,208.929613,25.855791548126884
40,210.21,25.72082829876729
41,216.1,25.09997418833125
42,220.10999999999999,24.67728743463288
43,223.17,24.35473844056775
44,226.79999999999998,23.9721067940546
45,229.95999999999998,23.639017012319144
46,234.23,23.188924194643498
47,239.88329199999998,22.59302110931854
48,240.24,22.564046270123406
49,245.84,22.109166884263466
50,252.14000000000001,21.597427616269854
51,256.83,21.216466092127604
52,259.8,20.975217633301227
53,264.02,20.632433573217465
54,268.93,20.23360186735146
55,273.93,19.827459602757795
56,275.42287,19.70619608347822
57,279.03000000000003,19.481330447183236
58,284.21,19.15841334892802
59,290.16,18.78749502834223
60,296.24,18.408472670603494
61,301.05,18.108621081512798
62,308.07,17.670999899532486
63,316.227766,17.16245131739036
64,318.15999999999997,17.072484064180507
65,327.83,16.62223668158513
66,337.79,16.158486539002194
67,348.05,15.680768025070616
68,356.98,15.264976058129776
69,363.078055,14.981043049641613
70,366.14,14.874274799029907
71,374.67,14.576838589061097
72,385.16,14.211058132554614
73,395.03999999999996,13.866548464905863
74,405.18,13.512972693643142
75,413.66,13.217280051693441
76,416.86938299999997,13.105370689675635
77,422.32,12.960229159664514
78,430.17,12.75119587321748
79,441.21,12.457218064975535
80,451.49,12.183477695665848
81,459.88,11.960065004476444
82,469.51,11.70363324014957
83,478.630092,11.460779621199286
84,480.45,11.423508488541732
85,490.51,11.217482458290988
86,499.63,11.030708212884312
87,506.58000000000004,10.888375071468456
88,512.4399999999999,10.768378005222367
89,519.57,10.62236017567967
90,530.45,10.399544031109423
91,540.3100000000001,10.19761446934795
92,549.5408739999999,10.008585176319654
93,550.36,9.995789488450223
94,560.59,9.835980656744507
95,569.7,9.693670486009264
96,580.29,9.528223459191969
97,589.7199999999999,9.380928584960875
98,600.6800000000001,9.209715349430567
99,610.44,9.057269022872191
100,620.36,8.902321145530893
101,630.44,8.74487215590667
102,630.957344,8.7367902375929
103,640.69,8.616261555466492
104,649.6,8.505963987605432
105,658.6400000000001,8.394044060570415
106,664.73,8.318647602275144
107,675.53,8.184903110946587
108,684.93,8.06850004606062
109,694.4599999999999,7.950624257600698
110,705.74,7.810924007737535
111,715.56,7.689436677058791
112,724.43596,7.579559923128827
113,725.51,7.569692243855223
114,735.61,7.476895889307142
115,745.84,7.383005107873892
116,754.48,7.3036858303593
117,764.9699999999999,7.2073628872557025
118,775.61,7.109700362669212
119,784.59,7.0273030330933945
120,795.51,6.92702833493884
121,804.72,6.842484605289258
122,815.91,6.739729498265495
123,825.36,6.6531157868432835
124,831.763771,6.5939915254748955
125,834.92,6.572178223231212
126,844.59,6.506340581000666
127,854.37,6.4392674638771155
128,864.26,6.37158773686056
129,874.2700000000001,6.303100963597087
130,884.39,6.233953810440612
131,894.63,6.163874895037223
132,904.99,6.0927165263869165
133,915.47,6.023414527489695
134,923.94,6.011776397728297
135,934.6400000000001,6.006639109045067
136,945.46,6.055207132114922
137,954.21,6.118967547444056
138,954.992586,6.115689590297218
139,965.26,6.074207315946502
140,974.19,5.672104554303631
141,985.4699999999999,5.849035416965265
142,994.59,5.84086781826616
143,1006.11,5.9944343988567645
144,1015.42,5.93451337310143
145,1024.81,5.535821283322417
146,1034.3,5.605396163513809
147,1043.87,6.000042679681527
148,1055.95,5.9155279121063975
149,1065.72,5.637255668214921
150,1075.59,5.735277794293852
151,1085.54,5.469158956349105
152,1095.58,5.677116721377723
153,1096.4782,5.669083645318168
154,1105.72,5.597691303461945
155,1115.95,5.49856329723532
156,1126.28,5.356172119784585
157,1134.08,5.5853571643038755
158,1144.5800000000002,5.4305182857721475
159,1155.1699999999998,5.465013083138723
160,1165.86,5.447093009281185
161,1173.94,5.050088834372962
162,1184.8,5.334772759434435
163,1195.76,4.888730413271795
164,1204.05,4.630497948792939
165,1215.19,4.469763754426897
166,1223.62,4.806078030234285
167,1234.94,5.197916487664842
168,1246.36,5.27217567387129
169,1255.0,5.151524960108041
170,1258.92541,5.039654386260673
171,1263.7,4.911129176925442
172,1275.3999999999999,5.260863829551299
173,1284.24,5.324141744868614
174,1296.1200000000001,4.878506038304099
175,1305.1,4.835029563140014
176,1314.15,5.181426392735229
177,1326.31,5.066307905207916
178,1335.5,4.8221283443217295
179,1344.7600000000002,5.122757088194843
180,1354.08,5.039076379004502
181,1363.47,4.809029974573459
182,1376.0800000000002,4.856655589070216
183,1385.62,4.844217551980531
184,1395.23,4.619253819650146
185,1404.9,4.639048634256302
186,1414.64,4.6206657536217595
187,1424.4399999999998,4.649796419923762
188,1434.32,4.599668148807818
189,1440.94,4.673987827473047
190,1445.43977,4.680434307683838
191,1447.59,4.686062947123933
192,1454.27,4.6169684230878225
193,1464.3500000000001,4.457796788015368
194,1474.5,4.437285412421577
195,1484.72,4.45130129630645
196,1495.01,4.463039439669988
197,1505.38,4.342984451009139
198,1512.3200000000002,4.148912747893778
199,1515.81,4.251868113330003
200,1526.32,4.166163643626481
201,1533.36,3.9655830254806412
202,1543.99,4.082478857740542
203,1554.69,3.982062949479108
204,1565.47,3.970793909193289
205,1576.32,4.022113128386134
206,1583.6,4.08592611416714
207,1594.58,4.082924243820359
208,1605.63,4.034325632952242
209,1616.7599999999998,4.018664890059742
210,1624.22,3.9155728287858804
211,1635.48,3.981933996353755
212,1646.82,3.9719320318972438
213,1654.42,3.8399704895807107
214,1659.58691,3.88527533498279
215,1665.88,3.945619516596758
216,1673.5700000000002,3.755492573321394
217,1677.43,3.916175324811265
218,1685.17,3.985035458627739
219,1696.8600000000001,3.8644786826993913
220,1704.69,3.7876681552811737
221,1716.5,3.674729164373237
222,1724.43,3.6558627911386945
223,1736.3799999999999,3.723083216087903
224,1744.4,3.677266181618669
225,1756.49,3.7515680224250225
226,1764.5900000000001,3.6098335113027282
227,1776.8300000000002,3.613036583384595
228,1785.03,3.6281392264459766
229,1793.2699999999998,3.7123761311808288
230,1805.7,3.6828436962116786
231,1814.0300000000002,3.5321349397118373
232,1826.61,3.5462547360182013
233,1835.04,3.4705021337020354
234,1843.5099999999998,3.3447797930593413
235,1856.29,3.307486897733055
236,1864.8500000000001,3.3280158958556667
237,1873.46,3.4397319710701177
238,1886.45,3.28958619952955
239,1895.1599999999999,3.216923428927676
240,1903.9,3.281148104580905
241,1905.46072,3.270644855338181
242,1917.1,3.198281514724512
243,1925.9499999999998,3.1709854897528746
244,1934.84,3.210087229640122
245,1943.77,3.226998734386255
246,1957.24,3.1187435506158643
247,1966.28,3.2268784087239313
248,1975.35,3.2534330904761632
249,1984.47,3.1575334783020015
250,1993.63,3.105063630986724
251,2002.83,3.136455548530333
252,2016.7199999999998,3.0575268957782376
253,2026.03,3.1147081666837804
254,2035.3799999999999,3.0150152024482084
255,2044.77,3.049751003071522
256,2054.21,2.979589509768442
257,2063.69,2.967898781324247
258,2073.2200000000003,3.0307757589536584
259,2078.0,2.9426056595904466
260,2082.79,2.9847175014419562
261,2097.22,2.888928674284812
262,2106.9,2.8862277701350427
263,2116.63,2.878538572058881
264,2126.4,2.8806711388416044
265,2136.21,2.7816993704832127
266,2146.08,2.7847824494131492
267,2155.98,2.81203925198725
268,2165.9300000000003,2.762842760634957
269,2175.9300000000003,2.73297197535627
270,2185.9700000000003,2.6851631549364687
271,2187.7616199999998,2.69081012910367
272,2196.06,2.720739191097169
273,2206.2000000000003,2.679048279445598
274,2216.38,2.618691721988695
275,2226.61,2.5669352072751277
276,2236.89,2.6096270353048956
277,2247.2200000000003,2.5547866060779993
278,2257.5899999999997,2.5131123310457717
279,2262.79,2.538982976352658
280,2273.24,2.5548968097097666
281,2283.73,2.569343897261543
282,2294.27,2.5111380275566555
283,2304.86,2.495591800595103
284,2315.5,2.4459021163768866
285,2326.19,2.2359194749020053
286,2336.9300000000003,2.375274776170459
287,2342.31,2.3594459153533536
288,2353.12,2.4026945364624774
289,2363.99,2.3364519888636037
290,2374.9,2.347015795459398
291,2385.86,2.2917885447985284
292,2396.87,2.338772436880994
293,2402.4,2.2967067042938942
294,2413.4900000000002,2.3088967047656963
295,2424.63,2.335268247980834
296,2435.8199999999997,2.290871233939308
297,2447.06,2.3311244626411165
298,2452.7,2.3122864040893547
299,2464.02,2.3022168411805
300,2475.4,2.2650467095636477
301,2486.8199999999997,2.2918344321414645
302,2492.56,2.2365430590763733
303,2504.0600000000004,2.304866990043526
304,2511.88643,2.2459593350975857
305,2515.62,2.2187628985855112
306,2527.2299999999996,2.205598679427118
307,2533.06,2.211227552752403
308,2544.75,2.1830815388883535
309,2556.4900000000002,2.222998890833268
310,2562.39,2.209447956291105
311,2574.22,2.2495868266921564
312,2586.1,2.233773662902172
313,2592.06,2.2258917073307662
314,2604.0200000000004,2.190281448835125
315,2616.04,2.178607669310243
316,2622.07,2.2024905058713875
317,2634.18,2.202785644802641
318,2646.3399999999997,2.24958094954286
319,2652.4399999999996,2.2456703782365555
320,2664.68,2.174978388271117
321,2676.98,2.2042720772764364
322,2683.15,2.189812898102682
323,2695.5299999999997,2.1591489924023457
324,2707.98,2.165501378834559
325,2714.22,2.134937391793356
326,2726.75,2.132893483519913
327,2733.03,2.1682464491258813
328,2745.65,2.0675318593085747
329,2751.98,2.0691843907235077
330,2764.68,2.0823657062005454
331,2777.44,2.1104152006483403
332,2783.84,2.0919726241958236
333,2796.69,1.9456608370997552
334,2803.14,1.9945818264562036
335,2816.0800000000004,2.091694757816271
336,2822.5699999999997,2.1000738998198916
337,2835.6,2.050442149636096
338,2842.1400000000003,2.03618675744868
339,2855.26,2.025686625721021
340,2861.84,2.0601093861807778
341,2875.05,2.0371442729092553
342,2884.0315,2.035518171792276
343,2888.3199999999997,2.0356345305369317
344,2894.9700000000003,2.018382498734726
345,2908.3399999999997,2.0584498000587126
346,2928.5,2.0284774994372894
347,2948.7999999999997,2.0112687286726616
348,2969.2400000000002,2.0106877877648293
349,2989.82,2.001719676713793
350,3010.54,1.9990134955195527
351,3031.41,1.989912839171879
352,3052.42,1.9722756126810006
353,3066.51,1.9619036532685077
354,3087.7700000000004,1.9547059015219075
355,3109.17,1.9327629796321033
356,3130.73,1.9191473775786365
357,3152.43,1.9117332053819658
358,3166.98,1.8970429154989443
359,3188.93,1.8609011180465513
360,3211.03,1.8674077454407252
361,3233.29,1.8433615926712372
362,3248.22,1.8449172123995186
363,3270.73,1.839104634374308
364,3293.4,1.8250317761854356
365,3308.6,1.8183418606375374
366,3311.31121,1.8182419547439588
367,3323.88,1.81961369142403
368,3331.54,1.8132378179521238
369,3339.22,1.7806374542100558
370,3346.92,1.8087183001978262
371,3354.63,1.7721052010505156
372,3362.3599999999997,1.7777852116330441
373,3370.12,1.7556836868103294
374,3377.89,1.755332616852534
375,3385.67,1.782975901759658
376,3393.48,1.7929637512615395
377,3401.2999999999997,1.8073136556283402
378,3409.14,1.7519721697249793
379,3417.0,1.7737359935514565
380,3424.88,1.781652427107772
381,3432.77,1.789695615529007
382,3440.68,1.7811326136800805
383,3448.62,1.7502305764259112
384,3456.5699999999997,1.7257719940366614
385,3464.53,1.7188102665123304
386,3472.52,1.7354610035827571
387,3480.53,1.726430350383022
388,3488.55,1.7333129520482065
389,3496.59,1.7342533634432291
390,3504.65,1.7112792845680902
391,3512.73,1.7042684154227894
392,3520.83,1.7149615560073272
393,3528.9500000000003,1.7059082063217033
394,3537.0800000000004,1.7187125115009985
395,3545.2299999999996,1.7236497264101325
396,3553.4100000000003,1.7245646059140234
397,3561.6,1.721429840282834
398,3569.81,1.6942060843814826
399,3578.04,1.6580923382099697
400,3586.29,1.6473762017682954
401,3594.55,1.65179272019154
402,3602.84,1.671747203209542
403,3611.15,1.6646560959573826
404,3619.4700000000003,1.6751829435701424
405,3627.8100000000004,1.6980531009127406
406,3636.17,1.672747767985177
407,3636.96,1.6401294023137925
408,3639.6299999999997,1.7895569512472143
409,3642.2900000000004,1.6029442453157166
410,3644.96,1.5088458942491383
411,3647.63,1.5199748431825602
412,3650.29,1.4585071372510625
413,3652.96,1.7862328861844843
414,3655.63,1.596364135117906
415,3658.2999999999997,1.880537084051328
416,3660.9599999999996,1.9129030781198304
417,3663.63,1.499318927053252
418,3666.3,1.6990987759866736
419,3668.96,1.5926089700551762
420,3671.63,1.6298470189885976
421,3674.2999999999997,1.4624273679220197
422,3676.96,1.538487161990522
423,3679.6299999999997,1.5978510109239439
424,3682.3,1.7117840598573655
425,3684.96,1.812697753925868
426,3687.63,1.4906493028592895
427,3690.3,1.4435121517927112
428,3692.96,1.3502465458612138
429,3695.6299999999997,1.5571869947946357
430,3698.2999999999997,1.6500352437280574
431,3700.9599999999996,1.54295303779656
432,3703.63,1.4078154867299815
433,3706.3,1.617985535663403
434,3708.96,1.5423959297319056
435,3711.63,1.8479238786653274
436,3714.2999999999997,1.519164027598749
437,3716.96,1.5979157216672517
438,3719.6299999999997,1.7916127706006733
439,3722.3,2.178446219534095
440,3724.96,2.5063082136025976
441,3727.63,3.4634736625360194
442,3730.2999999999997,3.994937111469441
443,3732.96,3.8694701055379435
444,3735.6299999999997,2.9380915544713653
445,3738.3,2.229138003404787
446,3740.96,1.9360619974732893
447,3743.63,1.799308446406711
448,3746.3,1.7080452953401326
449,3748.96,1.7974928894086353
450,3751.63,1.671542438342057
451,3754.2999999999997,1.4828940872754788
452,3756.9599999999996,1.7075355813439814
453,3759.63,1.6422740302774028
454,3762.3,1.7097125792108245
455,3764.96,1.694614673279327
456,3767.63,1.6479437222127489
457,3770.2999999999997,1.8128395711461707
458,3772.96,1.6903072652146731
459,3775.6299999999997,1.8039890141480948
460,3778.3,2.0186804630815165
461,3780.96,1.931177457150019
462,3783.63,1.8830169060834407
463,3786.3,2.1421203550168624
464,3788.96,2.036942349085365
465,3791.6299999999997,2.077409798018787
466,3794.2999999999997,2.0097072469522086
467,3796.9599999999996,1.901082241020711
468,3799.63,1.7514629899541325
469,3801.8939600000003,1.7513283809411395
470,3802.3,1.7513459877084019
471,3804.96,1.755238381588387
472,3807.63,1.9035403585280717
473,3810.2999999999997,1.8194243354677564
474,3812.96,1.9299968293477416
475,3815.6299999999997,1.9089198062874262
476,3818.3,1.8363417832271105
477,3820.9700000000003,1.908110760166795
478,3823.63,2.0141972540467803
479,3826.3,1.974045230986465
480,3828.97,1.9514072079261497
481,3831.6299999999997,1.720225201806135
482,3834.2999999999997,1.7426101787458195
483,3836.9700000000003,1.6944013556855038
484,3839.63,1.539232149565489
485,3842.3,1.563088926505174
486,3844.97,1.8299151034448584
487,3847.63,1.9232075973248435
488,3850.2999999999997,1.8389115742645283
489,3852.97,1.846384551204213
490,3855.63,1.971493045084198
491,3858.3,2.0307170220238824
492,3860.9700000000003,1.9555369989635671
493,3863.63,2.1108284928435523
494,3866.2999999999997,2.102976469783237
495,3868.97,2.129990446722922
496,3871.6299999999997,2.053545940602907
497,3874.3,2.0147749175425913
498,3876.9700000000003,1.9514928944822758
499,3879.63,1.8536393883622615
500,3882.3,2.0639753653019457
501,3884.97,1.9494253422416303
502,3887.63,1.949100836121616
503,3890.2999999999997,1.6763868130613004
504,3892.9700000000003,1.7164294900009849
505,3895.63,1.76268828388097
506,3898.3,1.8177322608206548
507,3900.9700000000003,1.8183332377603394
508,3903.63,1.9624267316403246
509,3906.2999999999997,2.0777287085800094
510,3908.97,2.155974685519694
511,3911.6299999999997,1.933819179399679
512,3914.3,2.0169821563393637
513,3916.9700000000003,2.3198221332790485
514,3919.63,2.0439776271590335
515,3922.3,2.120680604098718
516,3924.97,2.0489815810384027
517,3927.6299999999997,2.246066074918388
518,3930.2999999999997,2.0543360518580727
519,3932.9700000000003,1.8401930287977568
520,3935.63,1.9500485226777422
521,3938.3,1.976344499617427
522,3940.97,1.9544424765571113
523,3943.63,2.010015970437097
524,3946.2999999999997,1.9941239473767816
525,3948.97,2.129810924316466
526,3951.6299999999997,2.080193418196451
527,3954.3,1.9734663951361355
528,3956.9700000000003,1.8821543720758203
529,3959.63,1.9247348659558055
530,3962.3,1.8258678428954904
531,3964.97,1.8942088198351748
532,3967.6299999999997,1.7208443137151601
533,3970.2999999999997,1.7985712906548446
534,3972.9700000000003,1.522214467594529
535,3975.63,1.6579808614745146
536,3978.3,1.703317138414199
537,3980.97,1.8403327153538838
538,3983.64,1.934997692293568
539,3986.2999999999997,1.9173751861735535
540,3988.97,1.8916141631132377
541,3991.6400000000003,2.0523871400529226
542,3994.3,2.0703846339329077
543,3996.9700000000003,2.141255610872592
544,3999.64,1.9635405878122771
545,4002.2999999999997,2.1627960816922625
546,4004.97,2.1145140586319466
547,4007.64,1.9136150355716315
548,4010.3,1.9629255294516166
549,4012.9700000000003,1.9923795063913012
550,4015.64,1.9724154833309857
551,4018.3,2.1560409772109708
552,4020.97,2.1420519541506557
553,4023.64,2.08264493109034
554,4026.2999999999997,2.1819144249703255
555,4028.9700000000003,2.22152540191001
556,4031.6400000000003,2.0836463788496946
557,4034.3,2.0704028727296797
558,4036.97,2.1074298496693644
559,4039.64,2.080215826609049
560,4042.2999999999997,2.1444923204890345
561,4044.97,2.034732297428719
562,4047.6400000000003,2.134350274368403
563,4050.3,2.004915768248389
564,4052.9700000000003,1.9368767451880733
565,4055.64,2.0008937221277576
566,4058.3,2.038557216007743
567,4060.97,2.2203081929474275
568,4063.64,2.0200001698871124
569,4066.2999999999997,2.0306946637670977
570,4068.9700000000003,2.091480640706782
571,4071.6400000000003,2.1710896176464667
572,4074.3,2.0744931115264515
573,4076.97,2.1590020884661367
574,4079.64,2.004022065405821
575,4082.2999999999997,2.0286055592858063
576,4084.97,2.070280536225491
577,4087.6400000000003,2.073823513165175
578,4090.3,2.081197007045161
579,4092.9700000000003,1.8997319839848452
580,4095.64,2.06721596092453
581,4098.3,1.894426454804515
582,4100.97,1.9001044317441997
583,4103.64,1.8361404086838844
584,4106.3,1.7317369025638696
585,4108.97,1.842318879503554
586,4111.639999999999,1.701785856443239
587,4114.3,1.933915350323224
588,4116.969999999999,1.9840603272629087
589,4119.64,1.966661304202593
590,4122.3,2.0502827980825784
591,4124.97,2.091239775022263
592,4127.64,2.0758147519619476
593,4130.3,1.963893245841933
594,4132.97,1.8710552227816175
595,4135.639999999999,1.9893001997213022
596,4138.3,2.1402496936012874
597,4140.97,2.106018670540972
598,4143.64,1.9757846474806562
599,4146.31,2.0304336244203407
600,4148.97,1.9337291183003262
601,4151.639999999999,1.896717095240011
602,4154.31,1.9081200721796951
603,4156.97,1.9597625660596805
604,4159.64,1.9809995429993652
605,4162.31,2.0844035199390496
