,lambda (Angstroms),Total Flux (erg/s/cm^2/Angstrom)
0,102.00000000000001,84.66701996817146
1,103.9,84.42572218505009
2,104.712855,84.32249054847443
3,106.07000000000001,83.41713056933064
4,108.05,82.0962600958891
5,110.05,80.76204749650013
6,113.91999999999999,78.18034611671831
7,117.92,75.51192091810965
8,120.22644299999999,73.9732782650119
9,120.95,73.56859385031032
10,124.91,71.3537714060338
11,126.94,70.21839525422426
12,128.12,69.55842290995254
13,131.1,67.8917130917129
14,132.01,67.3827513706326
15,133.85,66.35364195355412
16,136.96,64.61422332292915
17,138.038426,64.01106117575165
18,140.15,63.16690141891215
19,143.09,61.99155565825649
20,147.10000000000002,60.38844812555203
21,150.87,58.88128706547365
22,155.1,57.19022838647237
23,158.489319,55.835255061207036
24,159.07999999999998,55.65672818064117
25,162.02999999999997,54.76512292095232
26,166.19,53.507808423643006
27,170.06,52.33814329290087
28,172.82,51.50396355787706
29,176.85,50.28594025557477
30,180.14,49.29157385216339
31,181.8,48.789857136277234
32,181.970086,48.73845051305381
33,186.04,47.80001186530621
34,190.81,46.700147916855734
35,193.91,45.985351698879356
36,197.97,45.04919926638278
37,202.12,44.09229480698477
38,204.93,43.44436683864864
39,208.929613,42.52213842834649
40,210.19,42.30364673606938
41,216.07999999999998,41.28259944738836
42,220.09,40.58745518643862
43,223.15,40.05699586577909
44,226.78,39.427726098260045
45,229.94,38.879939084030084
46,234.21,38.139739157214194
47,239.88329199999998,37.156271335360124
48,240.22000000000003,37.11129226028938
49,245.80999999999997,36.364542182565415
50,252.11999999999998,35.52161680980246
51,256.81,34.89508673460473
52,259.78000000000003,34.49834574234514
53,264.0,33.93461627747412
54,268.91,33.27870952793197
55,273.90999999999997,32.610779825776206
56,275.42287,32.40868178914952
57,279.0,32.04195144337869
58,284.19,31.50986848848179
59,290.14000000000004,30.899864587790326
60,296.21000000000004,30.277566221731323
61,301.03000000000003,29.783415726434384
62,308.04,29.0647483359295
63,316.227766,28.225337293241846
64,318.13,28.079679529882984
65,327.79999999999995,27.33922779937123
66,337.76,26.576568370518377
67,348.02,25.790936355298868
68,356.95,25.107147218078186
69,363.078055,24.637910895286897
70,366.09999999999997,24.46462171894534
71,374.63000000000005,23.975478003739745
72,385.13,23.373356085458656
73,395.01,22.806809106484067
74,405.14,22.225919582200405
75,413.62,21.739643044656628
76,416.86938299999997,21.553308460318217
77,422.28000000000003,21.31636890047868
78,430.14,20.972170129268857
79,441.17,20.48915896759349
80,451.45,20.038982719803037
81,459.84,19.671572501106546
82,469.47,19.24986367405634
83,478.630092,18.848734122720277
84,480.4,18.789125650776956
85,490.46,18.450302754450014
86,499.58000000000004,18.143159864016642
87,506.53,17.90907848410141
88,512.4,17.711421301880925
89,519.52,17.471627523578555
90,530.4,17.105191564001903
91,540.26,16.77309777394806
92,549.5408739999999,16.46053920911581
93,550.31,16.440780145257186
94,560.54,16.17798031809292
95,569.65,15.943956694121322
96,580.24,15.671865790884416
97,589.67,15.429626677014918
98,600.63,15.148032859536684
99,610.39,14.897248352200597
100,620.3100000000001,14.642497226765549
101,630.38,14.383796000300244
102,630.957344,14.368963650524384
103,640.63,14.171975268586692
104,649.54,13.990552426945532
105,658.58,13.80646131598076
106,664.67,13.682465145467107
107,675.4699999999999,13.462508823659642
108,684.8700000000001,13.271037952567957
109,694.39,13.077328445500637
110,705.6800000000001,12.847342636042644
111,715.49,12.647699743284196
112,724.43596,12.465540754009881
113,725.4499999999999,12.450215445676818
114,735.54,12.297722406520242
115,745.7700000000001,12.14320589322869
116,754.41,12.012684952612952
117,764.9,11.854135572927873
118,775.54,11.693479345669601
119,784.52,11.55784164415463
120,795.44,11.392859858626403
121,804.65,11.253732728032544
122,815.84,11.084658235672576
123,825.2900000000001,10.942034014561612
124,831.763771,10.843837629535587
125,834.84,10.808921275181214
126,844.51,10.700294924856093
127,854.2900000000001,10.589874197234614
128,864.18,10.478372164316784
129,874.1899999999999,10.36552850234838
130,884.31,10.251529467083621
131,894.5500000000001,10.13607201676829
132,904.91,10.01896236640239
133,915.39,9.90335394598592
134,925.99,9.831091855518878
135,934.56,9.80103147215732
136,945.38,9.799009654097567
137,954.13,9.82590936916015
138,954.992586,9.816763146603924
139,965.1700000000001,9.711333848019784
140,974.0999999999999,9.287947475028815
141,985.38,9.374650049145481
142,994.5,9.339374954601512
143,1006.02,9.453608014124915
144,1015.3299999999999,9.363916478027948
145,1024.72,8.940271477066554
146,1034.2,8.93782754063269
147,1046.18,9.274482952185675
148,1055.86,9.16360700359076
149,1065.63,8.819933819523369
150,1075.49,8.882283199983506
151,1085.44,8.55740634497117
152,1095.48,8.739031154486359
153,1096.4782,8.725360264394492
154,1105.62,8.618479216437324
155,1115.8500000000001,8.47133437800709
156,1126.1699999999998,8.287215570910318
157,1133.98,8.50683065662487
158,1144.47,8.31118744204685
159,1155.06,8.31599292895045
160,1165.75,8.253009217335672
161,1173.83,7.810913497050602
162,1184.69,8.070145977954576
163,1195.65,7.5688685603401735
164,1203.94,7.279750213166505
165,1215.0800000000002,7.1299067582190165
166,1226.32,7.394635504753152
167,1234.82,7.791157830690886
168,1246.25,7.826133210040098
169,1254.8899999999999,7.658521418052102
170,1258.92541,7.523419708147417
171,1263.59,7.379378141955406
172,1275.28,7.73104392663242
173,1284.12,7.786318020263285
174,1296.0,7.258787797676711
175,1304.99,7.185861832941584
176,1314.03,7.558330182084461
177,1326.1899999999998,7.405762917214703
178,1335.3799999999999,7.106518207991585
179,1344.64,7.438741738197671
180,1353.9599999999998,7.328539045057363
181,1366.49,7.029197902884821
182,1375.96,7.08456615137852
183,1385.5,7.046164639301423
184,1395.1,6.788505903877928
185,1404.77,6.785170407883637
186,1414.51,6.740587151318549
187,1424.31,6.762711671407065
188,1434.1899999999998,6.682716893700386
189,1440.81,6.754009251147934
190,1445.43977,6.758674350661275
191,1447.46,6.764647320095345
192,1454.1399999999999,6.67451142668777
193,1464.22,6.477976300108674
194,1474.3700000000001,6.447914839317224
195,1484.5900000000001,6.463088044313418
196,1494.88,6.466934915097259
197,1505.24,6.318347451668744
198,1512.1899999999998,6.090074269156372
199,1515.67,6.203310654027875
200,1526.18,6.094147474430027
201,1536.76,5.841323960619827
202,1543.85,5.991775109682745
203,1554.5500000000002,5.869726022937077
204,1565.3300000000002,5.834487554234434
205,1576.18,5.883364751319435
206,1583.45,5.956558040979155
207,1594.43,5.942187617384069
208,1605.48,5.876341859576629
209,1616.61,5.8519967198122105
210,1624.07,5.718010102324111
211,1635.3300000000002,5.790616341879604
212,1646.67,5.772980199478122
213,1654.27,5.603287913565313
214,1659.58691,5.656464568895839
215,1665.73,5.726195530915019
216,1673.4199999999998,5.475665013450139
217,1677.28,5.700142428610809
218,1685.0200000000002,5.791247157456296
219,1696.6999999999998,5.638879895559052
220,1704.53,5.54287266776321
221,1716.3500000000001,5.403334695535003
222,1724.27,5.38142151109783
223,1736.22,5.469651379276589
224,1744.24,5.410968687460159
225,1756.3300000000002,5.514674845307957
226,1764.4299999999998,5.321115747588121
227,1776.6599999999999,5.33196019510496
228,1784.8700000000001,5.3502920392679405
229,1793.1,5.47667778195507
230,1805.53,5.429860214713394
231,1813.87,5.24160689928334
232,1826.44,5.254095621710704
233,1834.8700000000001,5.151663349639319
234,1843.34,4.987347874616231
235,1856.12,4.944004031547156
236,1864.69,4.979119049144809
237,1873.29,5.1240434145286855
238,1886.28,4.936645005963171
239,1894.98,4.85521586396779
240,1903.7299999999998,4.927702968282782
241,1905.46072,4.913667488059409
242,1916.93,4.830324396043774
243,1925.77,4.797171508628471
244,1934.66,4.828220016646339
245,1943.5900000000001,4.881662041010745
246,1957.07,4.747138049793745
247,1966.1000000000001,4.911213865024493
248,1975.17,4.945849196601779
249,1984.29,4.822519923612235
250,1993.45,4.752640166969229
251,2007.27,4.783586064697795
252,2016.53,4.685636098921131
253,2025.84,4.769454528577639
254,2035.19,4.645905474580685
255,2044.59,4.715233816016901
256,2054.02,4.61600579471302
257,2063.5,4.594088168842311
258,2073.0299999999997,4.712046938404773
259,2077.81,4.609824141815955
260,2087.4,4.667608185898223
261,2097.03,4.544264746327027
262,2106.71,4.528906702189004
263,2116.44,4.531177053484152
264,2126.21,4.541016921125836
265,2136.02,4.375843305114057
266,2145.88,4.4174130845354505
267,2155.79,4.472629259390016
268,2165.74,4.392410950591117
269,2175.73,4.355332158138755
270,2185.7799999999997,4.3045176402062
271,2187.7616199999998,4.317212416789678
272,2195.86,4.375149126593657
273,2206.0,4.309461711398696
274,2216.1800000000003,4.201864726518546
275,2226.41,4.134327529531914
276,2236.69,4.245748120438797
277,2247.01,4.153397141660492
278,2257.38,4.058577950775705
279,2262.5899999999997,4.101805249280069
280,2273.03,4.1362225614462025
281,2283.52,4.175858661505853
282,2294.06,4.0698765494590186
283,2304.65,4.0514872253057
284,2315.29,3.947695689045898
285,2325.98,3.5698178406796126
286,2336.71,3.796850622628139
287,2347.5,3.7454204500488855
288,2352.91,3.863282900127313
289,2363.77,3.7136862305989813
290,2374.6800000000003,3.747494348964165
291,2385.64,3.6290702552228655
292,2396.66,3.7156843069537846
293,2407.7200000000003,3.6390647889995167
294,2413.27,3.674802245179789
295,2424.41,3.757360587855147
296,2435.6,3.6850887184240206
297,2446.84,3.76186963688641
298,2452.48,3.7352373112750117
299,2463.7999999999997,3.709781090367027
300,2475.17,3.6366716573525575
301,2486.6,3.6617893698103083
302,2492.33,3.5772222624072376
303,2503.8300000000004,3.7277614779159096
304,2511.88643,3.585790149201148
305,2515.3900000000003,3.525446884038324
306,2527.0,3.4909615091592667
307,2532.83,3.515589684392264
308,2544.52,3.4752930700652884
309,2556.26,3.582240181083364
310,2562.16,3.5281617717994336
311,2573.98,3.613548643369592
312,2585.8599999999997,3.579221585353812
313,2597.8,3.542050597752093
314,2603.7900000000004,3.481695294089255
315,2615.81,3.4515530670396193
316,2627.88,3.5169145653350347
317,2633.94,3.577140677155268
318,2646.1,3.7150472810717763
319,2652.2000000000003,3.7637247731680508
320,2664.44,3.5488801376366412
321,2676.7400000000002,3.6306305725192933
322,2682.91,3.61735148009864
323,2695.29,3.5268366755333744
324,2707.73,3.5746129413821706
325,2713.97,3.471712264444589
326,2726.5,3.455497635914478
327,2732.79,3.5385786843219478
328,2745.4,3.283854816343919
329,2758.07,3.3084620187799514
330,2764.43,3.3655374826704945
331,2777.19,3.429043790727619
332,2783.59,3.330126634894202
333,2796.44,3.0268250485724204
334,2802.8900000000003,3.1132496180840548
335,2815.82,3.379253792314355
336,2822.31,3.477942742102031
337,2835.34,3.3990103670224334
338,2841.88,3.3489950421551615
339,2854.9999999999995,3.2681387726966573
340,2868.17,3.4415912285832038
341,2874.79,3.449123664268013
342,2884.0315,3.4247198049296155
343,2888.0499999999997,3.415484059662499
344,2894.7099999999996,3.4038440930393996
345,2908.0699999999997,3.570558235068736
346,2928.23,3.479789173939353
347,2948.5299999999997,3.439832876274349
348,2968.9700000000003,3.4752453420737237
349,2989.55,3.4691305713374785
350,3010.27,3.4904745640656127
351,3031.14,3.4805040890770096
352,3052.15,3.466477377552786
353,3073.2999999999997,3.468362429492942
354,3087.49,3.479196383489671
355,3108.8900000000003,3.4690596559019324
356,3130.44,3.4302994605974577
357,3152.14,3.428053797576246
358,3166.6899999999996,3.4265534290528077
359,3188.64,3.308155986503702
360,3210.7400000000002,3.3767930762378597
361,3232.9999999999995,3.2589194670741666
362,3247.92,3.3850325448494436
363,3270.44,3.45112692497674
364,3293.1,3.4188870685684156
365,3308.3,3.4088826732724513
366,3311.31121,3.4018033255101314
367,3323.58,3.3759050343988966
368,3331.24,3.407280034119527
369,3338.92,3.285711373265015
370,3346.6099999999997,3.4184208821229327
371,3354.33,3.341656900118137
372,3362.06,3.2473440878257707
373,3369.81,3.339402614958262
374,3377.58,3.2898464815156117
375,3385.36,3.3328525177853896
376,3393.1699999999996,3.421342063192456
377,3400.99,3.5429347783119507
378,3408.83,3.344433832856303
379,3416.69,3.3454742268255133
380,3424.57,3.453774960219582
381,3432.46,3.5159618633260807
382,3440.37,3.4290031058574364
383,3448.3,3.2723276878136502
384,3456.25,3.302973609194722
385,3464.2200000000003,3.211607870000652
386,3472.21,3.3886794702314402
387,3480.21,3.246165240174657
388,3488.23,3.328624349542732
389,3496.2700000000004,3.299060798335665
390,3504.33,3.3799255865534565
391,3512.4100000000003,3.3097227141961056
392,3520.51,3.4145121812636128
393,3528.6299999999997,3.204654987755979
394,3536.7599999999998,3.380213963960773
395,3544.91,3.456223279590425
396,3553.08,3.472076934644935
397,3560.4799999999996,3.559517521842411
398,3563.1400000000003,3.7402826653485306
399,3565.8,3.61854480885465
400,3568.46,3.4261519523607697
401,3571.12,3.6579350958668897
402,3573.7799999999997,3.7220692393730093
403,3576.44,3.546536382879129
404,3579.1,3.172460526385249
405,3581.7599999999998,2.9634996698913687
406,3584.4199999999996,3.2075628133974883
407,3587.09,2.9640141266160365
408,3589.75,3.2796562701221568
409,3592.41,3.292943413628276
410,3595.07,3.397229557134396
411,3597.73,3.4593427006405157
412,3600.39,3.349689844146635
413,3603.0499999999997,3.4251039876527547
414,3605.7099999999996,3.103461131158875
415,3608.3700000000003,3.1157982746649937
416,3611.03,3.2229344181711137
417,3613.69,3.1371825616772333
418,3616.35,3.4970467051833536
419,3619.0099999999998,3.2068568486894726
420,3621.67,2.9826689921955927
421,3624.33,3.0935821357017126
422,3626.99,3.3847642792078316
423,3629.6499999999996,3.2837844227139517
424,3632.3100000000004,3.366289566220071
425,3634.9700000000003,3.2405807097261907
426,3637.63,3.2109868532323107
427,3640.29,3.4957129967384297
428,3642.95,3.30375814024455
429,3645.61,3.2355472837506696
430,3648.27,3.291740427256789
431,3650.93,3.372637570762909
432,3653.5899999999997,3.4258807142690286
433,3656.25,3.606962857775148
434,3658.9100000000003,3.3468870012812673
435,3661.57,3.4019581447873875
436,3664.2400000000002,3.466757458005936
437,3666.9,3.1858266015120558
438,3669.56,3.3614257450181757
439,3672.22,3.500308888524295
440,3674.8799999999997,3.4309530320304154
441,3677.5400000000004,3.4981331755365344
442,3680.2000000000003,3.415938319042654
443,3682.86,3.4197964625487733
444,3685.52,3.6107216060548937
445,3688.18,3.7503107495610135
446,3690.84,3.5126008930671326
447,3693.5,3.4568900365732524
448,3696.16,3.2876671800793726
449,3698.8199999999997,3.307288323585492
450,3701.4799999999996,3.034665467091612
451,3704.1400000000003,3.048732610597731
452,3706.8,3.3303877541038505
453,3709.46,3.1396998976099706
454,3712.12,3.55394404111609
455,3714.7799999999997,3.60489818462221
456,3717.44,4.66030432812833
457,3720.1,5.58507147163445
458,3722.7599999999998,6.970804615140569
459,3725.4199999999996,7.317414758646688
460,3728.08,6.4945559021528085
461,3730.7400000000002,5.3315770456589275
462,3733.4,4.429290189165047
463,3736.06,3.936319332671167
464,3738.72,3.6599434761772867
465,3741.39,3.4366387893958357
466,3744.0499999999997,3.4136719329019556
467,3746.7099999999996,3.4350240764080753
468,3749.3700000000003,3.6234872199141943
469,3752.03,3.715762363420314
470,3754.69,3.5070215069264337
471,3757.35,3.5250106504325536
472,3760.0099999999998,3.7851767939386733
473,3762.67,3.7000589374447928
474,3765.33,3.6837920809509126
475,3767.99,3.7963622244570323
476,3770.6499999999996,3.745841367963152
477,3773.3100000000004,3.8748805114692715
478,3775.9700000000003,3.949832654975391
479,3778.63,3.858136798481511
480,3781.29,4.05149694198763
481,3783.95,4.18979608549375
482,3786.61,3.99138522899987
483,3789.27,3.603081372505989
484,3791.93,3.327583516012109
485,3794.5899999999997,3.506861659518229
486,3797.25,3.5508478030243484
487,3799.9100000000003,3.406475946530468
488,3801.8939600000003,3.654618731790034
489,3802.57,3.73928840549868
490,3805.23,4.127036343586727
491,3807.89,3.9570942816747747
492,3810.5499999999997,4.107780219762823
493,3813.21,4.08816315785087
494,3815.87,4.059775095938917
495,3818.5400000000004,4.089353894696468
496,3821.2000000000003,3.938903832784516
497,3823.86,3.545471770872563
498,3826.52,3.3703397089606097
499,3829.18,3.254217647048657
500,3831.84,2.9958345851367048
501,3834.5,3.0599795232247518
502,3837.16,3.426847461312799
503,3839.8199999999997,3.490335399400847
504,3842.4799999999996,3.6725723374888943
505,3845.1400000000003,4.2535252755769415
506,3847.8,4.139132213664988
507,3850.46,4.226717151753036
508,3853.12,4.289937089841083
509,3855.7799999999997,4.487890027929131
510,3858.44,4.347670966017178
511,3861.1,4.370933904105225
512,3863.7599999999998,4.402237842193273
513,3866.42,4.58313678028132
514,3869.08,4.400036718369367
515,3871.7400000000002,4.167478656457414
516,3874.4,3.9312665945454612
517,3877.06,3.835146532633509
518,3879.72,3.748285470721556
519,3882.38,3.633112408809603
520,3885.04,3.4410223468976504
521,3887.7,3.4042042849856977
522,3890.36,3.723416223073745
523,3893.03,3.9413300218312965
524,3895.69,4.098107959919344
525,3898.35,4.236854898007391
526,3901.0099999999998,4.344904836095439
527,3903.67,4.341124774183486
528,3906.33,4.1628987122715335
529,3908.99,4.34866865035958
530,3911.6499999999996,4.526886588447628
531,3914.31,4.332823526535675
532,3916.9700000000003,4.156547464623722
533,3919.63,4.06262040271177
534,3922.29,4.186750340799817
535,3924.95,4.047506278887864
536,3927.61,3.7145692169759115
537,3930.27,3.6342861550639585
538,3932.93,3.566916093152006
539,3935.59,3.459491031240053
540,3938.25,3.6487699693281006
541,3940.9100000000003,4.1317809074161485
542,3943.57,4.313896845504195
543,3946.23,4.359330783592243
544,3948.89,4.389903721680289
545,3951.5499999999997,4.319365659768337
546,3954.21,4.251264597856384
547,3956.87,3.9205195359444316
548,3959.53,3.8312214740324793
549,3962.19,3.7972304121205265
550,3964.85,3.5500293502085736
551,3967.51,3.392073288296621
552,3970.18,3.3597720870541723
553,3972.84,3.5495620251422193
554,3975.5,4.010496963230267
555,3978.16,4.064458901318314
556,3980.8199999999997,4.0628708394063615
557,3983.48,4.295419777494409
558,3986.1400000000003,4.498732715582456
559,3988.8,4.548552653670503
560,3991.46,4.49482659175855
561,3994.12,4.586795529846597
562,3996.7799999999997,4.694114467934646
563,3999.44,4.563641406022692
564,4002.1,4.60152334411074
565,4004.7599999999998,4.4230542821987875
566,4007.42,4.5164862202868346
567,4010.08,4.836014158374882
568,4012.7400000000002,4.745498096462929
569,4015.4,4.615513034550976
570,4018.06,4.560323972639024
571,4020.72,4.7273349107270715
572,4023.3799999999997,4.711615848815118
573,4026.04,4.4632207869031655
574,4028.7000000000003,4.591736724991213
575,4031.36,4.49780966307926
576,4034.02,4.620234601167308
577,4036.6800000000003,4.570650539255355
578,4039.34,4.7186574773434025
579,4042.0,4.634963415431449
580,4044.67,4.797079214189001
581,4047.33,4.607158152277048
582,4049.99,4.6669670903650955
583,4052.6499999999996,4.5479460284531426
584,4055.31,4.55805296654119
585,4057.9700000000003,4.575224904629237
586,4060.63,4.526127842717284
587,4063.29,4.512845780805332
588,4065.95,4.447424718893378
589,4068.6099999999997,4.474829656981426
590,4071.27,4.652072595069473
591,4073.93,4.640252533157521
592,4076.59,4.481760471245568
593,4079.25,4.413172409333615
594,4081.9100000000003,4.345071347421663
595,4084.57,4.30474428550971
596,4087.23,4.278306223597758
597,4089.89,4.126880161685804
598,4092.5499999999997,4.149899099773852
599,4095.21,4.015285037861899
600,4097.87,3.8930949759499467
601,4100.53,3.7112149140379938
602,4103.19,3.834126852126041
603,4105.849999999999,4.120032790214088
604,4108.51,3.9703127283021358
605,4111.17,4.183127666390183
606,4113.83,4.285085604478231
