,lambda (Angstroms),Total Flux (erg/s/cm^2/Angstrom)
0,100.02000000000001,9.23031246716464
1,102.12,9.201323467520783
2,104.01,9.175233367841725
3,104.712855,9.165530956725725
4,105.95,9.075823230428712
5,107.92,8.93297480053272
6,109.92,8.78795101384224
7,114.05,8.488476894324085
8,118.06,8.19770420201672
9,120.22644299999999,8.040611318337957
10,121.09,7.988112570842478
11,125.05000000000001,7.747369875079492
12,127.08000000000001,7.623958846710779
13,127.96,7.570460469892623
14,130.95000000000002,7.388687575927405
15,131.85,7.333973326953472
16,134.0,7.20326706543708
17,137.12,7.013591002312734
18,138.038426,6.957756570293734
19,139.98999999999998,6.872952330282046
20,142.92,6.745631294974785
21,146.92000000000002,6.571814182133809
22,151.04,6.392782555778502
23,154.91,6.224614499473567
24,158.489319,6.069077776583294
25,158.89000000000001,6.055914511876394
26,161.84,5.959000431275106
27,165.98999999999998,5.822663674284791
28,169.86,5.695525542838346
29,173.02,5.591712495273378
30,177.04999999999998,5.459318008497632
31,179.92000000000002,5.36503210954332
32,181.970086,5.297682213657965
33,182.01,5.296681844514182
34,185.82000000000002,5.2011913807321974
35,191.02999999999997,5.070612558793823
36,194.13,4.992916908249566
37,198.19,4.8911606709034245
38,201.88000000000002,4.798677788772894
39,205.16,4.716470781953848
40,208.929613,4.621992552528289
41,209.94,4.602954027497662
42,215.82,4.4921583466575665
43,219.82999999999998,4.416598708844166
44,222.89,4.358939734953668
45,227.03,4.280930539002711
46,230.19000000000003,4.2213876477027705
47,233.93,4.150915892144783
48,239.88329199999998,4.038739461899763
49,239.93,4.0380612438855605
50,246.09,3.948615511413668
51,251.82,3.8654136535723773
52,257.09,3.788890913872219
53,260.07,3.745620308852541
54,264.3,3.684199075642766
55,269.21,3.6129039355589705
56,274.21000000000004,3.540301968569584
57,275.42287,3.5226906178478656
58,279.31,3.4793734307509516
59,283.85,3.4287808668486788
60,289.79,3.362586960340689
61,295.86,3.294944517816389
62,300.67,3.241343053842936
63,307.67,3.1633369611893443
64,316.227766,3.0679715888656522
65,317.75,3.055301651165477
66,328.15999999999997,2.9686565104045743
67,338.14,2.8855904393447056
68,347.61,2.8067693026372726
69,357.35,2.725700910756609
70,363.078055,2.6780250895687123
71,365.67,2.6618690345301386
72,375.04999999999995,2.6034016458800373
73,384.67,2.5434384157542507
74,395.45,2.476245193334821
75,404.66,2.418838224118538
76,414.09000000000003,2.3600601077349603
77,416.86938299999997,2.34273600125497
78,421.78000000000003,2.3193618745963276
79,429.63,2.2819968740716465
80,440.65,2.22954393949426
81,450.90999999999997,2.1807088676653144
82,460.35,2.1357770609604745
83,469.99,2.0898952843234144
84,478.630092,2.048773571041052
85,479.83,2.0443816008184243
86,489.88,2.0075968160711546
87,500.14000000000004,1.970046401479136
88,505.93,1.9490225235982015
89,511.79,1.928230551059017
90,520.1,1.8978415121310956
91,529.77,1.8624950097657524
92,539.62,1.8264120109763389
93,549.5408739999999,1.7903887492846589
94,549.66,1.7900596214514128
95,559.87,1.7618255396190672
96,570.28,1.7329611111563132
97,579.55,1.7070560713868868
98,590.32,1.6773097583893979
99,599.92,1.6505717421297978
100,609.66,1.6237384143289117
101,619.5699999999999,1.5964803149421787
102,629.6400000000001,1.5686027676511183
103,630.957344,1.5649469366255655
104,639.87,1.5453718283167843
105,650.27,1.522729880414152
106,657.8000000000001,1.506271137183688
107,665.4100000000001,1.4897445995616656
108,674.67,1.4695276469887453
109,685.63,1.4453154983452017
110,695.17,1.4251385109018255
111,704.84,1.4036536199471663
112,716.29,1.379396029530326
113,724.43596,1.3616659074690876
114,726.26,1.3587364909906545
115,734.6700000000001,1.3453436828557193
116,744.89,1.3292590816049412
117,755.25,1.312771452350728
118,765.7600000000001,1.2960727521642625
119,774.62,1.2822607382325706
120,785.4,1.2654036779680515
121,794.49,1.2510788766735728
122,805.5500000000001,1.233523041402183
123,814.87,1.2188319797449179
124,824.3100000000001,1.204380160941851
125,831.763771,1.1915357302467382
126,835.78,1.1862816436218577
127,845.4599999999999,1.1765950760607644
128,855.25,1.1653850251182947
129,865.15,1.1543164207944492
130,875.17,1.1431345191454663
131,885.3,1.131936394115107
132,895.55,1.1204412917596103
133,905.9200000000001,1.1084191120789761
134,914.3,1.1074531972068726
135,924.89,1.2403137507634865
136,935.6,1.4217472469949621
137,944.26,1.7768197516975381
138,954.992586,2.0093479040465327
139,955.19,2.0136302394128007
140,964.03,2.2414621965294677
141,975.1899999999999,1.3702509383192873
142,984.2199999999999,2.3200266420255664
143,995.61,2.28510745600281
144,1004.83,2.5061103062987007
145,1014.12,2.3758150263907636
146,1025.87,1.5545429707483245
147,1035.3600000000001,2.138927518829452
148,1044.94,2.7354346995056593
149,1054.61,2.7113147127769457
150,1064.3700000000001,2.510825558643311
151,1074.21,2.6794902557053026
152,1084.1499999999999,2.4796327667618265
153,1094.18,2.7185711104134294
154,1096.4782,2.6986859309763465
155,1104.31,2.6326273107592657
156,1114.53,2.626692578023763
157,1124.84,2.485769283062605
158,1135.25,2.6776345856284967
159,1145.75,2.567393325968733
160,1153.69,2.6255971696164933
161,1164.37,2.6532887855054197
162,1175.1399999999999,2.2697458391686913
163,1186.02,2.606404650111717
164,1194.24,2.3685839668352164
165,1205.29,2.0628374935742277
166,1213.64,1.4197049870828922
167,1224.87,2.157055289370593
168,1236.21,2.5234814489380484
169,1244.77,2.5957641972535175
170,1256.29,2.567126232369663
171,1258.92541,2.5428420773646354
172,1265.0,2.488583630159992
173,1273.77,2.6242005203306396
174,1285.56,2.6338468960560597
175,1294.47,2.4432665769477895
176,1306.44,2.4595386836003157
177,1315.5,2.6128431402646335
178,1324.62,2.5444345072379866
179,1333.8,2.4569237845203746
180,1346.14,2.5512403380786175
181,1355.47,2.540304391133594
182,1364.87,2.4603373395491115
183,1374.33,2.462195198273664
184,1383.8600000000001,2.472586952358758
185,1393.45,2.2709196167528862
186,1406.3400000000001,2.3125663481439522
187,1416.0900000000001,2.399209773362175
188,1425.9099999999999,2.375708093940939
189,1435.7900000000002,2.393745324828738
190,1442.42,2.4186764139771295
191,1445.43977,2.4088440038365615
192,1445.74,2.4079300527495966
193,1455.7600000000002,2.3819297428414177
194,1465.85,2.323313157315118
195,1476.0200000000002,2.318296399653822
196,1486.25,2.3092362628912806
197,1496.5500000000002,2.300138850510617
198,1503.46,2.240966357350386
199,1510.4,2.1460181746395315
200,1517.3700000000001,2.1839443023780536
201,1524.37,2.188148740565953
202,1534.9399999999998,2.0614571222296805
203,1545.58,2.077672228275287
204,1556.29,2.0298890587027723
205,1563.47,2.076116359586931
206,1574.31,2.1296275352950493
207,1585.22,2.1355734353850457
208,1596.21,2.1491631633400474
209,1603.58,2.107830430403592
210,1614.7,2.094936503639226
211,1625.89,2.074689301256739
212,1633.39,2.1119719136009163
213,1644.72,2.095131159982187
214,1656.1200000000001,2.0635491307453364
215,1659.58691,2.085651163509173
216,1663.76,2.1128674145382824
217,1671.4399999999998,2.0504356014926444
218,1675.2900000000002,2.1165622655257557
219,1686.91,2.1125532515166006
220,1694.69,2.0683761440302644
221,1706.4399999999998,2.0311225472482017
222,1714.32,1.985183145321167
223,1726.2,1.974048965766196
224,1734.1699999999998,2.014314698842533
225,1746.19,1.981409507070584
226,1754.25,2.011075375150292
227,1766.4099999999999,1.946175171161366
228,1774.56,1.9503961742444456
229,1786.8600000000001,1.9603159580385412
230,1795.1100000000001,1.9825686666809226
231,1803.39,1.9797390869910942
232,1815.89,1.9118042819037933
233,1824.28,1.9298549783291967
234,1836.9199999999998,1.9011281610249178
235,1845.4,1.8208109924536928
236,1853.92,1.8080951061061885
237,1866.7700000000002,1.8266612704764429
238,1875.39,1.87076908968824
239,1884.04,1.7783796205678277
240,1897.1,1.7204107666126156
241,1905.46072,1.787111184906876
242,1905.8600000000001,1.7903331592170821
243,1914.66,1.7401175832505265
244,1923.49,1.7099054678204482
245,1936.83,1.7503679197075106
246,1945.77,1.7770441595778506
247,1954.75,1.6959023468301606
248,1968.3,1.7584590224725665
249,1977.3799999999999,1.7920200781798021
250,1981.94,1.732682079724405
251,1995.68,1.704138005431169
252,2004.89,1.726913390129808
253,2014.15,1.7182682090559096
254,2023.44,1.744619488518489
255,2032.78,1.688624202208531
256,2046.8700000000001,1.6912711675075345
257,2056.32,1.6400772364979943
258,2065.81,1.6588532528704245
259,2075.35,1.7123837034703175
260,2080.13,1.6521934156157565
261,2084.9300000000003,1.6755141014521806
262,2094.55,1.630464446816014
263,2104.22,1.6522242264073106
264,2113.93,1.649783953380577
265,2123.69,1.662691114581306
266,2133.4900000000002,1.632733223164005
267,2143.34,1.6122287659741672
268,2153.23,1.6307872561662995
269,2163.17,1.6132191805858944
270,2173.1600000000003,1.6017525392329521
271,2183.19,1.5903598452619803
272,2187.7616199999998,1.5959539525250177
273,2193.2599999999998,1.6031290528412208
274,2203.39,1.5835936781823898
275,2213.56,1.5642965024390223
276,2223.77,1.5423855256111183
277,2234.04,1.55502534715641
278,2244.35,1.5446053676171652
279,2254.71,1.52007488672225
280,2265.12,1.5239569044716643
281,2275.57,1.5249691211365421
282,2286.08,1.525556136174616
283,2296.63,1.486877350128153
284,2307.23,1.4929500627260197
285,2312.5499999999997,1.475265518482685
286,2323.22,1.348510329182613
287,2333.95,1.4410009382557365
288,2344.7200000000003,1.4228037462443237
289,2355.54,1.4364540528772407
290,2366.41,1.4104208581544868
291,2377.34,1.4107254618049283
292,2382.82,1.3837027132234483
293,2393.82,1.3968464149759514
294,2404.87,1.3791126153727842
295,2415.9700000000003,1.3742443144139465
296,2427.12,1.3821595120994385
297,2432.71,1.358101060535483
298,2443.94,1.3684146560519024
299,2455.22,1.3609707502126511
300,2466.56,1.3460306427465953
301,2472.24,1.3348698887424333
302,2483.65,1.3374798793784388
303,2495.12,1.28880266838764
304,2506.63,1.3277496563123046
305,2511.88643,1.2956210859555441
306,2512.41,1.2924435924235556
307,2518.2,1.3084200884458856
308,2524.0099999999998,1.2905570507757196
309,2535.6600000000003,1.281472174896643
310,2547.36,1.2701139647863253
311,2553.23,1.2857853260386705
312,2565.02,1.2743337143121198
313,2576.86,1.2819287683543288
314,2582.8,1.276188261682937
315,2594.72,1.2671241809551606
316,2606.7000000000003,1.2534204991498954
317,2612.7099999999996,1.2454691245547669
318,2624.77,1.2458513079795164
319,2636.8799999999997,1.2415551571730257
320,2642.9599999999996,1.2592769146541598
321,2655.16,1.2549363622314358
322,2667.4199999999996,1.2320062087312227
323,2673.56,1.235614365134868
324,2685.9100000000003,1.233625810018422
325,2692.1,1.2142768321908268
326,2704.5200000000004,1.2145443091506438
327,2717.01,1.198987018186724
328,2723.27,1.1890522724353918
329,2735.84,1.1959453467014867
330,2742.15,1.1619043667189137
331,2754.8,1.1598901062150235
332,2767.52,1.1621889777873966
333,2773.9,1.1720924298810869
334,2786.7,1.1591245666834749
335,2793.1299999999997,1.1094621845459243
336,2806.02,1.1240480197320788
337,2812.4900000000002,1.150669870209536
338,2825.47,1.1421295037794574
339,2831.98,1.1241133868719217
340,2845.06,1.1220350519793618
341,2858.19,1.1136701828555613
342,2864.78,1.1210019311780406
343,2878.0,1.112606660438007
344,2884.0315,1.1097536435261595
345,2884.63,1.109492814461149
346,2897.9500000000003,1.1037199770145691
347,2911.33,1.106239371381293
348,2931.5099999999998,1.0893428712557691
349,2951.83,1.0746828453612869
350,2972.2900000000004,1.0701906936978467
351,2992.8900000000003,1.0597110162654486
352,3006.71,1.052092043929733
353,3027.55,1.0436685937505494
354,3048.5299999999997,1.033359317802408
355,3069.6600000000003,1.021171221387526
356,3090.9399999999996,1.010998904505903
357,3112.37,1.0008855671575392
358,3126.7299999999996,0.9898449811415568
359,3148.41,0.9817136763486252
360,3170.23,0.9717885457867355
361,3192.2099999999996,0.9529401000603223
362,3206.9399999999996,0.9512123102263792
363,3229.17,0.9379707970553981
364,3251.55,0.9353595634176762
365,3266.56,0.9318393220458172
366,3289.2,0.9222080262657446
367,3311.31121,0.912923925884549
368,3312.0,0.9126526905298085
369,3319.64,0.9223653209069083
370,3327.29,0.9251594175541351
371,3334.96,0.9227134467416164
372,3342.6499999999996,0.8795940084693517
373,3350.3500000000004,0.921324336467214
374,3358.08,0.8716673632754577
375,3365.8199999999997,0.8858044563538283
376,3373.58,0.8751871819724533
377,3381.3500000000004,0.8663302738612053
378,3389.15,0.8954816645603386
379,3396.96,0.8964793215295991
380,3404.79,0.8740675110391137
381,3412.6400000000003,0.8700726330888825
382,3420.5099999999998,0.8875966876789055
383,3428.39,0.8852184085390555
384,3436.2999999999997,0.8912436282095869
385,3444.2200000000003,0.8640075141502452
386,3452.1600000000003,0.894885632631158
387,3460.12,0.8593549836523248
388,3468.0899999999997,0.8586335009436187
389,3476.09,0.8563121170452939
390,3484.1,0.8443852994170962
391,3492.13,0.8662812143291527
392,3500.18,0.8574051617814633
393,3508.25,0.8375209417740282
394,3516.34,0.8320911543068472
395,3524.4500000000003,0.8455917993799205
396,3532.5699999999997,0.8497030107231209
397,3540.71,0.8554233546065754
398,3548.8799999999997,0.8661314973004111
399,3557.0600000000004,0.8654161062643739
400,3565.26,0.863040247768591
401,3573.48,0.8380829218130623
402,3581.71,0.8170420621276607
403,3589.9700000000003,0.8026241012526404
404,3598.25,0.8202224729178742
405,3606.54,0.8241508108532352
406,3614.85,0.8312820813288502
407,3623.19,0.8368630506148466
408,3631.54,0.8670079861709701
409,3633.6099999999997,0.8275971040872785
410,3636.33,0.8063157295618482
411,3639.0499999999997,0.8670964550364177
412,3641.7699999999995,0.8383059805109874
413,3644.4900000000002,0.7722391059855568
414,3647.21,0.7895305314601264
415,3649.9300000000003,0.836344756934696
416,3652.65,0.8401344824092656
417,3655.37,0.8333087078838352
418,3658.0800000000004,0.8811546670882775
419,3660.8,0.7518593925628472
420,3663.52,0.8022204180374167
421,3666.2400000000002,0.7990391435119863
422,3668.96,0.8163795689865558
423,3671.68,0.7611970944611255
424,3674.4,0.8361155199356951
425,3677.12,0.8465826454102645
426,3679.8399999999997,0.7719059708848341
427,3682.56,0.7632702963594038
428,3685.28,0.7730283218339733
429,3687.99,0.8040701810384158
430,3690.71,0.7900044065129852
431,3693.43,0.8045564319875549
432,3696.15,0.7937192574621245
433,3698.8700000000003,0.8618867829366941
434,3701.59,0.8097373084112636
435,3704.31,0.8383291338858332
436,3707.03,0.7984829593604028
437,3709.75,0.7929047848349724
438,3712.47,0.7934903103095419
439,3715.19,0.9096472357841114
440,3717.9,1.137737294988554
441,3720.62,2.0191161204631234
442,3723.34,3.493248745937693
443,3726.06,4.5810403714122625
444,3728.7799999999997,4.399130996886832
445,3731.5,3.011116622361402
446,3734.22,1.7525932478359714
447,3736.94,1.1500778733105408
448,3739.6600000000003,1.0186058987851103
449,3742.38,0.9194940242596801
450,3745.1,0.8211649497342496
451,3747.81,0.851106408938692
452,3750.53,0.7959483344132616
453,3753.25,0.9188811598878311
454,3755.9700000000003,0.9239672853624008
455,3758.69,0.9162609108369704
456,3761.41,0.9328919363115399
457,3764.13,0.8892544617861095
458,3766.85,0.8476714872606791
459,3769.5699999999997,0.8649874127352486
460,3772.29,0.8970279382098182
461,3775.0099999999998,0.8974911636843877
462,3777.72,0.9273106228888301
463,3780.44,0.9900971483633998
464,3783.16,1.0148242738379694
465,3785.8799999999997,1.0253892993125389
466,3788.6,0.9496851247871085
467,3791.32,0.883079950261678
468,3794.04,0.8764254757362476
469,3796.76,0.8629711012108172
470,3799.48,0.8573439266853868
471,3801.8939600000003,0.9026896554025254
472,3802.2,0.9084441771917259
473,3804.92,0.9399231964135615
474,3807.63,0.9986062655647285
475,3810.35,1.0455682847865642
476,3813.07,1.0223066040084
477,3815.79,1.0266598232302355
478,3818.5099999999998,1.008534742452071
479,3821.23,1.0407231616739068
480,3823.95,0.9719666808957422
481,3826.6699999999996,0.9374048001175779
482,3829.39,0.8683548193394135
483,3832.11,0.8168180385612491
484,3834.8300000000004,0.8276287577830848
485,3837.54,0.8403514269342518
486,3840.2599999999998,0.9126538461560875
487,3842.9799999999996,0.987426665377923
488,3845.7000000000003,0.9939079845997586
489,3848.42,1.0666994038215942
490,3851.1400000000003,1.04265502304343
491,3853.86,1.0405753422652655
492,3856.58,1.083207961487101
493,3859.2999999999997,1.1176954807089368
494,3862.02,1.1489052999307723
495,3864.74,1.2291809191526077
496,3867.4500000000003,1.2287949883037752
497,3870.17,1.2144616075256105
498,3872.89,1.0748695267474462
499,3875.6099999999997,1.0317465459692818
500,3878.33,0.9852482651911175
501,3881.0499999999997,0.9358393844129531
502,3883.7699999999995,0.9778116036347887
503,3886.4900000000002,0.9616189228566243
504,3889.21,0.9729676420784599
505,3891.9300000000003,0.9434689613002956
506,3894.65,0.9244388805221311
507,3897.36,0.9412467496732981
508,3900.0800000000004,0.9880130688951339
509,3902.8,1.0169483881169694
510,3905.52,1.014257407338805
511,3908.2400000000002,1.0542973265606406
512,3910.96,1.0641541457824761
513,3913.68,1.060533465004312
514,3916.4,1.0242350842261476
515,3919.12,1.030031303447983
516,3921.8399999999997,1.0172874226698188
517,3924.5600000000004,1.0116856418916544
518,3927.27,0.9908016110428215
519,3929.99,0.9515922302646571
520,3932.71,0.9596635494864927
521,3935.43,0.9604701687083282
522,3938.15,0.9965232879301639
523,3940.8700000000003,1.0174846071519996
524,3943.59,1.0655228263738352
525,3946.31,1.0295177455956708
526,3949.03,1.0166026648175064
527,3951.75,1.023891084039342
528,3954.47,1.0153297032611777
529,3957.1800000000003,1.0071401724123445
530,3959.9,0.9295047916341802
531,3962.62,0.9210901108560159
532,3965.34,0.9574366300778514
533,3968.06,0.9417820492996871
534,3970.7799999999997,0.9049209685215228
535,3973.5,0.9265916877433583
536,3976.22,0.923802906965194
537,3978.94,0.9400437261870296
538,3981.6600000000003,0.9896471454088651
539,3984.38,1.009874764630701
540,3987.0899999999997,1.0524389337818678
541,3989.81,1.0531723530037034
542,3992.53,1.0353162722255391
543,3995.25,1.0646673914473748
544,3997.9700000000003,1.0950457106692102
545,4000.69,1.0749882298910458
546,4003.41,1.1302177491128815
547,4006.13,1.146996368334717
548,4008.85,1.1175464875565528
549,4011.5699999999997,1.0799270067783884
550,4014.29,1.108935626000224
551,4017.0,1.1032901951513912
552,4019.72,1.1040235143732267
553,4022.44,1.0956823335950623
554,4025.16,1.092942252816898
555,4027.8799999999997,1.0651800720387337
556,4030.6,1.108472991260569
557,4033.32,1.1068582104824047
558,4036.04,1.0976853297042404
559,4038.76,1.104655848926076
560,4041.48,1.1263268681479117
561,4044.2,1.1070517873697472
562,4046.9100000000003,1.126330556520914
563,4049.63,1.1037051757427498
564,4052.35,1.1021390949645855
565,4055.07,1.1052693141864212
566,4057.79,1.1277470334082569
567,4060.5099999999998,1.1186478526300923
568,4063.23,1.070510671851928
569,4065.95,1.1129965910737636
570,4068.6699999999996,1.117521110295599
571,4071.39,1.0963875295174348
572,4074.11,1.0735906487392703
573,4076.8199999999997,1.0311087178904375
574,4079.54,1.060826737112273
575,4082.2599999999998,1.0013892563341087
576,4084.9800000000005,1.0117841755559442
577,4087.7000000000003,0.98818019477778
578,4090.42,0.9628639139996156
579,4093.1400000000003,0.9677799332214512
580,4095.86,0.9722310524432868
581,4098.58,1.0712429716651224
582,4101.3,1.084842090886958
583,4104.0199999999995,1.0455350101087937
584,4106.7300000000005,0.9806480792599607
585,4109.45,0.9447160984817964
586,4112.17,0.919913717703632
587,4114.89,0.9670225369254676
588,4117.61,0.9704953561473032
589,4120.33,1.0233521753691388
590,4123.05,1.0282192945909743
591,4125.77,1.04534031381281
592,4128.49,1.0375372330346455
593,4131.21,1.0214913522564812
594,4133.93,1.0199497714783168
595,4136.639999999999,1.029248840629484
596,4139.360000000001,1.0478867598513195
597,4142.08,1.029663679073155
