,lambda (Angstroms),Total Flux (erg/s/cm^2/Angstrom)
0,100.09,36.089858607308805
1,101.94999999999999,35.9894568952709
2,104.08000000000001,35.87448074102842
3,104.712855,35.84031959846178
4,106.02000000000001,35.46968389321364
5,107.99,34.91109832057981
6,109.99,34.344006371087694
7,114.12,33.17296149428684
8,118.13000000000001,32.035942138132604
9,120.22644299999999,31.441504246143932
10,120.88,31.286138393314953
11,125.13,30.27581343383131
12,126.87,29.86217451477889
13,128.05,29.581660765694078
14,131.03,28.873244687286252
15,131.94,28.656916340717558
16,134.07999999999998,28.14818802241358
17,136.89,27.480185052846036
18,138.038426,27.207177202559176
19,140.07999999999998,26.86027118611697
20,143.01,26.36240436605079
21,147.02,25.68102537310176
22,151.14000000000001,24.98095229770471
23,155.01,24.323359696577885
24,158.489319,23.73215202295788
25,158.99,23.66783307399062
26,161.95000000000002,23.287582875211235
27,166.1,22.754462091356455
28,169.97000000000003,22.25731094222224
29,173.13,21.85136855546017
30,177.16,21.3336636639542
31,180.04,20.963691170932695
32,181.970086,20.715747141744227
33,182.13,20.700074831744026
34,185.94,20.32667757588546
35,191.15,19.81607402257624
36,193.81,19.555382736419997
37,197.87,19.1574847458531
38,202.01,18.751746867444737
39,204.82,18.476355137679498
40,208.929613,18.07359389208831
41,210.07000000000002,17.989568845943158
42,215.96,17.555592158221977
43,219.97,17.260133459729122
44,223.03,17.034670467753873
45,227.17999999999998,16.72889711521274
46,229.81,16.535152877705777
47,234.08,16.22060203431326
48,239.88329199999998,15.793058371939898
49,240.09,15.781323420774672
50,246.25,15.431558703148024
51,251.98000000000002,15.106239020166251
52,257.26,14.806410840929125
53,260.24,14.637248658764609
54,263.86,14.431727658407713
55,268.76,14.153517515566062
56,273.76,13.869628301025596
57,275.42287,13.775214186531896
58,278.85,13.625880521868014
59,284.03000000000003,13.400168273045661
60,289.98,13.140887360069993
61,296.05,12.876399082750947
62,300.86,12.666803440637338
63,307.87,12.361354097828523
64,316.227766,11.997178140659601
65,317.96,11.940803677001316
66,328.38,11.601681759114278
67,338.34999999999997,11.27720182215538
68,347.83000000000004,10.968668297376
69,356.76,10.678035924553235
70,363.078055,10.472414677567516
71,365.90999999999997,10.403393714937163
72,375.29,10.174771943987354
73,384.91999999999996,9.940040243240908
74,394.79,9.699494207949693
75,404.92,9.452599312609975
76,414.35,9.22275483720084
77,416.86938299999997,9.161345966286344
78,422.06,9.064727743557372
79,429.9,8.918797529306225
80,440.93,8.713500411667557
81,451.2,8.522337682898643
82,459.59,8.366165073949647
83,470.3,8.166814726482453
84,478.630092,8.011768119294015
85,480.14,7.990154117195452
86,490.2,7.846126466064737
87,500.46,7.699262527524662
88,506.26,7.616221944753276
89,512.12,7.532408940019081
90,520.44,7.413305487209779
91,530.12,7.274729938576845
92,539.97,7.133700171965955
93,549.5408739999999,6.996730888811926
94,550.01,6.991609868186374
95,560.24,6.879939476883028
96,570.65,6.766300290483439
97,579.9200000000001,6.665047350226743
98,589.35,6.5621350715956055
99,600.3,6.442557074607276
100,610.06,6.335987348566352
101,619.9699999999999,6.227887322211891
102,630.0400000000001,6.1179569133829865
103,630.957344,6.107939664147069
104,640.28,6.027238694621891
105,650.6800000000001,5.937286370988779
106,658.22,5.872067514412274
107,664.3100000000001,5.819391375754327
108,675.1,5.725979065636223
109,684.5,5.644581854715911
110,695.62,5.548590086133585
111,705.29,5.464819641469816
112,716.76,5.365735675183011
113,724.43596,5.299327803801651
114,726.73,5.284599222594305
115,735.14,5.230615330281706
116,745.37,5.165080674029878
117,755.74,5.098566219859649
118,764.49,5.042426565459502
119,775.12,4.974329311869382
120,784.0999999999999,4.916787303674719
121,795.01,4.846787505247793
122,804.21,4.787787881467067
123,815.4,4.715979380203338
124,824.84,4.655601455419638
125,831.763771,4.610668339905555
126,834.39,4.597886735340691
127,844.05,4.552250798604098
128,855.8000000000001,4.495908032334434
129,865.7099999999999,4.448578723443167
130,875.73,4.400743120523844
131,885.87,4.352423975210276
132,894.07,4.313290391936978
133,904.42,4.263510096933486
134,914.89,4.21624283553575
135,925.49,4.2172115413775835
136,934.0500000000001,4.248130463921554
137,944.87,4.321506879707275
138,954.992586,4.38819954995917
139,955.81,4.393669896465483
140,964.65,4.364488438827144
141,975.82,3.971414860363317
142,984.85,4.154318033816462
143,993.96,4.167727162992337
144,1005.47,4.339342563850113
145,1014.78,4.297963957332813
146,1024.1699999999998,3.941714976538245
147,1036.03,3.990069189932963
148,1045.61,4.368001270229877
149,1055.29,4.3115810826802035
150,1065.05,4.05288392085326
151,1074.91,4.151352791179729
152,1084.85,3.9141812872289288
153,1094.89,4.111992215431539
154,1096.4782,4.099685916370418
155,1105.02,4.040775060200131
156,1115.25,3.952921162165267
157,1125.57,3.8300600559365474
158,1135.98,4.023886941513973
159,1143.85,3.9036792138957543
160,1154.44,3.9353307830854694
161,1165.1200000000001,3.91845074408133
162,1175.9,3.572302618195129
163,1184.05,3.820424287307139
164,1195.01,3.4621099450332276
165,1206.06,3.244334494565462
166,1214.4199999999998,3.1561097112251435
167,1225.6599999999999,3.4020395656814606
168,1234.16,3.7200450807062553
169,1245.58,3.773767318774863
170,1254.21,3.671622910852979
171,1258.92541,3.5885026782268934
172,1265.82,3.4745863085627824
173,1274.59,3.751921882668432
174,1286.38,3.7902549502517386
175,1295.3,3.441993162112901
176,1304.28,3.4040701890762675
177,1316.35,3.662973793803199
178,1325.47,3.581123889338378
179,1334.66,3.387033069159463
180,1343.91,3.616799464082753
181,1356.3500000000001,3.5414885286066156
182,1365.75,3.3626783612854187
183,1375.22,3.4074385782501277
184,1384.7499999999998,3.392501010317043
185,1394.3500000000001,3.2231557266698614
186,1404.01,3.233113658124888
187,1413.74,3.2165122738658187
188,1423.5400000000002,3.239014473892655
189,1433.4099999999999,3.1961429582053995
190,1443.35,3.2387134268040483
191,1445.43977,3.2508498095038925
192,1446.6699999999998,3.2590134915852618
193,1453.35,3.2034322731053457
194,1463.43,3.084944163183555
195,1473.57,3.0692835710598496
196,1483.7800000000002,3.0791623497005753
197,1494.0700000000002,3.085335252072081
198,1504.4299999999998,2.9987178252080193
199,1511.37,2.858700483853136
200,1518.35,2.9213552543636423
201,1525.3500000000001,2.869637630806843
202,1535.93,2.7178037692024244
203,1546.57,2.8027161253960906
204,1553.71,2.7383308433681552
205,1564.48,2.725849288124338
206,1575.3300000000002,2.7612749566112997
207,1586.2499999999998,2.7968402958626943
208,1593.57,2.800425767229013
209,1604.61,2.766981542076576
210,1615.74,2.755200993621266
211,1623.1899999999998,2.6791736535501016
212,1634.45,2.7247309936573076
213,1645.78,2.7188956045289467
214,1653.3700000000001,2.622221505986646
215,1659.58691,2.6600529762442546
216,1664.83,2.6949663349888384
217,1672.5200000000002,2.556101726731365
218,1676.3700000000001,2.6811568674607185
219,1684.1100000000001,2.7326130077841455
220,1695.78,2.644134606566367
221,1703.6100000000001,2.591415454335415
222,1715.42,2.515132309144159
223,1723.34,2.502422764358829
224,1735.28,2.5517987854779145
225,1743.2900000000002,2.519565848138205
226,1755.38,2.5764442149999924
227,1763.48,2.471128885105905
228,1775.7,2.4788148182780336
229,1783.8999999999999,2.4868698855457474
230,1796.27,2.547419464460579
231,1804.56,2.5296211391739134
232,1817.0700000000002,2.4219331741152663
233,1825.45,2.4335895562742227
234,1833.8799999999999,2.3799914870140797
235,1846.59,2.2862229162790357
236,1855.1100000000001,2.271182454464513
237,1863.68,2.288548841230892
238,1876.6,2.3574099545356315
239,1885.26,2.265939948747631
240,1893.96,2.221304201824351
241,1905.46072,2.2497512698344115
242,1907.09,2.2543650704299694
243,1915.89,2.2085703619490866
244,1924.73,2.189382944338746
245,1933.6200000000001,2.206175190316581
246,1947.0199999999998,2.2283407319479647
247,1956.01,2.1628128051021536
248,1965.0400000000002,2.241723369126884
249,1974.1100000000001,2.259590724022156
250,1983.22,2.1952683697879696
251,1996.97,2.1542787565365904
252,2006.1799999999998,2.1756266294787574
253,2015.44,2.126739266009101
254,2024.7499999999998,2.1659998661276223
255,2034.0900000000001,2.1025695843990486
256,2043.48,2.134104466258652
257,2052.91,2.0852584389887974
258,2067.14,2.0691178161839154
259,2071.91,2.1293293024959827
260,2076.69,2.076978061525685
261,2086.27,2.1035329250203603
262,2095.9,2.0434293521032125
263,2105.58,2.0371127427742417
264,2115.29,2.0360589515981764
265,2125.06,2.0385538967279238
266,2134.87,1.9617253327282125
267,2144.72,1.976735659599043
268,2154.62,2.0014393500580496
269,2164.56,1.9635066313875982
270,2174.56,1.9448365490229587
271,2184.5899999999997,1.9179473848112256
272,2187.7616199999998,1.9270510570382844
273,2194.68,1.94910836662554
274,2204.81,1.9184445003732025
275,2214.98,1.8691311395848245
276,2225.21,1.834335386992385
277,2235.48,1.883098539863905
278,2245.8,1.8392379495653741
279,2256.1600000000003,1.795786364730802
280,2266.58,1.8099718880921691
281,2277.04,1.8232572169174954
282,2287.5499999999997,1.8371420025727705
283,2292.82,1.7910630724493921
284,2303.41,1.7809921690325858
285,2314.04,1.7341233710797386
286,2324.7200000000003,1.56538652995684
287,2335.45,1.6666076456638907
288,2346.23,1.64272601820089
289,2357.06,1.6873015475678386
290,2362.49,1.6256392393002976
291,2373.4,1.6375459795951643
292,2384.35,1.5842463253539905
293,2395.36,1.6203920793087552
294,2406.42,1.584114390093469
295,2417.52,1.594191606342142
296,2423.1,1.628446468564448
297,2434.28,1.594584795741039
298,2445.52,1.6258876311135693
299,2456.8,1.6074657719500585
300,2462.47,1.5996428964662726
301,2473.83,1.5670731482306803
302,2485.25,1.5778524081910268
303,2496.7200000000003,1.535384824981322
304,2502.4800000000005,1.597883411791444
305,2511.88643,1.5305549774178016
306,2514.0299999999997,1.5155752398117417
307,2519.83,1.5315111378901975
308,2525.6400000000003,1.5000798821722372
309,2537.29,1.5028644093470673
310,2543.14,1.4866286384434413
311,2554.88,1.524507381450523
312,2566.6699999999996,1.5007981554755232
313,2572.59,1.5355846079969817
314,2584.47,1.5203843978542333
315,2596.39,1.505320472525819
316,2602.38,1.4794062484723622
317,2614.39,1.4648033389762003
318,2626.46,1.4865830067015389
319,2632.51,1.5020008598695838
320,2644.67,1.5490317434271745
321,2656.87,1.5562703117991
322,2663.0,1.4842844345958128
323,2675.29,1.50962371879999
324,2687.64,1.4979479802256679
325,2693.83,1.4677435802438823
326,2706.27,1.4791072575018125
327,2712.51,1.4441151885379444
328,2725.0299999999997,1.4366399354245434
329,2737.6,1.4609238133290594
330,2743.92,1.3709883139938597
331,2756.58,1.375300407730628
332,2762.94,1.3927002932097627
333,2775.69,1.4142235027787828
334,2782.0899999999997,1.3807870730722516
335,2794.93,1.2658259984735234
336,2807.83,1.2929508010962967
337,2814.3,1.3887280948148502
338,2827.29,1.4126005132698753
339,2833.81,1.3829552380063468
340,2846.8900000000003,1.3624762722936237
341,2853.4500000000003,1.3394639818444292
342,2866.62,1.3878079319639582
343,2873.23,1.3818709725326817
344,2884.0315,1.373294993677339
345,2886.49,1.3717008058229716
346,2893.15,1.3614866579971536
347,2913.2000000000003,1.4063870245275374
348,2926.65,1.3765691474618846
349,2946.94,1.3586596483048514
350,2967.36,1.3624046677338009
351,2987.93,1.3552498086081148
352,3008.6400000000003,1.356310069498102
353,3029.5,1.3462826518334543
354,3050.5,1.3362139541844795
355,3071.64,1.3288621765511786
356,3092.93,1.3255969203632418
357,3107.21,1.315111661961939
358,3128.75,1.2994419415162763
359,3150.44,1.2932496425159783
360,3172.27,1.2829537635313537
361,3186.9199999999996,1.2476004580286169
362,3209.0099999999998,1.2594599162159572
363,3231.25,1.2245383958486622
364,3253.65,1.2452561983564225
365,3268.67,1.2561922457522512
366,3291.3199999999997,1.242873084002286
367,3306.52,1.2375807571325517
368,3311.31121,1.2338013783794821
369,3321.7799999999997,1.22661175018573
370,3329.44,1.2437734273477439
371,3337.1099999999997,1.2295756264120579
372,3344.8,1.2129727692809724
373,3352.51,1.2058244559544877
374,3360.24,1.2158169864326034
375,3367.9900000000002,1.2112246607153194
376,3375.75,1.1670403569003363
377,3383.53,1.1725259968899533
378,3391.3399999999997,1.2133949025864714
379,3399.15,1.2236893082829892
380,3406.99,1.190898179686408
381,3414.84,1.200792272992127
382,3422.71,1.2219078101024468
383,3430.6,1.2089483910173668
384,3438.51,1.2124271157368876
385,3446.44,1.1492985842610088
386,3454.38,1.1895340746874306
387,3462.3500000000004,1.1502573308207529
388,3470.33,1.1736907088563755
389,3478.33,1.1363945306965988
390,3486.35,1.1580782963414227
391,3494.39,1.152243605790847
392,3502.44,1.1708550371425717
393,3510.51,1.1558475122988967
394,3518.6099999999997,1.148705953162123
395,3526.72,1.1428696159276495
396,3534.85,1.1666696224977762
397,3543.0,1.1875397728725035
398,3544.8,1.2015356152865537
399,3547.4,0.8289078098846263
400,3550.0,1.335967604482699
401,3552.6000000000004,1.1317471990807713
402,3555.1899999999996,1.1915958717765438
403,3557.79,1.0698778663746162
404,3560.39,1.3578092609726888
405,3562.99,1.0400069555707616
406,3565.59,0.9287370501688339
407,3568.19,1.1516519447669065
408,3570.78,0.7546207174626788
409,3573.38,1.0703411120607513
410,3575.9800000000005,0.6528827366588238
411,3578.58,0.8796101012568965
412,3581.18,0.9689040958549691
413,3583.7799999999997,1.490014090453042
414,3586.37,1.2016971631488138
415,3588.9700000000003,1.1098265577468864
416,3591.57,1.097266452344959
417,3594.17,1.3038076469430315
418,3596.7700000000004,1.067534641541104
419,3599.37,1.3566338361391765
420,3601.97,1.1834433307372494
421,3604.56,1.3040166034330216
422,3607.16,1.3621483980310942
423,3609.76,0.7563055926291664
424,3612.36,0.8629613872272393
425,3614.96,1.0398359818253118
426,3617.5600000000004,0.8758690764233842
427,3620.1499999999996,1.1293669491191567
428,3622.75,1.5051921437172293
429,3625.35,0.8619407383153016
430,3627.95,1.2398523329133744
431,3630.55,1.1600016275114469
432,3633.15,1.1512882221095193
433,3635.7400000000002,1.0017871948052917
434,3638.3399999999997,1.2332722894033643
435,3640.9399999999996,0.8959240840014369
436,3643.54,0.9615335785995092
437,3646.14,1.2149567731975819
438,3648.74,0.7719437677956544
439,3651.33,1.0020417404914266
440,3653.9300000000003,1.2003615350894992
441,3656.53,0.9106188296875719
442,3659.13,1.1056761242856443
443,3661.7300000000005,1.0822232188837169
444,3664.33,1.0991557134817895
445,3666.92,0.9733461861775619
446,3669.52,1.1583803807756343
447,3672.12,1.108293475373707
448,3674.7200000000003,1.2139683699717794
449,3677.32,1.336274364569852
450,3679.92,1.2596025591679245
451,3682.5200000000004,1.181504753765997
452,3685.1099999999997,1.4455002264617693
453,3687.71,1.1740233210598419
454,3690.31,1.1302384156579146
455,3692.91,0.848133810255987
456,3695.51,0.9750586048540595
457,3698.11,1.148461899452132
458,3700.7000000000003,1.0172270721479044
459,3703.2999999999997,1.3445147667459771
460,3705.8999999999996,1.4365212613440497
461,3708.5,1.109231255942122
462,3711.1,1.2385834505401947
463,3713.7,1.4603920451382673
464,3716.29,1.3910306178340397
465,3718.8900000000003,1.248904212432112
466,3721.4900000000002,1.4658372070301846
467,3724.0899999999997,1.9089727016282574
468,3726.6899999999996,2.3217113962263296
469,3729.29,2.3776160908244024
470,3731.88,1.8704582635201745
471,3734.48,1.642983958118247
472,3737.08,1.3333609527163197
473,3739.6800000000003,1.4252282473143922
474,3742.28,1.2144134419124648
475,3744.8799999999997,1.2010116365105374
476,3747.47,1.0745626092063096
477,3750.0699999999997,1.1699013038043824
478,3752.67,1.2348290984024546
479,3755.27,1.3608494930005275
480,3757.87,1.4341446875986
481,3760.4700000000003,1.4179186821966723
482,3763.07,1.195522776794745
483,3765.6600000000003,1.0742559494905173
484,3768.2599999999998,1.1718481440885897
485,3770.8599999999997,1.4332915386866625
486,3773.46,0.9526260332847349
487,3776.06,1.3549310278828077
488,3778.66,1.31630752248088
489,3781.25,1.3717329951766524
490,3783.8500000000004,1.3233710897747248
491,3786.4500000000003,1.4749889843727972
492,3789.0499999999997,1.49903697897087
493,3791.6499999999996,1.5280235735689427
494,3794.25,1.4370226681670153
495,3796.84,1.1071096408627872
496,3799.44,1.31783853546086
497,3801.8939600000003,1.0899716385577054
498,3802.04,1.0764213262772602
499,3804.6400000000003,1.1557675886352041
500,3807.2400000000002,1.4007312509931482
501,3809.8399999999997,1.5847411133510922
502,3812.43,1.343061735084583
503,3815.0299999999997,1.2741581974425271
504,3817.63,1.4432830598004711
505,3820.23,1.2317854221584152
506,3822.83,1.1530535845163594
507,3825.4300000000003,1.4666015468743034
508,3828.02,1.430327368607794
509,3830.6200000000003,1.267798330965738
510,3833.22,1.1300672933236822
511,3835.8199999999997,1.2958880556816261
512,3838.42,1.0441235180395703
513,3841.02,1.2261790803975146
514,3843.61,1.560719702131005
515,3846.21,1.7011162644889493
516,3848.81,1.5040170268468933
517,3851.4100000000003,1.4187673892048371
518,3854.0099999999998,1.7518399515627814
519,3856.6099999999997,1.5298395139207255
520,3859.21,1.3406007762786696
521,3861.8,1.33479269801216
522,3864.4,1.4405499603701042
523,3867.0,1.4900344227280484
524,3869.6000000000004,1.4058977850859924
525,3872.2000000000003,1.4593473474439365
526,3874.7999999999997,1.7177842098018807
527,3877.39,1.501841931535371
528,3879.99,1.3493291938933152
529,3882.59,1.3345420562512593
530,3885.19,1.1176191186092035
531,3887.79,0.9726333809671477
532,3890.3900000000003,1.4196284433250916
533,3892.9799999999996,1.2728258650585822
534,3895.58,1.1442345274165262
535,3898.18,1.4054615897744704
536,3900.7799999999997,1.5181053521324146
537,3903.38,1.4384896144903587
538,3905.98,1.4176507768483027
539,3908.57,1.4151121985817932
540,3911.17,1.3062823609397372
541,3913.7699999999995,1.5046215232976816
542,3916.3700000000003,1.4785658856556254
543,3918.97,1.5132340480135698
544,3921.5699999999997,1.713172610371514
545,3924.17,1.400399172729458
546,3926.76,1.3460396944629482
547,3929.36,1.4438671568208923
548,3931.96,1.1218765191788367
549,3934.56,1.2295465815367808
550,3937.1600000000003,1.2873086438947248
551,3939.7599999999998,1.4775786062526688
552,3942.35,1.3480268279861594
553,3944.95,1.3033992903441036
554,3947.55,1.4582645527020475
555,3950.15,1.5000282150599915
556,3952.75,1.1614273774179358
557,3955.3500000000004,1.43011003977588
558,3957.9399999999996,1.4157467615093706
559,3960.54,1.1753891238673146
560,3963.14,1.1264420862252587
561,3965.74,1.1214906485832028
562,3968.34,1.1222569109411469
563,3970.94,1.143591573299091
564,3973.53,1.1808600950325814
565,3976.13,1.1611344573905256
566,3978.7299999999996,1.1846602197484697
567,3981.33,1.2042069821064139
568,3983.93,1.426752344464358
569,3986.5299999999997,1.829869706822302
570,3989.12,1.4373889285557926
571,3991.7200000000003,1.5472505909137366
572,3994.32,1.4706952532716808
573,3996.92,1.8496077156296247
574,3999.5199999999995,1.588027277987569
575,4002.1200000000003,1.417917040345513
576,4004.72,1.4852781027034574
577,4007.31,1.3878622244369476
578,4009.91,1.6576382867948918
579,4012.51,1.5645978491528356
580,4015.11,1.6501824115107802
581,4017.71,1.476107273868724
582,4020.3100000000004,1.4371834362266682
583,4022.8999999999996,1.6812988579601589
584,4025.5,1.4822515203181028
585,4028.1,1.5359089826760468
586,4030.7,1.5247395450339911
587,4033.3,1.545287107391935
588,4035.9,1.4327018697498792
589,4038.4900000000002,1.4200077914833698
590,4041.09,1.3026221538413139
591,4043.6899999999996,1.383895016199258
592,4046.29,1.280768978557202
593,4048.89,1.2043536409151463
594,4051.49,1.3862071032730903
595,4054.08,1.6233661250065807
596,4056.68,1.677650687364525
597,4059.28,1.523468249722469
598,4061.88,1.505689812080413
599,4064.4799999999996,1.5663733744383572
600,4067.08,1.4690207367963013
