,lambda (Angstroms),Total Flux (erg/s/cm^2/Angstrom)
0,100.00999999999999,16.756485147163318
1,102.10000000000001,16.704112546926137
2,104.0,16.656500675191424
3,104.712855,16.63863756200322
4,105.94,16.477104454718923
5,107.89999999999999,16.219103682740332
6,109.91000000000001,15.9545259663682
7,114.03999999999999,15.410883142386176
8,118.04,14.884352930893336
9,120.22644299999999,14.596587950399542
10,121.07,14.503509413037543
11,125.03999999999999,14.065396737358594
12,127.07,13.841374109900844
13,127.95,13.744262973576797
14,130.93,13.4154036092999
15,132.14,13.281886485341836
16,133.98,13.078835032827918
17,137.1,12.734546774560833
18,138.038426,12.63098936525073
19,139.97,12.47863584145103
20,142.9,12.24771405812953
21,146.91,11.931731832619894
22,151.02,11.607617846670617
23,154.9,11.30166444847252
24,158.489319,11.018644035233232
25,158.86999999999998,10.99595380088199
26,161.82,10.820128036879739
27,165.97,10.572785357656237
28,169.84,10.342134720317691
29,173.0,10.153810721901722
30,177.03,9.913638651200346
31,179.89999999999998,9.742611935879513
32,181.970086,9.619249849675159
33,181.99,9.618344702958286
34,185.79999999999998,9.445189805319224
35,191.0,9.208851101861708
36,194.11,9.06752171647654
37,198.17000000000002,8.883014770603943
38,201.85999999999999,8.715358651236977
39,205.14000000000001,8.566304872133005
40,208.929613,8.394036020867834
41,209.91,8.360539975344647
42,215.79000000000002,8.159905545110096
43,219.81,8.022685749898718
44,222.86,7.918530199720933
45,227.01,7.776874492938044
46,230.17,7.6712888491997475
47,233.91,7.548353605142396
48,239.88329199999998,7.348346849308066
49,239.91,7.347662139142726
50,246.06,7.1852843792035594
51,251.79,7.035742867650482
52,257.06,6.893615320044073
53,260.04,6.818400135780867
54,264.27,6.708319572749537
55,269.18,6.579301825188349
56,274.18,6.447825470115856
57,275.42287,6.415097749621906
58,279.28000000000003,6.337173754800141
59,283.82,6.2458512382258515
60,289.76,6.125165335483279
61,295.83000000000004,6.002891602596508
62,301.33,5.890873402649682
63,308.35,5.749708684863004
64,316.227766,5.591299019160466
65,317.72,5.56893294474718
66,328.13,5.411999774559825
67,338.1,5.261407908001906
68,348.37,5.106231607605735
69,357.31,4.971514885225815
70,363.078055,4.884842170111472
71,365.63,4.856178230293371
72,375.01,4.749983683487825
73,384.63,4.640175869109429
74,395.4,4.519314285527796
75,404.60999999999996,4.4155351561696845
76,414.04,4.3086641507031285
77,416.86938299999997,4.276488166988408
78,421.74,4.234124575167062
79,429.58000000000004,4.166057002543535
80,440.6,4.071097042733423
81,450.86,3.982171052565389
82,460.3,3.900072608590121
83,469.94,3.8165640094458864
84,478.630092,3.7415162916421787
85,479.78,3.733880134071703
86,489.82,3.666396221376158
87,500.08,3.5985594130836986
88,505.87,3.559531032146726
89,511.73,3.522115655792553
90,520.04,3.46647054983638
91,529.7099999999999,3.401539992917464
92,539.56,3.3349024477828904
93,549.5408739999999,3.2681019275181673
94,549.59,3.267850561402206
95,559.8100000000001,3.2168432645091394
96,570.22,3.164260647047611
97,579.48,3.1168312814478263
98,590.26,3.061988221300345
99,599.85,3.0123986668184948
100,609.59,2.960850855572069
101,619.5,2.912957280659125
102,629.56,2.8613289289816053
103,630.957344,2.8542748762133914
104,639.79,2.8189670733864376
105,650.1899999999999,2.776640852144807
106,657.72,2.7457804164958186
107,665.3299999999999,2.71553449483728
108,674.59,2.678274519231751
109,685.5500000000001,2.633190245923264
110,695.09,2.5952550492843067
111,704.76,2.55519716287983
112,716.21,2.5099251227628425
113,724.43596,2.4766998523937653
114,726.17,2.471491959075686
115,734.5799999999999,2.4462040687959625
116,744.8000000000001,2.415288642296702
117,755.16,2.3840782996810144
118,765.67,2.3512533476548674
119,774.53,2.3258099891437674
120,785.3100000000001,2.2929368981787945
121,794.4,2.2659584639049912
122,805.45,2.2329227240011926
123,814.78,2.204879730670655
124,824.2099999999999,2.176609434399812
125,831.763771,2.15321419499879
126,835.6800000000001,2.1440353621208894
127,845.36,2.1232509818106067
128,855.15,2.1011255455877085
129,865.05,2.0789845234521924
130,875.0600000000001,2.056503085404059
131,885.2,2.0336697321864707
132,895.45,2.0106570930562646
133,905.8199999999999,1.987226108385023
134,914.2,1.9685091097693033
135,924.7800000000001,1.9532140129012467
136,935.4899999999999,1.937745720863735
137,944.15,1.925811192652263
138,954.992586,1.9053791241453009
139,955.0799999999999,1.9052186094360635
140,963.9200000000001,1.8887611620328775
141,975.0799999999999,1.8454126429582678
142,984.1,1.8391683626667816
143,995.5,1.8127435230744382
144,1004.71,1.797601561956413
145,1014.0,1.777525887332477
146,1025.75,1.738601519901772
147,1035.24,1.7269797665130577
148,1044.8200000000002,1.7147424616801934
149,1054.48,1.6923013633414181
150,1064.24,1.6661210856202537
151,1074.0900000000001,1.647101316454939
152,1084.03,1.619085525845475
153,1094.06,1.6038254137918604
154,1096.4782,1.5981116149649537
155,1104.18,1.5829592128070795
156,1114.3999999999999,1.5638618766856962
157,1124.71,1.5419137793362372
158,1135.1200000000001,1.5275009972889175
159,1145.62,1.506998604013524
160,1156.22,1.4880634560402686
161,1164.23,1.473397116741611
162,1175.01,1.4455541363122064
163,1185.8799999999999,1.433152044654727
164,1194.1,1.4142802624905613
165,1205.1499999999999,1.390491838376932
166,1216.3,1.363253079565442
167,1224.73,1.3586676345357684
168,1236.06,1.3424187432681287
169,1244.63,1.3277796196614498
170,1256.15,1.3062831324678743
171,1258.92541,1.3009378591047318
172,1264.85,1.2925661164430147
173,1273.6200000000001,1.2836989483319676
174,1285.4099999999999,1.268770000004802
175,1294.32,1.2533304279102262
176,1306.29,1.2381629373185234
177,1315.3500000000001,1.2296359766701668
178,1324.46,1.2166553631705501
179,1333.64,1.2028079376791692
180,1345.98,1.1893302479881407
181,1355.3100000000002,1.1766608239429788
182,1364.71,1.1626497279060528
183,1374.17,1.1505294844476146
184,1383.6899999999998,1.138260663567664
185,1396.5,1.1167550590747888
186,1406.1799999999998,1.1040062950708058
187,1415.9199999999998,1.09545061364531
188,1425.74,1.0822660656577976
189,1435.62,1.0702263602487734
190,1442.25,1.0620578801716647
191,1445.43977,1.0578636810716782
192,1445.57,1.0577425252670183
193,1455.59,1.0480901771131763
194,1465.68,1.0378765967965826
195,1475.84,1.028781664317238
196,1486.07,1.0197520896751415
197,1496.37,1.010215082870294
198,1503.28,1.0030191365186925
199,1513.7,0.9920519931491281
200,1517.1899999999998,0.9895830638919517
201,1524.19,0.9831864676168123
202,1534.76,0.9713155610413522
203,1545.4,0.9607874523031407
204,1556.11,0.9509222314021778
205,1563.29,0.9457994052799638
206,1574.1299999999999,0.937063088933891
207,1585.04,0.927582070425067
208,1596.03,0.9178673808730985
209,1603.39,0.9106797749038092
210,1614.5100000000002,0.9005316299067309
211,1625.6999999999998,0.8901174927469017
212,1633.1999999999998,0.8840758224521097
213,1644.52,0.8738562198471702
214,1655.9199999999998,0.8632040761990867
215,1659.58691,0.8602434976673208
216,1663.57,0.8580884380137435
217,1671.24,0.8518845973284038
218,1675.1,0.8512820029026658
219,1686.7099999999998,0.8440006427257697
220,1694.4899999999998,0.8382666700749298
221,1706.24,0.8303935010328514
222,1714.1200000000001,0.8246523420497384
223,1726.0,0.8170648297757052
224,1733.96,0.8129862957267738
225,1745.98,0.8051087045875585
226,1754.04,0.8007353642063542
227,1766.2,0.7921336642019564
228,1774.3500000000001,0.7869641631217063
229,1786.6499999999999,0.7796915442521266
230,1794.9,0.7753480268396034
231,1803.18,0.7701425425273984
232,1815.68,0.7609962009932726
233,1824.0600000000002,0.7562078003487945
234,1836.71,0.7479035843162593
235,1845.1899999999998,0.7408642873395084
236,1853.7,0.7360916234630753
237,1866.55,0.728998784765994
238,1875.1699999999998,0.7242928789240609
239,1883.82,0.7177883361824456
240,1896.8799999999999,0.709657679187591
241,1905.46072,0.7049474470173581
242,1905.64,0.7048788556306612
243,1914.43,0.7004974286497732
244,1923.27,0.69534732042326
245,1936.6,0.688416782339615
246,1945.54,0.6871977016218516
247,1954.52,0.6822534619075883
248,1968.0700000000002,0.6781553143431929
249,1977.15,0.6735599221376792
250,1986.28,0.6696952286865406
251,1995.45,0.665562336238902
252,2004.66,0.6612595947947633
253,2013.9099999999999,0.6572933243541245
254,2023.21,0.6517626826678604
255,2037.2299999999998,0.6470658093945896
256,2046.63,0.6441698552170754
257,2056.08,0.6382589197939363
258,2065.5699999999997,0.6339292853742973
259,2075.11,0.6321326297090328
260,2079.89,0.6384161146272759
261,2084.68,0.6410881672963937
262,2094.31,0.6340603913890042
263,2103.97,0.6287629187342398
264,2113.68,0.6280339848338503
265,2123.44,0.6200401996878357
266,2133.2400000000002,0.6143076055453209
267,2143.09,0.6162417701571812
268,2152.98,0.6115460257725415
269,2162.92,0.6026769501422766
270,2172.9,0.5985349655155117
271,2182.93,0.6011280496431218
272,2187.7616199999998,0.5990189530290599
273,2193.0099999999998,0.5975024180753364
274,2203.13,0.5931986758720709
275,2213.3,0.5823341307527812
276,2223.52,0.5840034127174677
277,2233.7799999999997,0.5912189683493349
278,2244.09,0.5858044210651779
279,2254.4500000000003,0.5726910708649969
280,2264.85,0.5673049243319969
281,2275.31,0.5664255782997679
282,2285.81,0.5744795259347197
283,2296.36,0.5635708206536474
284,2306.96,0.5683275624565511
285,2317.61,0.5586999213434308
286,2322.95,0.5496686359120635
287,2333.67,0.5432454987165094
288,2344.45,0.5315323220217266
289,2355.27,0.5449275589941245
290,2366.14,0.5267627730504985
291,2377.06,0.5298399641908482
292,2382.54,0.5170947865946136
293,2393.54,0.5179209850693249
294,2404.58,0.5145257172112171
295,2415.68,0.5150468898538805
296,2426.83,0.5300182495805197
297,2432.43,0.5283016629858274
298,2443.66,0.5337801300468281
299,2454.94,0.5334277441918048
300,2466.27,0.5220821954207576
301,2477.65,0.5120640637336863
302,2483.36,0.493106174723741
303,2494.82,0.4956731203710313
304,2506.34,0.5102904565190926
305,2511.88643,0.48189035984528183
306,2512.12,0.4807127591078196
307,2517.91,0.4745232743869082
308,2523.71,0.47544439989963944
309,2535.3599999999997,0.4867869220933153
310,2547.07,0.4860051856888468
311,2552.94,0.5148075128370766
312,2564.72,0.49453088806810674
313,2576.56,0.5060612747009926
314,2582.5,0.49709424348472087
315,2594.42,0.48835694198674795
316,2606.39,0.4782562616569882
317,2612.4,0.4725326520762149
318,2624.46,0.484449413849239
319,2636.58,0.5235108870241189
320,2642.65,0.5563894088452014
321,2654.8500000000004,0.6063248938892223
322,2667.1,0.5380333801014566
323,2673.25,0.5519624237916803
324,2685.59,0.5721584121066982
325,2697.9900000000002,0.524219201823572
326,2704.21,0.5503470471492942
327,2716.69,0.507220738735309
328,2722.9500000000003,0.4839294049956017
329,2735.52,0.5038813286844004
330,2748.1499999999996,0.45744695377505507
331,2754.4800000000005,0.478211341670846
332,2767.2000000000003,0.5016736188642843
333,2773.58,0.5069446679282889
334,2786.38,0.4569084369908682
335,2792.7999999999997,0.41995166698944325
336,2805.69,0.42282750815480635
337,2812.1600000000003,0.4834202193215945
338,2825.14,0.5271764725897414
339,2838.1800000000003,0.5134505772597441
340,2844.72,0.4706524400620309
341,2857.85,0.4261351968348174
342,2864.4399999999996,0.5045351908053173
343,2877.6600000000003,0.5543231996808874
344,2884.0315,0.5371099352631634
345,2884.3,0.5364026941114955
346,2897.61,0.5754901005279235
347,2910.99,0.6497875376317408
348,2931.16,0.6100840514123081
349,2951.48,0.586240102380138
350,2971.94,0.5916434147227463
351,2992.5400000000004,0.5934517884401329
352,3013.2799999999997,0.5897425235322981
353,3027.19,0.6066270786977759
354,3048.18,0.6182135091020453
355,3069.31,0.6401733008810928
356,3090.58,0.6267936540349188
357,3111.9999999999995,0.6743738443760072
358,3133.57,0.6425747719043581
359,3148.0399999999995,0.6396989725689497
360,3169.8599999999997,0.6729821954094048
361,3191.83,0.6246382554371224
362,3206.56,0.6564739272263023
363,3228.7900000000004,0.6013952583786083
364,3251.17,0.720386226718177
365,3273.71,0.7888570080574921
366,3288.82,0.7779127607210705
367,3311.31121,0.7415016150432501
368,3311.6200000000003,0.7410163420334513
369,3319.2500000000005,0.7024516562871561
370,3326.8999999999996,0.7091929696607919
371,3334.57,0.7532433821543587
372,3342.26,0.7221187937678567
373,3349.96,0.7559805549413202
374,3357.69,0.7692091647946804
375,3365.43,0.6194275242080061
376,3373.1800000000003,0.6178971331812971
377,3380.96,0.723285390834485
378,3388.76,0.7449069476076038
379,3396.5699999999997,0.6811636539406882
380,3404.4,0.8069850593937036
381,3412.2400000000002,0.7232454144066847
382,3420.11,0.7356767180995623
383,3427.9900000000002,0.7549341713524054
384,3435.9,0.7706175732851452
385,3443.82,0.6323868247778506
386,3451.7599999999998,0.7462432753904868
387,3459.7099999999996,0.7606162755630889
388,3467.69,0.7511484244155874
389,3475.68,0.7525473228280515
390,3483.69,0.7561459203604466
391,3491.73,0.7642170665727384
392,3499.78,0.6894570623449956
393,3507.8399999999997,0.8180643076772185
394,3515.93,0.7182600016893379
395,3524.03,0.7713098452614229
396,3532.16,0.7879415375134045
397,3540.3,0.8188123793253514
398,3548.46,0.8490007202572297
399,3556.64,0.775133060309039
400,3564.84,0.7992613994807793
401,3573.06,0.6521734377724508
402,3581.3,0.6949733751840532
403,3589.55,0.5755341621556213
404,3597.16,0.7100511772893949
405,3599.8999999999996,0.6843675567199521
406,3602.64,0.7687896361505093
407,3605.37,0.6080333660211008
408,3608.11,0.641299445451658
409,3610.85,0.7043485248822151
410,3613.5899999999997,0.6765322043127724
411,3616.32,0.9152637341833638
412,3619.06,0.783912113613921
413,3621.8,0.7461006930444781
414,3624.54,0.7078167724750353
415,3627.2700000000004,0.7361003023456268
416,3630.01,0.7658270817761839
417,3632.75,0.7634822612067411
418,3635.4900000000002,0.8083511406372983
419,3638.22,0.8132961705078899
420,3640.9599999999996,0.818646449938447
421,3643.7000000000003,0.7780681293690042
422,3646.44,0.7509896087995613
423,3649.17,0.790939938670153
424,3651.91,0.83177401810071
425,3654.6499999999996,0.8590336975312671
426,3657.39,0.9574566769618245
427,3660.1299999999997,0.9337959563923816
428,3662.86,0.8482909862629731
429,3665.6,0.7982652656935302
430,3668.34,0.8778629451240874
431,3671.08,0.9087306245546445
432,3673.81,0.9157973544252361
433,3676.55,0.8209152338557932
434,3679.29,0.8009149132863504
435,3682.03,0.8268947927169075
436,3684.76,0.8180291225874992
437,3687.5,0.8337605020180563
438,3690.2400000000002,0.8451975814486133
439,3692.98,0.8560638608791705
440,3695.71,0.8799039907497621
441,3698.45,0.8968226701803192
442,3701.1899999999996,0.8525264496108764
443,3703.93,0.8013480290414337
444,3706.66,0.7442653589120252
445,3709.4,0.7951983383425822
446,3712.14,0.8220083177731394
447,3714.8799999999997,0.7705647972036966
448,3717.62,0.8236819766342538
449,3720.35,0.8245000065048453
450,3723.09,0.8301210859354025
451,3725.83,0.8052788653659595
452,3728.57,0.8172404447965167
453,3731.3,0.8362096746671084
454,3734.04,0.7433624540976654
455,3736.78,0.6722576335282225
456,3739.52,0.6705181129587797
457,3742.2499999999995,0.7349368428293714
458,3744.9900000000002,0.6765302222599285
459,3747.73,0.6703294016904856
460,3750.4700000000003,0.7227839811210428
461,3753.2,0.7781474109916344
462,3755.94,0.7715947904221915
463,3758.68,0.7663275698527486
464,3761.4199999999996,0.7463041492833058
465,3764.15,0.7424759791538974
466,3766.89,0.8033232585844545
467,3769.63,0.9025823380150116
468,3772.37,0.8611105174455689
469,3775.1099999999997,0.821120196876126
470,3777.84,0.9191617267467176
471,3780.58,0.9353309061772747
472,3783.32,0.8735118856078318
473,3786.06,0.800458765038389
474,3788.7900000000004,0.8391641949089805
475,3791.53,0.7929486743395376
476,3794.27,0.7963851537700948
477,3797.01,0.801251133200652
478,3799.74,0.8116951630712436
479,3801.8939600000003,0.8072825947567323
480,3802.4799999999996,0.8061015964226531
481,3805.2200000000003,0.8633797992085026
482,3807.96,0.7922511019943521
483,3810.69,0.7644144215583556
484,3813.43,0.723495324344205
485,3816.1699999999996,0.6964620271300547
486,3818.91,0.6850380299159042
487,3821.64,0.6554197494799076
488,3824.38,0.611330552265757
489,3827.12,0.6016646550516066
490,3829.86,0.6549312578374561
491,3832.6,0.5551437606233056
492,3835.33,0.560173080187309
493,3838.07,0.6223049829731586
494,3840.81,0.7058331857590081
495,3843.55,0.7555316885448576
496,3846.28,0.7013182081088609
497,3849.0200000000004,0.8148140108947105
498,3851.76,0.7689666136805601
499,3854.5,0.6878373164664097
500,3857.23,0.769893136030413
501,3859.97,0.7173421388162625
502,3862.7099999999996,0.7809148416021121
503,3865.4500000000003,0.7758946443879615
504,3868.18,0.789686363951965
505,3870.92,0.6941464667378145
506,3873.66,0.710874369523664
507,3876.3999999999996,0.7586764723095136
508,3879.13,0.802251391873517
509,3881.87,0.7600121946593664
510,3884.61,0.8311300974452159
511,3887.35,0.8074861002310655
512,3890.09,0.783427003016915
513,3892.82,0.8233129225809184
514,3895.56,0.871334025366768
515,3898.3,0.9373966281526175
516,3901.04,0.876072530938467
517,3903.7699999999995,0.9048456505024705
518,3906.51,0.9131518532883199
519,3909.25,0.9124085560741695
520,3911.9900000000002,0.953627758860019
521,3914.72,0.8889646784240224
522,3917.46,0.894043081209872
523,3920.2,0.8854028839957215
524,3922.9399999999996,0.7539643867815711
525,3925.67,0.6918194063455744
526,3928.41,0.614696009131424
527,3931.15,0.5789418119172733
528,3933.89,0.606304514703123
529,3936.6200000000003,0.6602311342671263
530,3939.36,0.7430158370529758
531,3942.1,0.8249934398388254
532,3944.84,0.880795942624675
533,3947.58,0.9013798454105245
534,3950.3100000000004,0.9066352649745278
535,3953.05,0.8804721677603774
536,3955.79,0.871313270546227
537,3958.53,0.8536235733320765
538,3961.2599999999998,0.7103086928960798
539,3963.9999999999995,0.6041686956819294
540,3966.7400000000002,0.6483568984677789
541,3969.48,0.6995656012536284
542,3972.21,0.7952075208176318
543,3974.95,0.8973019236034814
544,3977.69,0.9810027263893308
545,3980.43,1.0346147291751804
546,3983.16,1.0871940487391838
547,3985.9,1.1287592515250333
548,3988.64,1.1380450543108829
549,3991.38,1.1617988570967324
550,3994.11,1.1501664766607358
551,3996.85,1.1525353794465854
552,3999.59,1.1532326822324348
553,4002.33,1.1550251850182844
554,4005.07,1.198780487804134
555,4007.8,1.2013280073681372
556,4010.5400000000004,1.235572110153987
557,4013.28,1.2831313129398363
558,4016.02,1.270686515725686
559,4018.75,1.2418775352896891
560,4021.49,1.270300738075539
561,4024.2299999999996,1.2278249408613884
562,4026.9700000000003,1.224602243647238
563,4029.7,1.2088775632112412
564,4032.44,1.1666322659970907
565,4035.18,1.1974181687829404
566,4037.9199999999996,1.23304577156879
567,4040.65,1.2100585911327932
568,4043.39,1.1864887939186428
569,4046.13,1.1780788967044922
570,4048.87,1.1609074994903417
571,4051.6000000000004,1.1797672190543451
572,4054.34,1.1629417218401947
573,4057.08,1.1388533246260442
574,4059.82,1.1343055274118938
575,4062.5499999999997,1.1283217469758973
576,4065.29,1.1431412497617466
577,4068.03,1.1642434525475962
578,4070.7700000000004,1.1373884553334457
579,4073.51,1.1508821581192954
580,4076.24,1.1883599776832987
581,4078.98,1.2512520804691483
582,4081.72,1.3167382832549976
583,4084.4599999999996,1.2939174860408473
584,4087.19,1.2734095056048507
585,4089.93,1.2448247083907003
586,4092.67,1.2150873111765497
587,4095.41,1.1900768139623992
588,4098.14,1.1610367335264025
589,4100.88,1.1666913363122522
590,4103.62,1.1926354390981015
591,4106.36,1.2066479418839513
592,4109.09,1.2039499614479547
593,4111.83,1.215771964233804
594,4114.570000000001,1.2496131670196537
595,4117.31,1.269620369805503
596,4120.05,1.2281245725913528
597,4122.78,1.211246492155356
598,4125.5199999999995,1.1744193949412056
599,4128.26,1.2103355977270551
600,4131.0,1.2082660005129047
601,4133.73,1.233581220076908
602,4136.47,1.2096085228627576
