,lambda (Angstroms),Total Flux (erg/s/cm^2/Angstrom)
0,100.07000000000001,1.3446952375650478
1,101.93,1.3409547251543514
2,104.07,1.3366510378015037
3,104.712855,1.335358249325462
4,106.0,1.3217604413105006
5,107.97,1.3009488632956099
6,109.98,1.2797151840827063
7,114.11,1.2360851618871131
8,118.11999999999999,1.1937230527605591
9,120.22644299999999,1.171482030533489
10,120.87,1.1657857191563852
11,125.11,1.1282363432868907
12,126.85,1.1128269673438904
13,128.03,1.1023771430834648
14,131.01,1.0759857527947634
15,131.92000000000002,1.0679319491180792
16,134.06,1.04898003112324
17,136.87,1.02410238683282
18,138.038426,1.0137551098587347
19,140.06,1.000959526181203
20,142.98999999999998,0.9825186318182988
21,147.0,0.9573917754658942
22,151.10999999999999,0.9313979070116839
23,154.99,0.9068661919016264
24,158.489319,0.8847447702043472
25,158.97000000000003,0.882448562459431
26,161.92000000000002,0.8683548450146493
27,166.08,0.848489842654211
28,169.94,0.8300485737712083
29,173.1,0.8149549801022218
30,177.14000000000001,0.7956541048127578
31,180.01,0.7819452542152922
32,181.970086,0.7725842468584786
33,182.1,0.7721112309504929
34,185.91,0.7582360335938043
35,191.12,0.7392619825740282
36,193.78,0.7295843046441615
37,197.84,0.7147959177512074
38,201.98000000000002,0.699723643574648
39,204.79000000000002,0.689494077063022
40,208.929613,0.6743817456712715
41,210.04,0.6713343931600471
42,215.93,0.6552701980157942
43,219.94,0.6443080173625763
44,223.0,0.6359260086197217
45,227.14999999999998,0.6245849349586609
46,229.77999999999997,0.6179954599541813
47,234.04999999999998,0.6075810007149691
48,239.88329199999998,0.5922293881938652
49,240.04999999999998,0.5918956416723378
50,246.21,0.5786329369721871
51,251.95,0.566667994069774
52,257.21999999999997,0.5549128934886386
53,260.2,0.5490616796856436
54,263.82,0.5415567573813342
55,268.72,0.5311560310743961
56,273.72,0.5205270777203778
57,275.42287,0.516913278422024
58,278.81,0.511391489807995
59,283.99,0.5029477718554249
60,289.94,0.49307687493693225
61,296.01,0.4832454609847893
62,300.82,0.4753657288859743
63,307.83000000000004,0.46397663317023746
64,316.227766,0.45033562880406897
65,317.91,0.4482943431688426
66,328.33,0.4355823247360735
67,338.3,0.4233958545129729
68,347.78000000000003,0.4117918665626224
69,356.7,0.400898127495415
70,363.078055,0.39312092663504467
71,365.85,0.3905849721540204
72,375.24,0.381970873246561
73,384.86,0.3730630104169807
74,394.74,0.364084311240655
75,404.86,0.35482710466733347
76,414.29,0.3461865808603748
77,416.86938299999997,0.3438154030922904
78,421.99,0.34020715295361936
79,429.84000000000003,0.3346965321818289
80,440.86,0.32697875856334097
81,451.13,0.319768110394387
82,459.52,0.31387445193893204
83,470.22,0.30638131805891194
84,478.630092,0.3005008095713417
85,480.07,0.2997245818006217
86,490.12,0.29427824218983684
87,500.39,0.2887566662064776
88,506.18,0.28561732799190603
89,512.04,0.28250858224969716
90,520.36,0.27802484425052
91,530.0400000000001,0.2727887578572466
92,539.89,0.26744989303971123
93,549.5408739999999,0.2622453719956694
94,549.93,0.26208474527538744
95,560.15,0.25790469041024716
96,570.5699999999999,0.2536400000134995
97,579.84,0.2498025494234945
98,590.62,0.2453829324698534
99,600.21,0.2414101088292766
100,609.97,0.23726578528683345
101,619.88,0.2333543055956847
102,629.9499999999999,0.2292037578792501
103,630.957344,0.2287919045354116
104,640.19,0.22579572579021548
105,650.59,0.22239638001537296
106,658.12,0.2199270627197418
107,665.7399999999999,0.21746389132894375
108,675.0,0.21445095009288204
109,684.39,0.2113619254971348
110,695.51,0.20777262496095705
111,705.1899999999999,0.20458883814744983
112,716.6500000000001,0.2008969281628637
113,724.43596,0.1983659560391689
114,726.62,0.1978375418059131
115,735.03,0.19580391995610477
116,745.26,0.1933220826284545
117,755.62,0.19081644212381552
118,764.37,0.18863115761111365
119,775.01,0.18612949642526816
120,785.79,0.18350998924881953
121,794.89,0.18132369345960955
122,804.0899999999999,0.17910619353425447
123,815.2800000000001,0.17640889079961058
124,824.72,0.17413451374750713
125,831.763771,0.1724021714353932
126,834.27,0.1719373233395417
127,845.87,0.16988586515308915
128,855.6700000000001,0.16811225090074133
129,865.5799999999999,0.16632581677464267
130,875.6,0.16452149397479315
131,885.74,0.16269281101267
132,896.0,0.1608444496882732
133,904.29,0.15934299350286873
134,914.76,0.15754676701949302
135,925.35,0.1560977513738437
136,936.06,0.15467836796592072
137,944.73,0.15366916701664973
138,954.992586,0.1522045353540715
139,955.67,0.15211047656941937
140,964.51,0.1507675872355132
141,975.6800000000001,0.14732073696065662
142,984.7,0.14686518209053967
143,996.11,0.14484491110073544
144,1005.3199999999999,0.14381499166461825
145,1014.62,0.1421386799603957
146,1024.01,0.13926310898806774
147,1035.87,0.1379220386577366
148,1045.46,0.1373507680896189
149,1055.1299999999999,0.13556072828318536
150,1064.89,0.13330262420864636
151,1074.75,0.13191653483621255
152,1084.69,0.12958537622546282
153,1094.73,0.12848596731681827
154,1096.4782,0.1281565724087438
155,1104.86,0.126843292594567
156,1115.08,0.1252770518356713
157,1125.4,0.12349386149400751
158,1135.81,0.12251059422785252
159,1143.68,0.1211696381640062
160,1154.27,0.1197230670488687
161,1164.95,0.1181993170092399
162,1175.72,0.1158010550451199
163,1183.8700000000001,0.115351704549523
164,1194.8300000000002,0.11317542307814366
165,1205.88,0.11116156368227306
166,1214.24,0.10941863336286328
167,1225.48,0.10871539945973335
168,1233.97,0.1081550785827251
169,1245.3899999999999,0.10667414083061268
170,1254.0200000000002,0.1053295347377291
171,1258.92541,0.10451537219575542
172,1265.63,0.10367857460987498
173,1274.4,0.10327082031710214
174,1286.19,0.10215024362590577
175,1295.11,0.10067834486632382
176,1304.08,0.0997489079511388
177,1316.15,0.0989887973885654
178,1325.27,0.0979167530065713
179,1334.46,0.09670243840673293
180,1343.7099999999998,0.0961125286201709
181,1356.14,0.09474745693725564
182,1365.5400000000002,0.09351273368388449
183,1375.0100000000002,0.09261096721266909
184,1384.54,0.09162375755473007
185,1394.14,0.09016142867894676
186,1403.8,0.08917970861643983
187,1413.53,0.08845539433608865
188,1426.6100000000001,0.0871124896303339
189,1436.5,0.086120221852053
190,1443.1299999999999,0.08552458921909017
191,1445.43977,0.08530190910495158
192,1446.46,0.08523503937047082
193,1456.48,0.08443138980158227
194,1466.5800000000002,0.0835356231143792
195,1473.35,0.0830526692270164
196,1483.56,0.08234776025213096
197,1493.85,0.08161368115893101
198,1504.2,0.08074325372699523
199,1511.1399999999999,0.08003450121321415
200,1518.1200000000001,0.0796409081402758
201,1525.13,0.07908803389796952
202,1535.7,0.07805066589066892
203,1546.34,0.07730536915484316
204,1553.4800000000002,0.07672819584527583
205,1564.25,0.07605543504218906
206,1575.0900000000001,0.07539717451057708
207,1586.01,0.07467808186065064
208,1593.33,0.07418135753487576
209,1604.37,0.07333816720747759
210,1615.5,0.07252918337197563
211,1626.69,0.07164820619773779
212,1634.2,0.07121510646596604
213,1645.53,0.07041684883467789
214,1653.12,0.06975797198459165
215,1659.58691,0.0693657309267867
216,1664.58,0.06916960594204263
217,1672.2699999999998,0.0685835343337606
218,1676.1200000000001,0.06863370720607712
219,1683.8600000000001,0.06828845336237063
220,1695.5300000000002,0.06758325521430154
221,1703.36,0.06712383954683104
222,1715.16,0.06643602698665835
223,1723.08,0.06602210649542381
224,1735.02,0.06553718487606264
225,1743.0300000000002,0.06509437756106405
226,1755.1200000000001,0.06459595823542949
227,1763.22,0.06404385709666689
228,1775.44,0.06345173035892875
229,1783.6299999999999,0.06308935439640212
230,1796.0,0.06259318295239058
231,1804.29,0.06214908051901502
232,1816.79,0.06136266866289989
233,1825.18,0.0609897517586754
234,1833.6,0.060504524913196266
235,1846.31,0.059696195468298394
236,1854.8400000000001,0.059324584504885425
237,1863.4,0.05897517360021779
238,1876.32,0.05842987556653719
239,1884.98,0.057866085191020614
240,1893.68,0.05742270122716448
241,1905.46072,0.05689774895397391
242,1906.8,0.05685594927368712
243,1915.6000000000001,0.05648471443345779
244,1924.45,0.056074645844136246
245,1933.3300000000002,0.05569976180535936
246,1946.73,0.055458122048646516
247,1955.72,0.05502451636186677
248,1964.74,0.05491371922563171
249,1973.81,0.054557138340304435
250,1982.92,0.054253002855703385
251,1996.67,0.053734779855345034
252,2005.8799999999999,0.053402457872559574
253,2015.14,0.05304383714068189
254,2024.44,0.05264095480953043
255,2033.79,0.05240029372928678
256,2043.18,0.05219464204976933
257,2057.34,0.05152811390685485
258,2066.83,0.051175697729153
259,2076.37,0.051038239802358935
260,2085.96,0.05255586712647263
261,2095.59,0.051885338851312586
262,2105.2599999999998,0.051416219976878764
263,2114.98,0.051425838353352724
264,2124.74,0.05069420913055293
265,2134.55,0.050131882158660886
266,2144.4,0.0505642175874951
267,2154.3,0.0502221012672371
268,2164.2400000000002,0.049345011347705324
269,2174.23,0.04902393267908135
270,2184.27,0.04950406426136516
271,2187.7616199999998,0.049353496802751834
272,2194.35,0.049147416532719805
273,2204.48,0.04877899805410599
274,2214.65,0.04756721670292114
275,2224.87,0.04782269476102251
276,2235.15,0.04879636051026733
277,2245.46,0.04828787710508387
278,2255.83,0.04689701539104388
279,2266.24,0.04639953180443284
280,2276.7000000000003,0.046519717627108007
281,2287.21,0.0475813618590694
282,2292.48,0.046525570397835954
283,2303.06,0.047225533602798034
284,2313.69,0.046072398217046326
285,2324.37,0.04488152424058083
286,2335.1,0.044278206673401536
287,2345.88,0.04311268651550845
288,2356.71,0.044630290766901594
289,2367.58,0.04278982214572369
290,2373.04,0.04329895703977784
291,2384.0,0.04192908795531512
292,2395.0,0.04209159899828136
293,2406.05,0.04180553245053382
294,2417.16,0.04195050559392974
295,2422.73,0.04376113758841355
296,2433.92,0.0435643349866674
297,2445.15,0.0442378675123502
298,2456.44,0.04437212472917646
299,2467.78,0.043097180355288936
300,2473.46,0.04237750645020242
301,2484.8799999999997,0.040284609331172845
302,2496.35,0.04063078262142946
303,2507.87,0.04242313232097229
304,2511.88643,0.040139551375962285
305,2513.65,0.039147992669278306
306,2519.45,0.038618149470087466
307,2525.2599999999998,0.03869902469986354
308,2536.91,0.039893830446316406
309,2542.76,0.04002786939196012
310,2554.5,0.043257399999115195
311,2566.29,0.040994390751104844
312,2572.2099999999996,0.04244675069951695
313,2584.0800000000004,0.041354283883241874
314,2596.01,0.040469096640768296
315,2607.9900000000002,0.03947987054312927
316,2614.0,0.03892803435224359
317,2626.0699999999997,0.040288032115306786
318,2632.12,0.04489492064028874
319,2644.2700000000004,0.04854253683508721
320,2656.48,0.05430443560368719
321,2662.6,0.046198978131437536
322,2674.89,0.0478730703317728
323,2687.2400000000002,0.050028595105909526
324,2693.43,0.04528767563642827
325,2705.86,0.04814373384230029
326,2712.1,0.043629251517653594
327,2724.62,0.04108930158422784
328,2737.19,0.04326245279563664
329,2743.5,0.03815319647375833
330,2756.17,0.04016151697483625
331,2762.52,0.04274204436882558
332,2775.2700000000004,0.043250246301638796
333,2788.08,0.03819344380825351
334,2794.51,0.034458687633978136
335,2807.4100000000003,0.03484641000129505
336,2813.88,0.04109128754288733
337,2826.8700000000003,0.04609958977090645
338,2833.39,0.0453554894573333
339,2846.46,0.04096132511708772
340,2853.0299999999997,0.03621910594834912
341,2866.2,0.045156471897772665
342,2872.7999999999997,0.05059197501593482
343,2884.0315,0.04837051713742252
344,2886.06,0.0479803022606942
345,2892.72,0.05220853816939923
346,2912.77,0.060113533435095276
347,2932.96,0.055687063779953305
348,2953.29,0.05346949920397329
349,2966.92,0.05480942012524199
350,2987.48,0.054899807465028067
351,3008.19,0.055053049532487686
352,3029.04,0.05650599667910928
353,3050.04,0.0575069485534044
354,3071.18,0.05988718550686149
355,3092.47,0.059006527187992125
356,3106.75,0.0638114752625128
357,3128.2799999999997,0.06089383850792109
358,3149.96,0.060444716481002914
359,3171.8,0.06370957883026984
360,3186.44,0.05811758425120701
361,3208.53,0.06168336781326317
362,3230.77,0.05522524610299286
363,3253.16,0.06760858912039609
364,3268.18,0.0747578911847729
365,3290.83,0.07331238506347691
366,3311.31121,0.07048277997520941
367,3313.64,0.07016989767617812
368,3321.2799999999997,0.067819047397419
369,3328.94,0.07274748245824428
370,3336.6099999999997,0.07278539518886176
371,3344.3,0.06944773325906363
372,3352.01,0.06584007666884992
373,3359.74,0.0739258054182206
374,3367.4900000000002,0.07147897950717567
375,3375.25,0.05797838126592296
376,3383.03,0.06122607836425464
377,3390.8300000000004,0.07259127080217072
378,3398.64,0.07051976090987899
379,3406.48,0.07198650402696388
380,3414.33,0.07091179481384097
381,3422.2000000000003,0.07690426094030245
382,3430.09,0.07220780240634833
383,3438.0,0.07350753921197861
384,3445.92,0.05383976368740109
385,3453.87,0.07452742117220018
386,3461.8300000000004,0.06448466632679145
387,3469.81,0.06811668682096714
388,3477.81,0.06199354265472722
389,3485.82,0.06754583615827951
390,3493.8599999999997,0.062387762671208394
391,3501.92,0.06854216452372167
392,3509.9900000000002,0.07350142404602716
393,3518.08,0.06722930890791705
394,3526.19,0.06225839910939133
395,3534.32,0.07232970465045001
396,3542.47,0.0796922955310931
397,3550.63,0.07752497408152838
398,3558.8199999999997,0.07314048564134026
399,3567.02,0.07486070487094436
400,3575.2400000000002,0.06281081944013284
401,3583.49,0.055113987018697935
402,3591.75,0.05677303226705521
403,3600.03,0.0775528128549969
404,3608.33,0.06728998878252299
405,3616.64,0.07094565237984127
406,3624.98,0.07029722898653616
407,3633.3399999999997,0.07170385093281545
408,3641.71,0.08198486054888693
409,3650.1099999999997,0.07096166317433503
410,3658.52,0.08738409346957532
411,3666.96,0.08684317677419219
412,3675.41,0.0886063677486013
413,3683.88,0.07532126406259478
414,3692.37,0.07887475571617267
415,3700.89,0.08604841037912714
416,3709.42,0.06598909271187384
417,3717.97,0.09219663038420493
418,3726.54,0.06952625339612042
419,3735.1299999999997,0.07259976174762031
420,3743.74,0.0780985854387046
421,3752.37,0.05418970446937328
422,3761.02,0.07246647883962637
423,3769.69,0.07036576854946386
424,3778.38,0.08305314359888576
425,3787.09,0.09183087398789205
426,3795.8199999999997,0.07409204971648274
427,3801.8939600000003,0.07508981119008888
428,3804.5699999999997,0.07553656682123538
429,3813.34,0.0839090679828794
430,3822.13,0.06819255804112923
431,3830.94,0.055697836995984844
432,3839.77,0.054727314847446265
433,3848.62,0.07432755159551349
434,3857.5,0.07313449168848941
435,3866.3900000000003,0.07496464622976824
436,3875.2999999999997,0.06404574966765286
437,3884.24,0.06899942645044621
438,3884.89,0.07493059559013475
439,3886.6600000000003,0.0598792929397482
440,3888.43,0.06570540028936164
441,3890.19,0.07578486319067218
442,3891.96,0.08402067054028564
443,3893.7300000000005,0.08426011788989907
444,3895.5,0.08279119523951252
445,3897.27,0.08618653258912595
446,3899.0399999999995,0.0986646699387394
447,3900.81,0.09128668728835286
448,3902.58,0.0738997446379663
449,3904.35,0.07195706198757974
450,3906.1200000000003,0.0730961393371932
451,3907.89,0.08861910668680663
452,3909.66,0.09274677403642008
453,3911.4300000000003,0.09121437138603351
454,3913.2,0.08844373873564697
455,3914.97,0.08322147608526043
456,3916.7400000000002,0.07773734343487386
457,3918.51,0.0796828707844873
458,3920.2799999999997,0.08392460813410074
459,3922.05,0.0825879254837142
460,3923.81,0.07532108838502474
461,3925.5800000000004,0.06686650573463818
462,3927.35,0.06611701308425162
463,3929.12,0.05719138043386507
464,3930.8900000000003,0.046287457783478515
465,3932.66,0.04216757513309196
466,3934.43,0.04726668248270541
467,3936.2000000000003,0.052878529832318846
468,3937.9700000000003,0.05625247718193229
469,3939.74,0.06059469453154574
470,3941.5099999999998,0.0720415818811592
471,3943.28,0.07665070923077262
472,3945.0499999999997,0.07831616658038608
473,3946.8199999999997,0.07716198392999953
474,3948.59,0.07870018127961297
475,3950.36,0.0817992586292264
476,3952.1299999999997,0.07832008597883985
477,3953.9,0.07978157332845329
478,3955.67,0.07518088067806675
479,3957.44,0.0822392980276802
480,3959.2,0.07726603092899073
481,3960.97,0.06744395827860418
482,3962.7400000000002,0.06618900562821761
483,3964.5099999999998,0.05999331297783106
484,3966.2799999999997,0.05150169032744451
485,3968.05,0.04736367767705795
486,3969.82,0.0486587850266714
487,3971.5899999999997,0.04891173237628485
488,3973.36,0.06384988972589828
489,3975.13,0.07076842707551173
490,3976.9,0.08169426442512517
491,3978.67,0.09270969177473862
492,3980.44,0.08852957912435205
493,3982.21,0.0892662864739655
494,3983.9799999999996,0.09841991382357897
495,3985.75,0.10177295117319239
496,3987.52,0.09941488852280585
497,3989.29,0.1009719258724193
498,3991.06,0.10874486322203274
499,3992.82,0.10263394612334328
500,3994.59,0.09608123347295672
501,3996.36,0.10665002082257016
502,3998.1299999999997,0.11125641817218362
503,3999.9,0.10801533552179705
504,4001.67,0.1144176828714105
505,4003.4399999999996,0.10860560022102395
506,4005.21,0.10846982757063739
507,4006.98,0.10349577492025083
508,4008.75,0.10427253226986428
509,4010.52,0.10925229961947773
510,4012.29,0.11105752696909117
511,4014.06,0.11147722431870462
512,4015.8300000000004,0.12006224166831805
513,4017.6,0.1215182390179315
514,4019.37,0.11327011636754496
515,4021.1400000000003,0.11131407371715839
516,4022.9100000000003,0.11158299106677184
517,4024.68,0.1100506284163853
518,4026.44,0.10945466131769582
519,4028.21,0.11388162866730928
520,4029.98,0.11055324601692271
521,4031.75,0.10042397336653616
522,4033.52,0.10746690071614962
523,4035.2900000000004,0.11392789806576305
524,4037.06,0.1139159754153765
525,4038.83,0.11749651276498996
526,4040.6,0.10919805011460339
527,4042.3700000000003,0.10929722746421683
528,4044.14,0.10478123481383028
529,4045.91,0.09476046216344372
530,4047.6800000000003,0.10509906951305716
531,4049.45,0.11469448686267061
532,4051.22,0.11008809421228405
533,4052.9900000000002,0.10028198156189749
534,4054.76,0.10513741891151095
535,4056.5299999999997,0.10862755626112439
536,4058.3,0.10911071361073783
537,4060.07,0.11102221096035128
538,4061.8300000000004,0.10312059386166182
539,4063.6,0.09940866121127527
540,4065.37,0.10272997856088871
541,4067.1400000000003,0.10618313591050216
542,4068.91,0.10834061326011561
543,4070.68,0.10555668060972904
544,4072.4500000000003,0.10377565795934249
545,4074.2200000000003,0.10381443530895593
546,4075.99,0.10538165265856939
547,4077.76,0.10753648000818282
548,4079.53,0.10271628735779627
549,4081.2999999999997,0.10935934470740973
550,4083.0699999999997,0.11913457205702316
551,4084.84,0.12188986940663661
552,4086.61,0.11684970675625005
553,4088.3799999999997,0.1173408141058635
554,4090.15,0.11845826145547694
555,4091.92,0.11759515880509037
556,4093.69,0.11509732615470383
557,4095.45,0.10570126905601437
558,4097.219999999999,0.10366367640562782
559,4098.99,0.10222385375524126
560,4100.76,0.10361916110485471
561,4102.53,0.10371347845446816
562,4104.3,0.10349040580408159
563,4106.07,0.11021549315369504
564,4107.84,0.10600102050330848
565,4109.610000000001,0.10863726785292192
566,4111.38,0.11265113520253538
567,4113.15,0.10992582255214883
568,4114.92,0.11337099990176226
569,4116.6900000000005,0.11869458725137572
570,4118.46,0.11581858460098915
571,4120.23,0.1113761719506026
572,4122.0,0.11394627930021606
573,4123.7699999999995,0.12172457664982948
574,4125.54,0.11698058399944294
575,4127.31,0.11059190134905637
576,4129.08,0.10637743869866982
577,4130.84,0.10395639159998037
578,4132.61,0.10854996894959382
579,4134.38,0.10427951629920726
580,4136.150000000001,0.1091799136488207
581,4137.92,0.11218914099843415
582,4139.69,0.1131479383480476
583,4141.46,0.10643124569766103
584,4143.23,0.10285687304727449
585,4145.0,0.11118486039688792
586,4146.77,0.11043012774650138
