,lambda (Angstroms),Total Flux (erg/s/cm^2/Angstrom)
0,102.08,0.9631469025124901
1,103.97999999999999,0.9604016472457253
2,104.712855,0.9593427670291731
3,105.91,0.9502567841649057
4,107.88000000000001,0.9353050596593103
5,109.89,0.9200497582353767
6,114.00999999999999,0.8887801782423034
7,118.02,0.8583454795007904
8,120.22644299999999,0.8415995612759486
9,121.05,0.8363592529532458
10,125.01,0.8111613041387014
11,127.04,0.7982441698755045
12,127.92,0.7926446548366279
13,130.9,0.7736825796884097
14,132.11,0.7659834008085795
15,133.95000000000002,0.7542753182707468
16,137.07,0.7344227902586393
17,138.038426,0.7282606444174822
18,139.94,0.7196119618913863
19,142.87,0.7062907489363103
20,146.88,0.6880660939857521
21,150.99,0.6693756831109455
22,154.85999999999999,0.6517775566331353
23,158.489319,0.6352743016167506
24,158.83999999999997,0.6340688344430399
25,162.16000000000003,0.6226561535309769
26,165.94,0.6096637890753756
27,170.20000000000002,0.5950206267447768
28,172.95999999999998,0.585534560923544
29,176.98999999999998,0.571683084829715
30,179.87,0.5617846437697326
31,181.95,0.554635928228079
32,181.970086,0.5545668940506344
33,186.19,0.5435037364444332
34,190.95999999999998,0.5310000180803589
35,194.07,0.5228482317705326
36,198.13,0.5122057314829139
37,201.81,0.5025613456824121
38,205.09,0.4939639891841388
39,208.929613,0.48389667609169873
40,209.86999999999998,0.48204327676697734
41,216.24999999999997,0.46948176220355564
42,219.76,0.4625711022692907
43,222.82,0.4565425489573675
44,226.96,0.44839091521182417
45,230.12,0.4422572817616028
46,233.86,0.4350878481692521
47,239.85,0.4234053282651932
48,239.88329199999998,0.423339622434656
49,246.01000000000002,0.4140196397229544
50,251.73999999999998,0.40536915104027427
51,257.01,0.39727571094869923
52,259.98,0.3928565153126503
53,264.21,0.3864755798400959
54,269.12,0.37902994545895097
55,274.12,0.3714462300251986
56,275.42287,0.36947010161690885
57,279.21999999999997,0.36505281924472527
58,283.76,0.3597734116737152
59,289.7,0.3528271191534949
60,295.77,0.3457775758272766
61,301.26,0.33938146825858817
62,308.28000000000003,0.33122151183469145
63,316.227766,0.3219861405040948
64,317.65000000000003,0.32075335670027105
65,328.06,0.31170667589857864
66,338.02,0.30304413481165676
67,348.3,0.2940988485275646
68,357.22999999999996,0.28632982618778435
69,363.078055,0.2812433318556299
70,366.39,0.27908720759280686
71,374.93,0.2735198154115063
72,385.43,0.266645630295153
73,395.32,0.26022337175603555
74,405.46,0.25361216479510024
75,413.95,0.24807082473816314
76,416.86938299999997,0.24616364734865587
77,421.65000000000003,0.2437777012331955
78,430.48,0.2393738406579715
79,440.5,0.23438155094282492
80,450.76,0.22925671692971072
81,460.2,0.2245469731096525
82,469.84,0.2197354501912879
83,478.630092,0.2153521776291937
84,479.67999999999995,0.21494941815432878
85,489.72,0.21108553417220086
86,499.96999999999997,0.20715582841465005
87,505.76000000000005,0.2049289037637018
88,511.62,0.2027145619209459
89,519.93,0.19952396116492177
90,529.6,0.1958039553109201
91,539.45,0.19200506573512732
92,549.48,0.1881617042375434
93,549.5408739999999,0.188138450489268
94,559.6899999999999,0.18518379083216574
95,570.1,0.1821489357670972
96,579.36,0.17942179430950508
97,590.13,0.17628571165774837
98,599.72,0.17346226376235865
99,609.46,0.1705463372225155
100,619.37,0.16774871083895848
101,629.43,0.16480182281094805
102,630.957344,0.16435628326769602
103,639.66,0.16234489181748643
104,650.05,0.1599454868072438
105,657.5799999999999,0.1581963630301382
106,665.1899999999999,0.1564538835437141
107,674.45,0.1543144214650955
108,685.4100000000001,0.1517452788884584
109,694.94,0.14960998597838981
110,704.61,0.14732545995201385
111,716.0600000000001,0.14475683641830078
112,724.43596,0.14282970213449506
113,726.02,0.14255984408409061
114,734.43,0.14112991909669687
115,744.64,0.1394079703510024
116,755.0,0.13765353087544957
117,765.51,0.13581060167003836
118,774.37,0.13439537449306946
119,785.14,0.13255374328923702
120,794.2299999999999,0.13104626945981857
121,805.28,0.12918941602691714
122,814.61,0.12762064742972523
123,825.94,0.1257439527677548
124,831.763771,0.12463565061597075
125,835.5,0.12408691317089587
126,845.18,0.12307982547918542
127,854.96,0.12185293536297383
128,864.8599999999999,0.12066483433736086
129,874.88,0.11945464240234652
130,885.01,0.11824224130038095
131,895.26,0.11699821228901397
132,905.62,0.11568307311069577
133,914.0,0.11511316193750014
134,924.59,0.12219523068282932
135,935.29,0.1325180662612072
136,943.95,0.1502144332994084
137,954.88,0.16530959680143367
138,954.992586,0.16536691008762947
139,965.9399999999999,0.17097022999941386
140,974.87,0.116799043357877
141,983.89,0.15805249499206933
142,995.2900000000001,0.16009289991776693
143,1004.5,0.18597375013405423
144,1016.13,0.18201332176439314
145,1025.53,0.1358564705627754
146,1035.02,0.15589720763688683
147,1044.6,0.20686153298672744
148,1054.26,0.2033834345816607
149,1064.02,0.17927129648295972
150,1073.86,0.19461401462935135
151,1083.8,0.17218744308210876
152,1093.83,0.19765864981059533
153,1096.4782,0.1961821304625878
154,1103.9499999999998,0.19218654563023446
155,1114.16,0.1871668620691869
156,1124.47,0.1755137188650341
157,1134.88,0.19947926601777605
158,1145.38,0.18815020349172323
159,1155.97,0.19370377128687571
160,1163.99,0.19595703990983349
161,1174.76,0.15906679834739645
162,1185.63,0.19064669714185417
163,1193.8500000000001,0.1567437364786014
164,1204.89,0.13475595587978018
165,1216.04,0.11691386567354317
166,1224.47,0.15341400575976935
167,1235.8,0.18987616619594283
168,1244.3700000000001,0.19975298678182166
169,1255.88,0.19320679786040568
170,1258.92541,0.1873076745357504
171,1264.58,0.17652164638834425
172,1276.29,0.20501504618188338
173,1285.1299999999999,0.21065437412166865
174,1294.04,0.1807780623505699
175,1306.02,0.17913323754498484
176,1315.0700000000002,0.20590714635211793
177,1324.18,0.19936854969277903
178,1336.44,0.18393316604365773
179,1345.7,0.2049269557181387
180,1355.0300000000002,0.1998462056817356
181,1364.42,0.1851466501788605
182,1373.88,0.19010755496510134
183,1386.5900000000001,0.19032853031743968
184,1396.2,0.17101312143750041
185,1405.8799999999999,0.1741021728466771
186,1415.62,0.1791951187893817
187,1425.44,0.18121549077679025
188,1435.32,0.18049105729772677
189,1441.9399999999998,0.18626548749697774
190,1445.43977,0.18709045224174792
191,1448.6,0.18790545349169396
192,1455.29,0.18377018345286128
193,1465.3700000000001,0.1738351720939026
194,1475.53,0.17331376064479342
195,1485.7600000000002,0.17493746161680263
196,1496.06,0.17632827500993015
197,1506.43,0.16935860082417603
198,1513.38,0.1569271054923543
199,1516.87,0.16348773905954023
200,1523.87,0.1601903811713745
201,1534.43,0.145681329271513
202,1545.0700000000002,0.15186702728150103
203,1555.78,0.14670904771260743
204,1566.56,0.1494245905648322
205,1573.79,0.15571382491748384
206,1584.7,0.16001217512321406
207,1595.6899999999998,0.16144582523879383
208,1606.7500000000002,0.15888158777549194
209,1614.17,0.15874880441403622
210,1625.3500000000001,0.15283221681550863
211,1636.6200000000001,0.15885101661556178
212,1644.18,0.15998075809634274
213,1655.5700000000002,0.15199330776117018
214,1659.58691,0.15635803873334778
215,1663.21,0.16035048400574395
216,1670.8899999999999,0.14856610664151948
217,1678.6000000000001,0.16109345241259101
218,1686.3500000000001,0.16506856236405723
219,1694.14,0.1576932364959181
220,1705.8799999999999,0.15327762344175205
221,1713.75,0.14749002593440225
222,1725.6299999999999,0.14637118751161757
223,1733.6,0.1527701004552544
224,1745.61,0.15014709561875236
225,1753.6699999999998,0.1560720779682772
226,1765.83,0.14726258880825516
227,1773.98,0.14863934056366798
228,1786.27,0.15039258498992858
229,1794.52,0.1569322471963281
230,1806.96,0.1557043072990687
231,1815.3,0.14667663891135618
232,1823.68,0.14879983470403835
233,1836.32,0.14450131570875227
234,1844.79,0.13603823090732242
235,1853.31,0.13638837133138593
236,1866.16,0.13903472428317182
237,1874.77,0.1459899341131233
238,1883.42,0.13751920812346943
239,1896.48,0.13353405302232732
240,1905.23,0.13876938748366013
241,1905.46072,0.1386670518816311
242,1914.03,0.1349483422985803
243,1922.8600000000001,0.13210640072801952
244,1936.19,0.13458802746238246
245,1945.1299999999999,0.13933298236149763
246,1954.1100000000001,0.13235723506776764
247,1967.6499999999999,0.14109409778969367
248,1976.7299999999998,0.14325355001385093
249,1985.8600000000001,0.1380307869969517
250,1995.0200000000002,0.13526893483541869
251,2004.2299999999998,0.13777906743282925
252,2013.48,0.13456188783739467
253,2022.7800000000002,0.1379920130009037
254,2036.8,0.1332729894086883
255,2046.2,0.13667485409008454
256,2055.64,0.13034487657863564
257,2065.13,0.13119600382613034
258,2074.67,0.13874965583256865
259,2079.45,0.1376736187875765
260,2084.24,0.1431424186943731
261,2093.8599999999997,0.13706426631512117
262,2103.53,0.1368094986948128
263,2113.2400000000002,0.13869367888165934
264,2122.99,0.13819810687566075
265,2132.79,0.13142254962860578
266,2142.63,0.13507118018870565
267,2152.52,0.13838902550774912
268,2167.44,0.13371705757651844
269,2177.45,0.1329916463170266
270,2187.5,0.13366008286468956
271,2187.7616199999998,0.13385092135056048
272,2192.54,0.1373771626074181
273,2202.66,0.1343295621326807
274,2212.83,0.1273022218334634
275,2223.04,0.12601993967466218
276,2233.3,0.13401477769138098
277,2243.61,0.12988843588361987
278,2253.97,0.12310716425137885
279,2264.37,0.12420027075955388
280,2274.83,0.12707701947835298
281,2285.33,0.13191622633756817
282,2295.8700000000003,0.12429703133719938
283,2306.47,0.1274296285474547
284,2317.12,0.12158349593323009
285,2322.46,0.10379366267877381
286,2333.18,0.1122799843102773
287,2343.95,0.10746710611730086
288,2354.77,0.11723467809984449
289,2365.64,0.1071040502579082
290,2376.56,0.11042078259149196
291,2387.5299999999997,0.10219182510059584
292,2393.0299999999997,0.10718953440780378
293,2404.08,0.10450511319773974
294,2415.17,0.10700194012809176
295,2426.3199999999997,0.11584563926906788
296,2437.52,0.11306355858556405
297,2443.14,0.11886978231402018
298,2454.42,0.11868698791134848
299,2465.74,0.11580328164909282
300,2477.13,0.11162125963256528
301,2482.84,0.10827469167695752
302,2494.3,0.10352470390615809
303,2505.81,0.11783495631087872
304,2511.59,0.10079460260099907
305,2511.88643,0.10082491056287232
306,2517.38,0.10141151302825305
307,2523.18,0.09962924563940774
308,2534.83,0.10384195786698566
309,2546.53,0.10334152709983216
310,2552.4,0.11455227151836284
311,2564.18,0.10829164995963907
312,2576.01,0.11467445540618387
313,2587.9,0.11170392525905096
314,2593.87,0.10908231368811878
315,2605.8399999999997,0.1047930227494156
316,2617.87,0.1026517062170347
317,2623.91,0.10910648645347854
318,2636.02,0.12034244912952735
319,2642.09,0.13445143156913233
320,2654.2900000000004,0.14575196085466458
321,2666.54,0.12403154714546541
322,2672.6899999999996,0.13084877879350013
323,2685.02,0.13471738429273067
324,2697.4199999999996,0.12275156159933721
325,2703.64,0.13024268505474793
326,2716.11,0.11807328416873047
327,2722.3799999999997,0.11479327462940976
328,2734.94,0.12185441035287575
329,2747.5699999999997,0.10089256788371774
330,2753.9,0.1069533827507193
331,2766.61,0.11447333948999103
332,2772.9900000000002,0.11937851136226117
333,2785.7900000000004,0.10465742471101631
334,2792.21,0.08506572618750133
335,2805.1,0.0896868761457399
336,2818.05,0.11449239051030077
337,2824.54,0.1298032637941618
338,2837.58,0.1267178547682061
339,2844.12,0.11874661505733569
340,2857.25,0.10417022264086342
341,2863.84,0.13109314993526158
342,2877.0499999999997,0.13904308672721905
343,2883.69,0.13341394102688578
344,2884.0315,0.13355225008691973
345,2897.0,0.13885506703698797
346,2910.37,0.15838026138569866
347,2930.54,0.14818457597159956
348,2950.86,0.14427308585685028
349,2971.31,0.1493478783348708
350,2991.91,0.14978446611224105
351,3012.65,0.15294664283567116
352,3026.55,0.1540778739087511
353,3047.5299999999997,0.15641190311114084
354,3068.65,0.15975772125959037
355,3089.9300000000003,0.1602499410606797
356,3111.34,0.1660526434545388
357,3132.91,0.16156174750103772
358,3147.37,0.16079633435835683
359,3169.19,0.16596279723710539
360,3191.1600000000003,0.15314905541520368
361,3213.28,0.16294850889265178
362,3228.11,0.14799943082170042
363,3250.48,0.17231504313139814
364,3273.02,0.18627376344702565
365,3288.12,0.18347885691490387
366,3310.9100000000003,0.18066333606278098
367,3311.31121,0.18066005149270964
368,3318.55,0.18062056282526062
369,3326.2000000000003,0.17797621916648765
370,3333.87,0.19386364284455448
371,3341.5499999999997,0.17791110019104123
372,3349.2499999999995,0.19790962487436778
373,3356.9700000000003,0.19094161689453412
374,3364.71,0.15355207625154027
375,3372.4700000000003,0.15929880294538623
376,3380.24,0.1888508633076521
377,3388.04,0.1904054246751777
378,3395.8500000000004,0.1780382197111232
379,3403.68,0.2018981820839085
380,3411.52,0.1772329781251137
381,3419.39,0.17942737517157864
382,3427.27,0.18395680588646346
383,3435.17,0.19100790393818812
384,3443.0899999999997,0.16397136932675255
385,3451.0299999999997,0.1885489020521568
386,3458.98,0.18615306844598095
387,3466.95,0.1799736021766449
388,3474.95,0.1920486369125686
389,3482.96,0.18256580531691216
390,3490.99,0.19116984105809556
391,3499.03,0.16645981046769887
392,3507.1000000000004,0.19435728088256188
393,3515.18,0.1756671849658448
394,3523.29,0.18862949005438745
395,3531.41,0.18505942881134999
396,3539.55,0.19754293490515235
397,3547.71,0.20432590833579448
398,3555.89,0.19747014910327645
399,3564.0899999999997,0.19412155720759822
400,3572.2999999999997,0.1699865989803399
401,3580.54,0.1768577417583413
402,3588.79,0.14998761820476258
403,3597.0600000000004,0.1839945619880237
404,3605.36,0.1890796067765445
405,3613.67,0.17194968523348525
406,3622.0,0.16976343102726577
407,3626.29,0.18401277477940484
408,3629.0299999999997,0.1820236999264587
409,3631.7700000000004,0.18354192507351255
410,3634.52,0.17904798388898632
411,3637.2599999999998,0.1861157090360402
412,3640.0,0.19403593418309406
413,3642.75,0.19325339299856784
414,3645.4900000000002,0.18187901814562168
415,3648.23,0.18257144329267555
416,3650.9799999999996,0.1895939021081493
417,3653.72,0.20173172725520316
418,3656.4600000000005,0.208293452402257
419,3659.21,0.20301801121773078
420,3661.95,0.20945543636478464
421,3664.69,0.2093132615118385
422,3667.44,0.20631092032731227
423,3670.1800000000003,0.20641734547436613
424,3672.92,0.20330957062142
425,3675.6699999999996,0.20532392943689376
426,3678.41,0.20275785458394763
427,3681.15,0.19901067973100148
428,3683.9,0.19504053854647524
429,3686.64,0.1947029636935291
430,3689.38,0.19810368884058296
431,3692.13,0.21058674765605673
432,3694.87,0.21326817280311058
433,3697.61,0.21346349795016445
434,3700.3599999999997,0.20683835676563822
435,3703.1,0.1922141819126921
436,3705.84,0.18938160705974594
437,3708.59,0.19855276587521972
438,3711.33,0.20772499102227357
439,3714.0699999999997,0.20292121616932743
440,3716.82,0.20867377498480122
441,3719.56,0.21693140013185508
442,3722.3,0.23817952527890893
443,3725.0499999999997,0.2683410840943827
444,3727.7900000000004,0.27596840924143656
445,3730.53,0.2553862343884904
446,3733.2799999999997,0.2115835932039642
447,3736.02,0.20197611835101803
448,3738.7599999999998,0.2042846434980719
449,3741.51,0.20082950231354565
450,3744.25,0.1905827274605995
451,3746.9900000000002,0.19002325260765338
452,3749.74,0.18737611142312713
453,3752.4800000000005,0.199185436570181
454,3755.2200000000003,0.21133216171723485
455,3757.97,0.21970412053270863
456,3760.71,0.21226324567976249
457,3763.45,0.21184587082681636
458,3766.2000000000003,0.21194232964229012
459,3768.94,0.218690554789344
460,3771.68,0.21584027993639784
461,3774.43,0.2306940387518716
462,3777.17,0.25092986389892546
463,3779.9100000000003,0.2640089890459793
464,3782.66,0.2610509478614531
465,3785.4,0.25196737300850697
466,3788.14,0.24725249815556083
467,3790.89,0.2287557569710346
468,3793.63,0.21190288211808844
469,3796.37,0.20685930726514232
470,3799.1200000000003,0.21104026608061605
471,3801.86,0.21952879122766994
472,3801.8939600000003,0.21974438176562522
473,3804.6000000000004,0.23692852229078795
474,3807.35,0.25246237159316376
475,3810.0899999999997,0.2580348679889855
476,3812.83,0.26241766438480724
477,3815.58,0.25142021368718304
478,3818.32,0.23825751008300478
479,3821.06,0.2338143064788265
480,3823.8100000000004,0.22368705578120232
481,3826.55,0.20537435217702404
482,3829.2900000000004,0.18766534857284578
483,3832.04,0.1779734978752216
484,3834.7799999999997,0.17073309427104333
485,3837.52,0.18476749066686507
486,3840.27,0.20409293996924088
487,3843.01,0.2222296363650626
488,3845.75,0.23350263276088432
489,3848.5000000000005,0.2504127820632602
490,3851.2400000000002,0.25017837845908186
491,3853.98,0.24596597485490362
492,3856.73,0.24608542415727944
493,3859.47,0.24771552055310114
494,3862.21,0.2570263169489229
495,3864.96,0.26886626625129867
496,3867.7,0.2666073626471204
497,3870.44,0.26092105904294216
498,3873.19,0.25313790834531796
499,3875.9300000000003,0.2496980047411397
500,3878.67,0.24449120113696143
501,3881.42,0.22598195043933725
502,3884.16,0.21921224683515897
503,3886.8999999999996,0.2060495432309807
504,3889.65,0.20408249253335653
505,3892.39,0.22458098892917827
506,3895.13,0.247050785325
507,3897.88,0.2536876346273758
508,3900.6200000000003,0.26407273102319756
509,3903.36,0.26945002741901924
510,3906.1099999999997,0.2745328767213951
511,3908.85,0.2801498731172168
512,3911.5899999999997,0.2918314695130385
513,3914.34,0.2841547188154144
514,3917.08,0.27806001521123613
515,3919.82,0.27285311160705783
516,3922.57,0.25762916090943366
517,3925.3100000000004,0.2414120573052554
518,3928.05,0.21287925370107708
519,3930.7999999999997,0.18167280300345293
520,3933.54,0.17548019939927464
521,3936.2799999999997,0.19571229579509639
522,3939.03,0.22842764509747218
523,3941.77,0.24628024149329392
524,3944.5099999999998,0.2573668378891157
525,3947.26,0.26759978719149147
526,3950.0,0.27523238358731317
527,3952.7400000000002,0.27534417998313493
528,3955.49,0.2635742292855108
529,3958.23,0.24616722568133248
530,3960.97,0.2213460220771542
531,3963.72,0.18862117137953002
532,3966.46,0.16948256777535176
533,3969.2,0.1663533641711735
534,3971.9500000000003,0.1858298134735493
535,3974.69,0.21846630986937102
536,3977.4300000000003,0.24708950626519277
537,3980.18,0.2688210555675686
538,3982.9199999999996,0.2823228519633903
539,3985.66,0.29654384835921205
540,3988.41,0.30444139766158784
541,3991.15,0.31297969405740955
542,3993.89,0.31331359045323126
543,3996.6400000000003,0.32206343975560714
544,3999.38,0.3265795361514289
545,4002.1200000000003,0.3209820325472506
546,4004.87,0.3289149818496264
547,4007.6099999999997,0.32826327824544815
548,4010.35,0.3320956746412699
549,4013.1,0.33671662394364565
550,4015.84,0.34072662033946743
551,4018.59,0.33586446964184324
552,4021.3300000000004,0.33086196603766493
553,4024.07,0.3284344624334867
554,4026.8199999999997,0.32636931173586253
555,4029.56,0.32393290813168424
556,4032.2999999999997,0.321682904527506
557,4035.05,0.3294116538298818
558,4037.79,0.33826965022570354
559,4040.5299999999997,0.3364637466215253
560,4043.28,0.32844059592390107
561,4046.02,0.3261728923197228
562,4048.76,0.3282559887155445
563,4051.5099999999998,0.33387153801792036
564,4054.25,0.32358583441374206
565,4056.99,0.32232143080956377
566,4059.7400000000002,0.3208512801119396
567,4062.48,0.32075007650776133
568,4065.22,0.31828707290358305
569,4067.9700000000003,0.3240712222059589
570,4070.71,0.3204361186017806
571,4073.4500000000003,0.31348011499760237
572,4076.2,0.3144428642999782
573,4078.9399999999996,0.3209389606957999
574,4081.68,0.3234483570916216
575,4084.43,0.33285520639399746
576,4087.17,0.3313422027898192
577,4089.91,0.3216070991856409
578,4092.6600000000003,0.3061343484880167
579,4095.4,0.28450984488383846
580,4098.14,0.2689141412796602
581,4100.889999999999,0.26372379058203604
582,4103.63,0.27089468697785773
