,lambda (Angstroms),Total Flux (erg/s/cm^2/Angstrom)
0,100.09,144.3594344216128
1,101.94999999999999,143.95782756991525
2,104.08000000000001,143.4979229492884
3,104.712855,143.36127837733505
4,106.02000000000001,141.8787355528585
5,107.99,139.64439325478105
6,109.99,137.3760254418944
7,114.12,132.69184590718382
8,118.13000000000001,128.14376844492355
9,120.22644299999999,125.76601661549367
10,120.88,125.14455312266402
11,125.13,121.10325309902703
12,126.87,119.44869733018005
13,128.05,118.3266422691656
14,131.03,115.49297779283381
15,131.94,114.62766419723464
16,134.07999999999998,112.59275078780404
17,136.89,109.92073842287864
18,138.038426,108.8287069092917
19,140.07999999999998,107.44108264363749
20,143.01,105.44961114884916
21,147.02,102.72408377855004
22,151.14000000000001,99.92378843016485
23,155.01,97.29341422795454
24,158.489319,94.9285795498125
25,158.99,94.67130318068648
26,161.95000000000002,93.15029876181494
27,166.1,91.01780973019582
28,169.97000000000003,89.02919951627895
29,173.13,87.40542492158067
30,177.16,85.3345985750168
31,180.04,83.85470305704078
32,181.970086,82.8629233016223
33,182.13,82.8002337601461
34,185.94,81.30663657230183
35,191.15,79.26421106475496
36,193.81,78.22143793631999
37,197.87,76.6298360812224
38,202.01,75.00687307986894
39,204.82,73.90529714829799
40,208.929613,72.2942450357547
41,210.07000000000002,71.95814287260262
42,215.96,70.22220972696792
43,219.97,69.04035961994649
44,223.03,68.1384981965255
45,227.17999999999998,66.91538710199096
46,229.81,66.14029388582311
47,234.08,64.88187987175303
48,239.88329199999998,63.17154614205236
49,240.09,63.12460067109869
50,246.25,61.725545157292096
51,251.98000000000002,60.424180626565004
52,257.26,59.2249603363165
53,260.24,58.548186697558435
54,263.86,57.72603701503085
55,268.76,56.61316373886425
56,273.76,55.477577449502384
57,275.42287,55.099911032047046
58,278.85,54.502555847172054
59,284.03000000000003,53.599673057782645
60,289.98,52.56256111847997
61,296.05,51.50455446640378
62,300.86,50.66615760804935
63,307.87,49.444305661114086
64,316.227766,47.98753647611643
65,317.96,47.76202507570527
66,328.38,46.40548467915711
67,338.34999999999997,45.10752468152152
68,347.83000000000004,43.873355151204
69,356.76,42.71078928371294
70,363.078055,41.888267277975096
71,365.90999999999997,41.61216683494865
72,375.29,40.697654085849415
73,384.91999999999996,39.758750730563634
74,394.79,38.79648359139877
75,404.92,37.808855688739904
76,414.35,36.88946409990336
77,416.86938299999997,36.6438311276879
78,422.06,36.25736341102949
79,429.9,35.6736393791249
80,440.93,34.85241550017023
81,451.2,34.08776520669457
82,459.59,33.46308620359859
83,470.3,32.665678230229815
84,478.630092,32.04547055440817
85,480.14,31.959010694781806
86,490.2,31.38293729865895
87,500.46,30.79543823649865
88,506.26,30.4633056735131
89,512.12,30.127823874976322
90,520.44,29.651402271239117
91,530.12,29.097100797007382
92,539.97,28.53304413296382
93,549.5408739999999,27.985035546871828
94,550.01,27.964545021045495
95,560.24,27.517719387432113
96,570.65,27.063027799033755
97,579.9200000000001,26.65807113480697
98,589.35,26.24621321248242
99,600.3,25.767891334429102
100,610.06,25.34156450526541
101,619.9699999999999,24.908793076047562
102,630.0400000000001,24.468949344631948
103,630.957344,24.428878072854324
104,640.28,24.106051076387566
105,650.6800000000001,23.745992177955117
106,658.22,23.484946054649093
107,664.3100000000001,23.274101739017304
108,675.1,22.900453857544893
109,684.5,22.574921857863643
110,695.62,22.190123828534336
111,705.29,21.855206212879267
112,716.76,21.458225860732043
113,724.43596,21.192459598591384
114,726.73,21.13350499437722
115,735.14,20.917387550126826
116,745.37,20.654632176119513
117,755.74,20.388197991438595
118,764.49,20.163370039838007
119,775.12,19.89034060347753
120,784.0999999999999,19.659676205698876
121,795.01,19.379346198991172
122,804.21,19.14298287986827
123,815.4,18.855446144813353
124,824.84,18.61307764567855
125,831.763771,18.434663485570667
126,834.39,18.384037107362765
127,844.05,18.199197577416395
128,855.8000000000001,17.973533670337737
129,865.7099999999999,17.783398190772665
130,875.73,17.591171283095374
131,885.87,17.396731595841107
132,894.07,17.239433471747912
133,904.42,17.040506469733945
134,914.89,16.842363264143
135,925.49,16.690582685510332
136,934.0500000000001,16.598149355686218
137,944.87,16.515606218829102
138,954.992586,16.436429288276134
139,955.81,16.43037488586193
140,964.65,16.276557955308576
141,975.82,15.725998151453267
142,984.85,15.781587035265847
143,993.96,15.66655395196935
144,1005.47,15.675889455400451
145,1014.78,15.503248829331252
146,1024.1699999999998,15.01460990615298
147,1036.03,14.895749559731852
148,1045.61,15.138612880919508
149,1055.29,14.945714030720815
150,1065.05,14.54941028341304
151,1074.91,14.508862664718917
152,1084.85,14.131546748915714
153,1094.89,14.187803361726157
154,1096.4782,14.153104974646526
155,1105.02,13.995590940800522
156,1115.25,13.789645948661066
157,1125.57,13.547654823746191
158,1135.98,13.621312766055892
159,1143.85,13.410256855583018
160,1154.44,13.319661632341877
161,1165.1200000000001,13.17949587632532
162,1175.9,12.708907672780516
163,1184.05,12.862948949228556
164,1195.01,12.37811668013291
165,1206.06,12.032784378261848
166,1214.4199999999998,11.848055044900574
167,1225.6599999999999,11.964234762725843
168,1234.16,12.18411962282502
169,1245.58,12.106013875099451
170,1254.21,11.904248143411914
171,1258.92541,11.766695073439617
172,1265.82,11.596041434251129
173,1274.59,11.801206530673728
174,1286.38,11.742516801006953
175,1295.3,11.320850148451603
176,1304.28,11.20902855630507
177,1316.35,11.368605175212796
178,1325.47,11.211704557353512
179,1334.66,10.941986976637851
180,1343.91,11.095632856331013
181,1356.3500000000001,10.917950114426462
182,1365.75,10.661785045141675
183,1375.22,10.628614313000512
184,1384.7499999999998,10.535252041268173
185,1394.3500000000001,10.286906006679446
186,1404.01,10.217369432499552
187,1413.74,10.120697495463274
188,1423.5400000000002,10.062553095570621
189,1433.4099999999999,9.938458932821598
190,1443.35,9.899230707216194
191,1445.43977,9.894169860822796
192,1446.6699999999998,9.895266966341048
193,1453.35,9.801315092421381
194,1463.43,9.624926352734219
195,1473.57,9.551020484239398
196,1483.7800000000002,9.502251898802301
197,1494.0700000000002,9.449317908288323
198,1504.4299999999998,9.303191500832078
199,1511.37,9.123310035412544
200,1518.35,9.14587091745457
201,1525.3500000000001,9.053944523227372
202,1535.93,8.8413379768097
203,1546.57,8.865133001584363
204,1553.71,8.759734773472621
205,1564.48,8.685389152497352
206,1575.3300000000002,8.6584912264452
207,1586.2499999999998,8.631330883450778
208,1593.57,8.592869468916051
209,1604.61,8.496010268306303
210,1615.74,8.420297774485064
211,1623.1899999999998,8.301476814200408
212,1634.45,8.282355474629231
213,1645.78,8.211439318115787
214,1653.3700000000001,8.071167423946585
215,1659.58691,8.073288278708693
216,1664.83,8.087108239955354
217,1672.5200000000002,7.917306106925459
218,1676.3700000000001,8.026872369842874
219,1684.1100000000001,8.047189831136583
220,1695.78,7.911762026265468
221,1703.6100000000001,7.827542117341661
222,1715.42,7.703746336576636
223,1723.34,7.659173957435315
224,1735.28,7.660514341911657
225,1743.2900000000002,7.59605649255282
226,1755.38,7.604295759999969
227,1763.48,7.466393440423619
228,1775.7,7.4249172731121345
229,1783.8999999999999,7.39998304218299
230,1796.27,7.410767057842316
231,1804.56,7.3596173566956535
232,1817.0700000000002,7.201600596461066
233,1825.45,7.179543525096891
234,1833.8799999999999,7.092030848056319
235,1846.59,6.947128865116143
236,1855.1100000000001,6.897811717858053
237,1863.68,6.880700264923568
238,1876.6,6.897583118142525
239,1885.26,6.771273194990524
240,1893.96,6.691636607297404
241,1905.46072,6.6738152995076385
242,1907.09,6.673625681719878
243,1915.89,6.6018869477963475
244,1924.73,6.556637577354984
245,1933.6200000000001,6.547220461266324
246,1947.0199999999998,6.529880327791859
247,1956.01,6.437848220408614
248,1965.0400000000002,6.490136676507536
249,1974.1100000000001,6.481263996088624
250,1983.22,6.3900836791518785
251,1996.97,6.308556526146361
252,2006.1799999999998,6.30275161791503
253,2015.44,6.226564064036405
254,2024.7499999999998,6.238377064510489
255,2034.0900000000001,6.147410737596195
256,2043.48,6.151262165034608
257,2052.91,6.07461475595519
258,2067.14,6.016521464735662
259,2071.91,6.06267010998393
260,2076.69,5.996226546102739
261,2086.27,5.994537800081441
262,2095.9,5.90604320841285
263,2105.58,5.871188171096967
264,2115.29,5.841507506392706
265,2125.06,5.815198686911695
266,2134.87,5.70944843091285
267,2144.72,5.695419138396172
268,2154.62,5.690935800232199
269,2164.56,5.623698125550392
270,2174.56,5.575546196091835
271,2184.5899999999997,5.519086739244902
272,2187.7616199999998,5.51883988988396
273,2194.68,5.527097866502159
274,2204.81,5.47622880149281
275,2214.98,5.406630458339298
276,2225.21,5.35143004796954
277,2235.48,5.379708759455621
278,2245.8,5.315263998261496
279,2256.1600000000003,5.2511484589232085
280,2266.58,5.244550352368677
281,2277.04,5.236972267669981
282,2287.5499999999997,5.229893910291081
283,2292.82,5.173303489797569
284,2303.41,5.142109876130343
285,2314.04,5.074038584318954
286,2324.7200000000003,4.883999519827359
287,2335.45,4.963818682655562
288,2346.23,4.91843537280356
289,2357.06,4.941409490271354
290,2362.49,4.8689165572011905
291,2373.4,4.859062318380657
292,2384.35,4.783921901415962
293,2395.36,4.798107217235021
294,2406.42,4.739769360373876
295,2417.52,4.727706625368568
296,2423.1,4.750831674257792
297,2434.28,4.694670482964156
298,2445.52,4.703554124454277
299,2456.8,4.662633287800234
300,2462.47,4.643501085865091
301,2473.83,4.588272792922721
302,2485.25,4.576273832764107
303,2496.7200000000003,4.510928299925288
304,2502.4800000000005,4.561938047165777
305,2511.88643,4.475847639668352
306,2514.0299999999997,4.457682259246966
307,2519.83,4.46499855156079
308,2525.6400000000003,4.424932828688949
309,2537.29,4.4104038373882695
310,2543.14,4.385474153773766
311,2554.88,4.405905625802092
312,2566.6699999999996,4.364674821902092
313,2572.59,4.390663331987926
314,2584.47,4.357807791416933
315,2596.39,4.325029090103276
316,2602.38,4.29021289388945
317,2614.39,4.2577614559048005
318,2626.46,4.261603426806156
319,2632.51,4.268030139478335
320,2644.67,4.296989573708698
321,2656.87,4.2860972471964
322,2663.0,4.205001338383251
323,2675.29,4.2120759751999595
324,2687.64,4.1820464209026715
325,2693.83,4.14264282097553
326,2706.27,4.13551893000725
327,2712.51,4.091253354151778
328,2725.0299999999997,4.065171641698173
329,2737.6,4.070774753316238
330,2743.92,3.971446855975439
331,2756.58,3.9569444309225115
332,2762.94,3.964892472839051
333,2775.69,3.967467411115131
334,2782.0899999999997,3.924519692289006
335,2794.93,3.790476593894094
336,2807.83,3.7984302043851867
337,2814.3,3.884592179259401
338,2827.29,3.889159653079501
339,2833.81,3.849824752025387
340,2846.8900000000003,3.8099070891744944
341,2853.4500000000003,3.7771457273777163
342,2866.62,3.805917227855833
343,2873.23,3.790156890130726
344,2884.0315,3.7655283816776826
345,2886.49,3.761353823291886
346,2893.15,3.7441495319886147
347,2913.2000000000003,3.7680059981101497
348,2926.65,3.7240713898475386
349,2946.94,3.684866093219406
350,2967.36,3.667178870935204
351,2987.93,3.6384343344324597
352,3008.6400000000003,3.6177579779924085
353,3029.5,3.5858365073338168
354,3050.5,3.5537268167379183
355,3071.64,3.524187106204714
356,3092.93,3.498576481452967
357,3107.21,3.4731033478477555
358,3128.75,3.4348258660651054
359,3150.44,3.405868370063913
360,3172.27,3.372660354125415
361,3186.9199999999996,3.321930832114467
362,3209.0099999999998,3.310605264863829
363,3231.25,3.2523412833946486
364,3253.65,3.24954869342569
365,3268.67,3.2447201830090044
366,3291.3199999999997,3.2076282360091435
367,3306.52,3.1863824285302065
368,3311.31121,3.177574334262031
369,3321.7799999999997,3.1626019007429202
370,3329.44,3.174068909390975
371,3337.1099999999997,3.1541690056482317
372,3344.8,3.1318491771238897
373,3352.51,3.1189690238179506
374,3360.24,3.1232148457304136
375,3367.9900000000002,3.1128609428612783
376,3375.75,3.062907627601345
377,3383.53,3.062609387559813
378,3391.3399999999997,3.0976721103458855
379,3399.15,3.1021603331319567
380,3406.99,3.063540718745632
381,3414.84,3.067598891968508
382,3422.71,3.082863640409787
383,3430.6,3.0640385640694676
384,3438.51,3.0616367629475505
385,3446.44,2.9926128370440352
386,3454.38,3.026945498749722
387,3462.3500000000004,2.9817436232830117
388,3470.33,2.9992444354255023
389,3478.33,2.9560008227863954
390,3486.35,2.971722285365691
391,3494.39,2.9599104231633877
392,3502.44,2.9725372485702866
393,3510.51,2.951530249195587
394,3518.6099999999997,2.938366912648492
395,3526.72,2.926501363710597
396,3534.85,2.944257289991105
397,3543.0,2.9590684914900143
398,3544.8,2.971726161146215
399,3547.4,2.5971654395385055
400,3550.0,3.1022923179307957
401,3552.6000000000004,2.8961389963230855
402,3555.1899999999996,2.9540621871061754
403,3557.79,2.8304112654984652
404,3560.39,3.1164097438907556
405,3562.99,2.796674522283046
406,3565.59,2.6834717006753355
407,3568.19,2.904453679067626
408,3570.78,2.5054969698507152
409,3573.38,2.819284448243006
410,3575.9800000000005,2.3998931566352955
411,3578.58,2.624687605027586
412,3581.18,2.712048683419876
413,3583.7799999999997,3.231225761812167
414,3586.37,2.940983352595256
415,3588.9700000000003,2.847179830987546
416,3591.57,2.832686809379836
417,3594.17,3.0372950877721263
418,3596.7700000000004,2.7990891661644164
419,3599.37,3.0862554445567065
420,3601.97,2.9111320229489976
421,3604.56,3.0297798137320866
422,3607.16,3.0859786921243764
423,3609.76,2.4782029705166657
424,3612.36,2.582925848908957
425,3614.96,2.7578675273012467
426,3617.5600000000004,2.591967705693537
427,3620.1499999999996,2.8435400964766266
428,3622.75,3.217432374868917
429,3625.35,2.572248053261206
430,3627.95,2.9482267316534974
431,3630.55,2.8664431100457874
432,3633.15,2.8557967884380773
433,3635.7400000000002,2.704370279221166
434,3638.3399999999997,2.9339224576134573
435,3640.9399999999996,2.5946413360057474
436,3643.54,2.658317914398037
437,3646.14,2.9098081927903277
438,3648.74,2.464862271182618
439,3651.33,2.6930347619657065
440,3653.9300000000003,2.8894216403579964
441,3656.53,2.5977460187502874
442,3659.13,2.790870397142577
443,3661.7300000000005,2.765484575534867
444,3664.33,2.780484153927158
445,3666.92,2.6527491447102474
446,3669.52,2.835850423102537
447,3672.12,2.783830601494828
448,3674.7200000000003,2.8875725798871175
449,3677.32,3.0079456582794077
450,3679.92,2.9293409366716983
451,3682.5200000000004,2.849310215063988
452,3685.1099999999997,3.1113802058470776
453,3687.71,2.8379703842393678
454,3690.31,2.792252562631658
455,3692.91,2.508215041023948
456,3695.51,2.633206919416238
457,3698.11,2.804677297808529
458,3700.7000000000003,2.671516988591618
459,3703.2999999999997,2.996871766983908
460,3705.8999999999996,3.086945345376199
461,3708.5,2.7577224237684885
462,3711.1,2.8851417021607793
463,3713.7,3.105017380553069
464,3716.29,3.0337304713361584
465,3718.8900000000003,2.889671149728448
466,3721.4900000000002,3.1046712281207385
467,3724.0899999999997,3.545873806513029
468,3726.6899999999996,3.956679584905319
469,3729.29,4.01065136329761
470,3731.88,3.5015680540806984
471,3734.48,3.2721608324729887
472,3737.08,2.9606049108652788
473,3739.6800000000003,3.0505392892575687
474,3742.28,2.837791567649859
475,3744.8799999999997,2.82245684604215
476,3747.47,2.694082336825239
477,3750.0699999999997,2.787488115217529
478,3752.67,2.850482993609819
479,3755.27,2.9745704720021093
480,3757.87,3.0459327503943996
481,3760.4700000000003,3.0277738287866893
482,3763.07,2.80344500717898
483,3765.6600000000003,2.680252697962069
484,3768.2599999999998,2.7759119763543594
485,3770.8599999999997,3.0354224547466497
486,3773.46,2.55282403313894
487,3776.06,2.9531961115312306
488,3778.66,2.9126396899235205
489,3781.25,2.9661396807066094
490,3783.8500000000004,2.9158448590988995
491,3786.4500000000003,3.0655298374911895
492,3789.0499999999997,3.0876449158834802
493,3791.6499999999996,3.114698594275771
494,3794.25,3.0217647726680608
495,3796.84,2.689926263451149
496,3799.44,2.8987222418434397
497,3801.8939600000003,2.669030999150923
498,3802.04,2.65540360510904
499,3804.6400000000003,2.7333775545408163
500,3807.2400000000002,2.976968903972593
501,3809.8399999999997,3.1596064534043697
502,3812.43,2.916560040338332
503,3815.0299999999997,2.8462841897701083
504,3817.63,3.0140367392018845
505,3820.23,2.801166788633661
506,3822.83,2.7210626380654377
507,3825.4300000000003,3.0332382874972135
508,3828.02,2.995597074431176
509,3830.6200000000003,2.831695723862952
510,3833.22,2.692592373294729
511,3835.8199999999997,2.857040822726505
512,3838.42,2.6039039721582817
513,3841.02,2.7845872215900576
514,3843.61,3.11776080852402
515,3846.21,3.2567850579557964
516,3848.81,3.058313507387573
517,3851.4100000000003,2.971691556819349
518,3854.0099999999998,3.303391806251126
519,3856.6099999999997,3.080019055682902
520,3859.21,2.8894080051146784
521,3861.8,2.8822328920486404
522,3864.4,2.9866178414804168
523,3867.0,3.0347299909121936
524,3869.6000000000004,2.9492210403439696
525,3872.2000000000003,3.0012982897757463
526,3874.7999999999997,3.258362839207523
527,3877.39,3.0410535261414844
528,3879.99,2.8871684755732607
529,3882.59,2.8710090250050375
530,3885.19,2.652713774436814
531,3887.79,2.5063557238685905
532,3890.3900000000003,2.9519784733003664
533,3892.9799999999996,2.803808860234329
534,3895.58,2.673845209666105
535,3898.18,2.9336999590978814
536,3900.7799999999997,3.044971408529658
537,3903.38,2.9639833579614345
538,3905.98,2.9417722073932113
539,3908.57,2.937866594327173
540,3911.17,2.827664443758949
541,3913.7699999999995,3.024631293190726
542,3916.3700000000003,2.9972033426225018
543,3918.97,3.0304991920542785
544,3921.5699999999997,3.229065441486055
545,3924.17,2.9149196909178317
546,3926.76,2.859193177851793
547,3929.36,2.9556483272835696
548,3931.96,2.6322853767153465
549,3934.56,2.738583126147123
550,3937.1600000000003,2.794972875578899
551,3939.7599999999998,2.9838705250106754
552,3942.35,2.8529517119446375
553,3944.95,2.8069518613764144
554,3947.55,2.96044481080819
555,3950.15,3.0008361602399667
556,3952.75,2.6608630096717434
557,3955.3500000000004,2.92817335910352
558,3957.9399999999996,2.912443046037482
559,3960.54,2.6707130954692584
560,3963.14,2.6203937449010346
561,3965.74,2.6140699943328114
562,3968.34,2.6134639437645872
563,3970.94,2.6334262931963637
564,3973.53,2.669327780130326
565,3976.13,2.6482298295621023
566,3978.7299999999996,2.6703832789938793
567,3981.33,2.688557728425655
568,3983.93,2.909730777857432
569,3986.5299999999997,3.3114758272892084
570,3989.12,2.91762801422317
571,3991.7200000000003,3.0261173636549463
572,3994.32,2.948189713086723
573,3996.92,3.3257298625184992
574,3999.5199999999995,3.0627771119502762
575,4002.1200000000003,2.891294561382052
576,4004.72,2.9572833108138292
577,4007.31,2.8585003977477905
578,4009.91,3.126904147179567
579,4012.51,3.032491396611343
580,4015.11,3.1167036460431197
581,4017.71,2.9412561954748964
582,4020.3100000000004,2.9009600449066726
583,4022.8999999999996,3.1437084318406354
584,4025.5,2.943288781272411
585,4028.1,2.9955739307041878
586,4030.7,2.9830321801359645
587,4033.3,3.0022074295677403
588,4035.9,2.888249878999517
589,4038.4900000000002,2.8741887659334786
590,4041.09,2.7554308153652554
591,4043.6899999999996,2.8353313647970317
592,4046.29,2.7308330142288084
593,4048.89,2.653045363660585
594,4051.49,2.8335265130923615
595,4054.08,3.069318500026323
596,4056.68,3.1222307494580996
597,4059.28,2.966675998889876
598,4061.88,2.947525248321652
599,4064.4799999999996,3.006836497753429
600,4067.08,2.9081115471852055
601,4069.67,3.056330034119167
602,4072.27,2.9778462835509436
603,4074.87,2.7245628329827203
604,4077.4700000000003,2.7684320824144963
605,4080.07,2.948913031846273
