,lambda (Angstroms),Total Flux (erg/s/cm^2/Angstrom)
0,102.08999999999999,38.01702831756639
1,103.99000000000001,37.90866660575584
2,104.712855,37.867440392497514
3,105.92,37.505799937617184
4,107.89,36.91562088198239
5,109.89999999999999,36.31345849526873
6,114.02000000000001,35.07917539414422
7,118.02999999999999,33.87784645348667
8,120.22644299999999,33.2198288618649
9,121.06,33.0104650781758
10,125.03,32.013323645441346
11,127.06,31.50345031837573
12,127.94,31.28242148693853
13,130.92,30.53393748957162
14,132.13,30.230022846345964
15,133.97,29.767871653341356
16,137.09,28.98422397824809
17,138.038426,28.746008648152703
18,139.96,28.40102542157143
19,142.89,27.874997876531655
20,146.89000000000001,27.156871535242278
21,151.01,26.41720140367578
22,154.88,25.722414168477076
23,158.489319,25.07442740650996
24,158.85,25.025472473561464
25,162.18,24.57349433578213
26,165.96,24.06043807137236
27,169.82,23.536523473383184
28,172.98000000000002,23.10761929477468
29,177.01000000000002,22.560630737987573
30,179.89000000000001,22.16973072729362
31,181.97000000000003,21.887414052934673
32,181.970086,21.887402380226025
33,186.20999999999998,21.448366074660854
34,190.98,20.95444021302993
35,194.09,20.632404693380956
36,198.15,20.211998195288363
37,201.84,19.829904605280745
38,205.11999999999998,19.49026585860584
39,208.929613,19.095786534263762
40,209.89000000000001,19.02102120393318
41,215.76999999999998,18.56326809024482
42,219.78,18.251092923090827
43,222.84,18.012874466451276
44,226.99,17.68980041730749
45,230.14,17.444575557686182
46,233.88,17.153419713394825
47,239.88,16.68632475438898
48,239.88329199999998,16.686068474935265
49,246.04000000000002,16.316719840084723
50,251.77,15.972969988725378
51,257.04,15.656816052418046
52,260.01,15.478642083388083
53,264.24,15.224879119529964
54,269.15000000000003,14.93032210005949
55,274.15999999999997,14.629765958043961
56,275.42287,14.554004814629092
57,279.25,14.377801447225627
58,283.79,14.168777136335777
59,289.72999999999996,13.895295952935001
60,295.8,13.615829541564098
61,301.3,13.36260624325739
62,308.32,13.039401297263336
63,316.227766,12.675323123476813
64,317.69,12.625040118744336
65,328.09,12.26740702633974
66,338.06,11.924560716857776
67,348.34,11.571054207689244
68,357.27000000000004,11.26397129873714
69,363.078055,11.064245230893816
70,365.59000000000003,10.999555659278327
71,374.97,10.757994463117472
72,384.59,10.510252536613699
73,395.36,10.232895206582752
74,404.57,9.995712258909252
75,414.0,9.752863561942998
76,416.86938299999997,9.678968972870434
77,421.69,9.58416473332819
78,429.53,9.429980118430567
79,440.54999999999995,9.213256530408321
80,450.81,9.011479260306881
81,460.25000000000006,8.825828370715131
82,469.89000000000004,8.636244404763119
83,478.630092,8.464358489550316
84,479.73,8.447722133444849
85,489.78000000000003,8.295713288795897
86,500.03,8.14067989612244
87,505.82,8.053105067402477
88,511.68,7.964476441337438
89,519.99,7.838786472784695
90,529.66,7.692526421063306
91,539.51,7.543542665778863
92,549.5400000000001,7.391842204101362
93,549.5408739999999,7.391828985076754
94,559.75,7.274038553074273
95,570.16,7.153930297505669
96,579.4300000000001,7.0469708267898215
97,590.2,6.922713257536137
98,599.79,6.81206519304022
99,609.53,6.699691667230518
100,619.4399999999999,6.585360712374528
101,629.5000000000001,6.469295609134752
102,630.957344,6.452481065009294
103,639.73,6.372243031633061
104,650.13,6.277132915314442
105,657.6500000000001,6.2083605669818995
106,665.27,6.138672297259566
107,674.52,6.054070336753582
108,685.48,5.953825321172114
109,695.02,5.866615059845727
110,704.69,5.778164108282607
111,716.14,5.6734806799011475
112,724.43596,5.597615388183401
113,726.0999999999999,5.586320517927102
114,734.51,5.529239688591099
115,744.73,5.459901040553293
116,755.09,5.38959758120264
117,765.59,5.31834283093914
118,774.46,5.258174175803783
119,785.2299999999999,5.1851048241797955
120,794.32,5.123427640709965
121,805.37,5.048446782560283
122,814.7,4.985142111625572
123,824.13,4.92120493753883
124,831.763771,4.869296026710168
125,835.5999999999999,4.849787514965063
126,845.2700000000001,4.800914517343511
127,855.06,4.7512811870661595
128,864.96,4.701132685612656
129,874.98,4.6503852662033545
130,885.11,4.599110354217902
131,895.36,4.547193669076648
132,905.73,4.494593051779596
133,914.11,4.452934028232894
134,924.6899999999999,4.414093079163192
135,935.4,4.382247125758039
136,944.0600000000001,4.377961524181137
137,954.99,4.360475534823684
138,954.992586,4.360466331155251
139,966.04,4.322359272759303
140,974.98,4.16395241077617
141,984.01,4.214180694578441
142,995.4000000000001,4.169582948975768
143,1004.6099999999999,4.19234907434885
144,1013.91,4.143175905507335
145,1025.65,3.974280277959014
146,1035.1399999999999,3.9803302257755773
147,1044.71,4.073048174290276
148,1054.38,4.024543573677647
149,1064.1399999999999,3.9176442788504247
150,1073.98,3.9187371447213373
151,1083.92,3.8122504614649224
152,1093.95,3.843447083993913
153,1096.4782,3.8287742876485034
154,1104.0700000000002,3.791546639812473
155,1114.29,3.7411139944826375
156,1124.6000000000001,3.6740928538416773
157,1135.0,3.710687217889593
158,1145.51,3.6399182765572475
159,1156.1100000000001,3.6226201399137765
160,1164.1200000000001,3.606499257223758
161,1174.8899999999999,3.4554935849926114
162,1185.76,3.516861662415769
163,1193.98,3.372236923999795
164,1205.03,3.259582910800706
165,1216.18,3.163819847255924
166,1224.61,3.256313153113995
167,1235.94,3.347582298946964
168,1244.51,3.357705034321065
169,1256.02,3.293686889531788
170,1258.92541,3.2625384141891267
171,1264.73,3.207083799770182
172,1276.43,3.289583811819648
173,1285.28,3.2926017786262958
174,1294.19,3.1585075516485803
175,1306.16,3.122625341668418
176,1315.22,3.2070272802298003
177,1324.33,3.163110907304213
178,1333.51,3.080462958296871
179,1345.8500000000001,3.137668903313145
180,1355.18,3.0980294198448983
181,1364.58,3.016858660294897
182,1374.03,3.0190581892579273
183,1383.5600000000002,3.001386059841807
184,1396.3600000000001,2.9033925191779755
185,1406.04,2.897262955300953
186,1415.7900000000002,2.8793279153421736
187,1425.6,2.868978581599034
188,1435.48,2.8392135717741382
189,1442.1100000000001,2.852065808602169
190,1445.43,2.853335085867487
191,1445.43977,2.853294154772316
192,1455.45,2.8201178891126304
193,1465.54,2.760817433465801
194,1475.7,2.742258167918547
195,1485.93,2.7343919924708695
196,1496.23,2.725581507122768
197,1506.6,2.6791851118742422
198,1513.55,2.6114596717607177
199,1517.04,2.6380130067252927
200,1524.0400000000002,2.6112853166828933
201,1534.61,2.532387921718871
202,1545.24,2.557104546840199
203,1555.96,2.5125807020895534
204,1566.74,2.4987708774242585
205,1573.97,2.514504897709038
206,1584.8799999999999,2.51778888322867
207,1595.8700000000001,2.508009828862103
208,1603.24,2.487032329346034
209,1614.35,2.4683867151501695
210,1625.54,2.4199731610681057
211,1636.81,2.429517867099843
212,1644.36,2.425710627839827
213,1655.76,2.3632330440564906
214,1659.58691,2.3790606183016085
215,1663.3999999999999,2.3971422323467073
216,1671.0800000000002,2.330556619597627
217,1678.79,2.3782452005487467
218,1686.54,2.3922743064334644
219,1694.33,2.3499137372517804
220,1706.0700000000002,2.3136341052629525
221,1713.9499999999998,2.2772418171818662
222,1725.83,2.258627922460633
223,1733.79,2.281648084246743
224,1745.81,2.252842126793105
225,1753.87,2.277389400913212
226,1766.0300000000002,2.2159421807271684
227,1774.1799999999998,2.218484435947872
228,1786.48,2.210004453029424
229,1794.72,2.235358389350724
230,1803.01,2.221265181839022
231,1815.51,2.1612705235885667
232,1823.8799999999999,2.161624965944062
233,1836.5300000000002,2.1227813761946006
234,1845.0,2.0725963308840925
235,1853.52,2.062451741740582
236,1866.37,2.058229576659114
237,1874.98,2.0865895686162
238,1883.64,2.0345654167402847
239,1896.7,1.9977742075602092
240,1905.4499999999998,2.0126105367848908
241,1905.46072,2.012575079749688
242,1914.24,1.986860623685568
243,1923.0800000000002,1.9704918532519222
244,1936.41,1.969395265822002
245,1945.3500000000001,1.9796743642748535
246,1954.33,1.9411882302823043
247,1967.87,1.969612697514028
248,1976.96,1.9742941492966253
249,1986.0800000000002,1.9359768517451716
250,1995.25,1.9135060386369669
251,2004.46,1.9182411930833614
252,2013.71,1.891490715084354
253,2023.01,1.9045559215285957
254,2037.03,1.8631234994155064
255,2046.4299999999998,1.871552974746245
256,2055.88,1.8415652345202322
257,2065.37,1.8332188618488188
258,2074.9,1.854292356732004
259,2079.68,1.8246938295065716
260,2084.48,1.8372717360584376
261,2094.1,1.8006839829394703
262,2103.77,1.7940878142637515
263,2113.48,1.7874538131426316
264,2123.23,1.784930179576111
265,2133.0299999999997,1.7409617304528386
266,2142.88,1.7407865657728148
267,2152.77,1.7469115686473902
268,2162.71,1.722693255965214
269,2172.69,1.7076069108376366
270,2182.72,1.6876659501533082
271,2187.7616199999998,1.6923654743927607
272,2192.79,1.6987414042659275
273,2202.91,1.678877728788268
274,2213.08,1.6508613299139792
275,2223.3,1.6291674076430613
276,2233.56,1.6479277866548416
277,2243.87,1.6211199422699922
278,2254.23,1.5978426744885144
279,2264.63,1.5992957079897332
280,2275.08,1.605371718094324
281,2285.59,1.6099415801229597
282,2296.1400000000003,1.5818744434342926
283,2306.73,1.5760193080283227
284,2317.38,1.5531703245463984
285,2322.7200000000003,1.4702978457864468
286,2333.44,1.5207934895492423
287,2344.22,1.5048768852360832
288,2355.04,1.5264288822056207
289,2365.91,1.4916760557785296
290,2376.83,1.4961856059548095
291,2382.31,1.469121781684298
292,2393.2999999999997,1.4864248591052982
293,2404.35,1.4652487884503436
294,2415.4500000000003,1.46714179439876
295,2426.6,1.481459276950548
296,2437.8,1.459521736105707
297,2443.42,1.478764866324635
298,2454.7,1.4661492280451882
299,2466.02,1.4580196910484384
300,2477.41,1.4383734812964084
301,2483.12,1.4488648894014047
302,2494.58,1.4196108068940938
303,2506.09,1.4527029009901549
304,2511.87,1.4093578363398707
305,2511.88643,1.4093818780855214
306,2517.66,1.4188641185995627
307,2523.47,1.399702675010667
308,2535.1099999999997,1.3985789198687135
309,2546.81,1.3871770608342757
310,2552.69,1.4098973793708147
311,2564.47,1.3972714484797315
312,2576.31,1.414814313696164
313,2582.2400000000002,1.409272962322299
314,2594.16,1.4009885556820856
315,2606.1400000000003,1.3834788451493878
316,2612.1499999999996,1.3770903219188777
317,2624.2,1.3881704735116152
318,2636.3199999999997,1.3921771872297874
319,2642.39,1.4215520601067926
320,2654.59,1.4213039019683191
321,2666.8399999999997,1.3811838739194422
322,2672.9900000000002,1.3973976749398016
323,2685.3300000000004,1.3897638410521984
324,2697.7200000000003,1.3690782372541912
325,2703.94,1.376256000399986
326,2716.42,1.3536885907632525
327,2722.69,1.3527863839986436
328,2735.25,1.3681973025052643
329,2747.8799999999997,1.3109311831373205
330,2754.2100000000005,1.3154088724802266
331,2766.92,1.323835481255637
332,2773.3,1.3397269006881398
333,2786.1000000000004,1.3170287036248236
334,2792.5299999999997,1.2411910531469237
335,2805.42,1.2602920502448807
336,2811.8900000000003,1.3242530638386572
337,2824.86,1.3340166890799687
338,2837.9,1.3114424764467152
339,2844.4399999999996,1.301356352165927
340,2857.5699999999997,1.2863928336939472
341,2864.16,1.3141753395027553
342,2877.38,1.3050309151920485
343,2884.01,1.3041591850725338
344,2884.0315,1.3041426538579073
345,2897.3300000000004,1.2959622097122114
346,2910.7,1.3237033578051838
347,2930.88,1.3043698243359376
348,2951.19,1.293980537033639
349,2971.65,1.2968295030008952
350,2992.25,1.2930410186864019
351,3012.99,1.2926642840901603
352,3026.9,1.2897470239535291
353,3047.88,1.2836317745885746
354,3069.0,1.2798002749418713
355,3090.28,1.277125832116026
356,3111.7,1.2697348390084318
357,3133.2700000000004,1.259929899170392
358,3147.7300000000005,1.2592768343554614
359,3169.5499999999997,1.2529466833000131
360,3191.52,1.2278444855141195
361,3213.64,1.2365901409977806
362,3228.48,1.2181909111323883
363,3250.85,1.2293942553986406
364,3273.39,1.2350856600370546
365,3288.4999999999995,1.2295117260568609
366,3311.29,1.2242104194778658
367,3311.31121,1.2242252014569697
368,3318.92,1.230348401496196
369,3326.58,1.2289862155810738
370,3334.24,1.2417152296659513
371,3341.9300000000003,1.2125108889757041
372,3349.64,1.2377042117687078
373,3357.3599999999997,1.2147055163033365
374,3365.1,1.1924793843212154
375,3372.85,1.1803533340807193
376,3380.63,1.213051829065099
377,3388.4199999999996,1.229599005791104
378,3396.23,1.2090173460003588
379,3404.06,1.2152232496928645
380,3411.9100000000003,1.19497791686862
381,3419.7699999999995,1.206073365786001
382,3427.6600000000003,1.2123351599282572
383,3435.56,1.217397335812139
384,3443.48,1.189286275179271
385,3451.42,1.2211788780296533
386,3459.37,1.1927005626216607
387,3467.3500000000004,1.1912674924385436
388,3475.34,1.2000304039970517
389,3483.35,1.1907063790388102
390,3491.38,1.202857117563819
391,3499.43,1.170459719572078
392,3507.5,1.1872664850635875
393,3515.58,1.1739028322967222
394,3523.69,1.190974124754732
395,3531.8100000000004,1.1850908989543674
396,3539.95,1.194770736637253
397,3548.1099999999997,1.207377037803389
398,3556.2899999999995,1.1973252024527752
399,3564.4900000000002,1.197966130585412
400,3572.71,1.1711145222012989
401,3580.94,1.1539530955588109
402,3589.2000000000003,1.1216819141411984
403,3597.47,1.1573689144652113
404,3605.76,1.1629307782724743
405,3614.08,1.1519887873046128
406,3622.41,1.1549790780783766
407,3630.76,1.2188348323353908
408,3639.1299999999997,1.1848976500756554
409,3639.3599999999997,1.1329129301330343
410,3642.0400000000004,1.1725407368885787
411,3644.73,1.1761556253857486
412,3647.42,1.1389884138829185
413,3650.1099999999997,1.1486821023800884
414,3652.7900000000004,1.151907709135633
415,3655.48,1.1616733976328026
416,3658.17,1.1233932861299727
417,3660.86,1.1363778746271422
418,3663.54,1.159599581382687
419,3666.2299999999996,1.153665069879857
420,3668.92,1.1586800583770267
421,3671.61,1.1777435468741964
422,3674.29,1.130051553629741
423,3676.9800000000005,1.161297142126911
424,3679.67,1.1545250306240806
425,3682.35,1.1308497373796254
426,3685.04,1.155705225876795
427,3687.73,1.1324432143739651
428,3690.4199999999996,1.1050169028711347
429,3693.1000000000004,1.1630013096266794
430,3695.79,1.1724557981238493
431,3698.48,1.1662939866210191
432,3701.1699999999996,1.124950475118189
433,3703.8500000000004,1.1395561818737332
434,3706.54,1.1692461703709034
435,3709.23,1.1683734588680732
436,3711.92,1.129746447365243
437,3714.6,1.1751301541207875
438,3717.29,1.1829572426179573
439,3719.98,1.2183550311151272
440,3722.67,1.354104119612297
441,3725.35,1.6336267263678415
442,3728.0400000000004,1.8421204148650112
443,3730.73,1.7807441033621814
444,3733.42,1.563742991859351
445,3736.1,1.3401916986148958
446,3738.79,1.1908378871120655
447,3741.48,1.2278392756092353
448,3744.1600000000003,1.2006580823647799
449,3746.85,1.19740397086195
450,3749.54,1.1662319593591195
451,3752.2299999999996,1.1542783478562897
452,3754.9100000000003,1.228549554611834
453,3757.6,1.242491343109004
454,3760.29,1.3165770316061738
455,3762.98,1.2899043201033435
456,3765.6600000000003,1.246831926858888
457,3768.35,1.1832542153560581
458,3771.04,1.1651258038532277
459,3773.73,1.2288364923503976
460,3776.41,1.3345920991059423
461,3779.1000000000004,1.393491987603112
462,3781.79,1.424306476100282
463,3784.48,1.4747698645974516
464,3787.16,1.4267319713529965
465,3789.8500000000004,1.394255159850166
466,3792.54,1.299050048347336
467,3795.2200000000003,1.2275330551028807
468,3797.91,1.1657982436000505
469,3800.6,1.1790221320972203
470,3801.8939600000003,1.2191088149536697
471,3803.2899999999995,1.2624639320921283
472,3805.9700000000003,1.3699789507914129
473,3808.66,1.439793310605247
474,3811.35,1.4682988704190811
475,3814.0400000000004,1.4743792302329153
476,3816.7200000000003,1.4689065489321997
477,3819.41,1.483375408746034
478,3822.1,1.4694834685598681
479,3824.79,1.4561661283737022
480,3827.4700000000003,1.3679325470729866
481,3830.1600000000003,1.2636334068868207
482,3832.85,1.1870251667006548
483,3835.54,1.140153926514489
484,3838.22,1.1258605452137738
485,3840.9100000000003,1.2138524050276076
486,3843.6,1.3018799648414419
487,3846.29,1.399049724655276
488,3848.97,1.4695524433545606
489,3851.6600000000003,1.5489516031683945
490,3854.3500000000004,1.5395472629822287
491,3857.03,1.5461613816815132
492,3859.72,1.5466643414953474
493,3862.41,1.5700603013091814
494,3865.1000000000004,1.5400736611230155
495,3867.78,1.5870990798223001
496,3870.47,1.5877820396361344
497,3873.16,1.5609539994499686
498,3875.85,1.5117007592638028
499,3878.53,1.415545577963087
500,3881.2200000000003,1.3513583377769214
501,3883.91,1.3091059975907555
502,3886.6,1.2407665574045894
503,3889.2799999999997,1.1964494761038742
504,3891.9700000000003,1.2312619359177082
505,3894.66,1.2580446957315423
506,3897.35,1.3371209555453767
507,3900.0299999999997,1.3854614742446612
508,3902.7200000000003,1.434585634058495
509,3905.4100000000003,1.4725448938723291
510,3908.1,1.5047719536861635
511,3910.7799999999997,1.5359528723854479
512,3913.47,1.5362058321992822
513,3916.1600000000003,1.601639792013116
514,3918.84,1.5944676107124007
515,3921.5299999999997,1.5801935705262347
516,3924.22,1.5158143303400688
517,3926.9100000000003,1.461080790153903
518,3929.59,1.4303344088531875
519,3932.28,1.3589073686670217
520,3934.97,1.3315175284808558
521,3937.66,1.36719118829469
522,3940.34,1.4182121069939746
523,3943.03,1.4572724668078085
524,3945.72,1.497577226621643
525,3948.41,1.5212003864354768
526,3951.0899999999997,1.5499047051347614
527,3953.78,1.5235670649485955
528,3956.4700000000003,1.4614141247624297
529,3959.16,1.4298357845762637
530,3961.8399999999997,1.3556029032755483
531,3964.53,1.2340241630893822
532,3967.2200000000003,1.1204634229032164
533,3969.91,1.0520166827170505
534,3972.5899999999997,1.0932957014163354
535,3975.2799999999997,1.1933498612301694
536,3977.9700000000003,1.2947081210440035
537,3980.65,1.397376739743288
538,3983.34,1.435862499557122
539,3986.0299999999997,1.5117198593709564
540,3988.7200000000003,1.5756587191847904
541,3991.4,1.596464537884075
542,3994.09,1.595316497697909
543,3996.7799999999997,1.644297457511743
544,3999.47,1.6633614173255773
545,4002.15,1.6628672360248618
546,4004.84,1.659122195838696
547,4007.53,1.63315615565253
548,4010.22,1.6352031154663642
549,4012.8999999999996,1.6663489341656488
550,4015.59,1.6678938939794827
551,4018.28,1.675218853793317
552,4020.97,1.6874248136071512
553,4023.6499999999996,1.6685746323064357
554,4026.34,1.6741525921202698
555,4029.03,1.6793705519341038
556,4031.71,1.6478593706333884
557,4034.4,1.6475853304472226
558,4037.0899999999997,1.6584162902610566
559,4039.78,1.6685052500748907
560,4042.46,1.6652710687741754
561,4045.15,1.6643140285880094
562,4047.8399999999997,1.6672829884018436
563,4050.5299999999997,1.6208299482156776
564,4053.21,1.6373047669149625
565,4055.9,1.6471417267287964
566,4058.59,1.6240596865426304
567,4061.2799999999997,1.6337896463564645
568,4063.9599999999996,1.6144844650557493
569,4066.65,1.5901574248695831
570,4069.34,1.5979603846834174
571,4072.0299999999997,1.5927683444972516
572,4074.7100000000005,1.5533111631965362
573,4077.4,1.5499491230103701
574,4080.09,1.5820570828242042
575,4082.7799999999997,1.5775110426380385
576,4085.46,1.5577028613373232
577,4088.1499999999996,1.5304918211511571
578,4090.84,1.4576645809649913
579,4093.52,1.418793099664276
580,4096.21,1.3565563594781098
581,4098.9,1.2870680192919441
582,4101.59,1.2302046791057781
583,4104.2699999999995,1.2118428978050628
584,4106.96,1.2805805576188969
585,4109.650000000001,1.373753617432731
586,4112.34,1.424959977246565
587,4115.0199999999995,1.4559251959458497
588,4117.71,1.4845744557596836
589,4120.400000000001,1.5153539155735178
590,4123.09,1.5564718753873519
591,4125.77,1.5678846940866364
592,4128.46,1.5602266539004708
593,4131.150000000001,1.5538736137143048
594,4133.84,1.559595573528139
