,lambda (Angstroms),Total Flux (erg/s/cm^2/Angstrom)
0,102.00000000000001,70.55584997348363
1,103.9,70.35476848755252
2,104.712855,70.26874212374139
3,106.07000000000001,69.51427547445807
4,108.05,68.41355007993128
5,110.05,67.30170624712288
6,113.91999999999999,65.15028843067445
7,117.92,62.9266007652269
8,120.22644299999999,61.644398554678325
9,120.95,61.307161542541905
10,124.91,59.461476172687995
11,126.94,58.51532937973649
12,128.12,57.965352426328074
13,131.1,56.576427578234735
14,132.01,56.15229281112528
15,133.85,55.2947016306472
16,136.96,53.84518610645008
17,138.038426,53.342550984176945
18,140.15,52.63908452087784
19,143.09,51.659629732079566
20,147.10000000000002,50.32370682425542
21,150.87,49.067739289313884
22,155.1,47.658523743291084
23,158.489319,46.5293793271566
24,159.07999999999998,46.3806069304471
25,162.02999999999997,45.637602569341894
26,166.19,44.589840525628496
27,170.06,43.615119624553714
28,172.82,42.91996988278104
29,176.85,41.904950519899806
30,180.14,41.07631189829865
31,181.8,40.658214671107025
32,181.970086,40.61537582159089
33,186.04,39.83334369098934
34,190.81,38.91679051686644
35,193.91,38.32112708723712
36,197.97,37.541000177543474
37,202.12,36.743579934803634
38,204.93,36.20364007461436
39,208.929613,35.43511651882807
40,210.19,35.25304014624398
41,216.07999999999998,34.40216775859879
42,220.09,33.82288111278551
43,223.15,33.38083184257924
44,226.78,32.856440664323365
45,229.94,32.399952917881734
46,234.21,31.783122571273495
47,239.88329199999998,30.963568485352766
48,240.22000000000003,30.926086067149477
49,245.80999999999997,30.303794903051177
50,252.11999999999998,29.60135893010538
51,256.81,29.079249660793938
52,259.78000000000003,28.748634424074275
53,264.0,28.27886141993676
54,268.91,27.73227368039497
55,273.90999999999997,27.175666799013502
56,275.42287,27.007252153559772
57,279.0,26.701644442565577
58,284.19,26.25824332883482
59,290.14000000000004,25.74990743487527
60,296.21000000000004,25.231327522742767
61,301.03000000000003,24.81953665642865
62,308.04,24.220649556207913
63,316.227766,23.5211433620593
64,318.13,23.399762591452482
65,327.79999999999995,22.78272287014269
66,337.76,22.147176534531976
67,348.02,21.492486320182387
68,356.95,20.922665046681818
69,363.078055,20.531637160296953
70,366.09999999999997,20.387230688287783
71,374.63000000000005,19.979613760616452
72,385.13,19.477847207998877
73,395.01,19.00572984928672
74,405.14,18.521659358733668
75,413.62,18.11643172603052
76,416.86938299999997,17.961153619705996
77,422.28000000000003,17.76370517533223
78,430.14,17.476875123357377
79,441.17,17.07436993791124
80,451.45,16.699225551919195
81,459.84,16.39305242665545
82,469.47,16.041631228896946
83,478.630092,15.707359533300645
84,480.4,15.657686372914126
85,490.46,15.375334905758342
86,499.58000000000004,15.119386790080533
87,506.53,14.92431897206784
88,512.4,14.7596128126341
89,519.52,14.559786884798791
90,530.4,14.254425393351582
91,540.26,13.977680340040047
92,549.5408739999999,13.717219610072355
93,550.31,13.70075411639765
94,560.54,13.481761445644098
95,569.65,13.286748886667766
96,580.24,13.060006740653678
97,589.67,12.85814900361243
98,600.63,12.623488366413902
99,610.39,12.414498369983828
100,620.3100000000001,12.20222691137129
101,630.38,11.986647685400202
102,630.957344,11.97428765223341
103,640.63,11.810134994988909
104,649.54,11.658958892921275
105,658.58,11.505555831983965
106,664.67,11.402233358889255
107,675.4699999999999,11.218939751716366
108,684.8700000000001,11.059379021139963
109,694.39,10.897987018083862
110,705.6800000000001,10.706327324202201
111,715.49,10.539986397236829
112,724.43596,10.38819622079699
113,725.4499999999999,10.375426148564014
114,735.54,10.2483584696002
115,745.7700000000001,10.119620096523906
116,754.41,10.010870723010791
117,764.9,9.878754646439893
118,775.54,9.744909700891332
119,784.52,9.63190031796219
120,795.44,9.494435374188669
121,804.65,9.378516129360452
122,815.84,9.237638840227145
123,825.2900000000001,9.118827270634675
124,831.763771,9.036943864744474
125,834.84,9.00782167765101
126,844.51,8.917409055046743
127,854.2900000000001,8.825409243362177
128,864.18,8.73253531459732
129,874.1899999999999,8.638545780290315
130,884.31,8.543608060903017
131,894.5500000000001,8.447437949973574
132,904.91,8.34984166250199
133,915.39,8.253972628488265
134,925.99,8.201675947932397
135,934.56,8.187757410131098
136,945.38,8.206115378414637
137,954.13,8.249495974300125
138,954.992586,8.24197445769424
139,965.1700000000001,8.155300540016485
140,974.0999999999999,7.748370759190679
141,985.38,7.855860607621234
142,994.5,7.837392245501259
143,1006.02,7.972854861770763
144,1015.3299999999999,7.9003201983566225
145,1024.72,7.493979497555461
146,1034.2,7.509005717193907
147,1046.18,7.867738393488061
148,1055.86,7.774701169658966
149,1065.63,7.449032566269473
150,1075.49,7.529552383319587
151,1085.44,7.223011820809307
152,1095.48,7.423138778738632
153,1096.4782,7.411307414996068
154,1105.62,7.3182197970311025
155,1115.8500000000001,7.18651029833924
156,1126.1699999999998,7.017962625758597
157,1133.98,7.249361680520724
158,1144.47,7.069546101705708
159,1155.06,7.090330107458708
160,1165.75,7.043475797779726
161,1173.83,6.613571430875501
162,1184.69,6.889189814962147
163,1195.65,6.40444918361681
164,1203.94,6.12783904430542
165,1215.0800000000002,5.994803965182513
166,1226.32,6.276491970627626
167,1234.82,6.685839358909071
168,1246.25,6.738060675033413
169,1254.8899999999999,6.583485181710084
170,1258.92541,6.454472222962156
171,1263.59,6.315447984962837
172,1275.28,6.679687772193683
173,1284.12,6.744470350219403
174,1296.0,6.229718498063925
175,1304.99,6.166462360784653
176,1314.03,6.548654318403717
177,1326.1899999999998,6.409166597678918
178,1335.3799999999999,6.119806839992987
179,1344.64,6.4619906151647255
180,1353.9599999999998,6.3618127042144685
181,1366.49,6.07594908573735
182,1375.96,6.1415034594821
183,1385.5,6.113363366084518
184,1395.1,5.866030586564939
185,1404.77,5.8730963399030305
186,1414.51,5.83898962609879
187,1424.31,5.871655226172554
188,1434.1899999999998,5.802287578083655
189,1440.81,5.880700542623278
190,1445.43977,5.89034551722675
191,1447.46,5.89783526674612
192,1454.1399999999999,5.812714688906475
193,1464.22,5.623747583423894
194,1474.3700000000001,5.601306699431019
195,1484.5900000000001,5.624153036927847
196,1494.88,5.635725595914382
197,1505.24,5.49491637639062
198,1512.1899999999998,5.271861224296976
199,1515.67,5.387710378356561
200,1526.18,5.286438062025022
201,1536.76,5.041557967183189
202,1543.85,5.197332258068954
203,1554.5500000000002,5.083316685780897
204,1565.3300000000002,5.056171795195361
205,1576.18,5.113195126099529
206,1583.45,5.191846700815962
207,1594.43,5.185720014486724
208,1605.48,5.12817054964719
209,1616.61,5.112181766510175
210,1624.07,4.983796085270091
211,1635.3300000000002,5.064856284899669
212,1646.67,5.055734166231767
213,1654.27,4.891747927971093
214,1659.58691,4.948916496699265
215,1665.73,5.0218777757625155
216,1673.4199999999998,4.775391011208448
217,1677.28,5.0018981905090065
218,1685.0200000000002,5.097072964546913
219,1696.6999999999998,4.950847579632543
220,1704.53,4.858957723136007
221,1716.3500000000001,4.725635246279168
222,1724.27,4.707886759248191
223,1736.22,4.80240048273049
224,1744.24,4.747935072883465
225,1756.3300000000002,4.857998704423297
226,1764.4299999999998,4.668698956323434
227,1776.6599999999999,4.6859744959208
228,1784.8700000000001,4.7086235327232835
229,1793.1,4.839336984962558
230,1805.53,4.799055678927828
231,1813.87,4.61518791606945
232,1826.44,4.634286518092253
233,1834.8700000000001,4.536287124699432
234,1843.34,4.3764255621801915
235,1856.12,4.339802026289296
236,1864.69,4.379423540954007
237,1873.29,4.5288701787739045
238,1886.28,4.3483025049693085
239,1894.98,4.271448219973158
240,1903.7299999999998,4.348536473568985
241,1905.46072,4.335411084897991
242,1916.93,4.2564876633698105
243,1925.77,4.226741257190392
244,1934.66,4.261215513871949
245,1943.5900000000001,4.318098700842287
246,1957.07,4.188769208161453
247,1966.1000000000001,4.356324720853744
248,1975.17,4.394455163834816
249,1984.29,4.274640269676863
250,1993.45,4.208290305807691
251,2007.27,4.244561720581496
252,2016.53,4.150180082434276
253,2025.84,4.237586107148032
254,2035.19,4.117640062150571
255,2044.59,4.1905906800140835
256,2054.02,4.0949964955941835
257,2063.5,4.076731974035258
258,2073.0299999999997,4.198363115337312
259,2077.81,4.097982284846629
260,2087.4,4.159461821581852
261,2097.03,4.039829288605856
262,2106.71,4.028201418490837
263,2116.44,4.034221211236792
264,2126.21,4.04782593427153
265,2136.02,3.8864325875950474
266,2145.88,3.931801903779542
267,2155.79,3.990836882825013
268,2165.74,3.9144527921592642
269,2175.73,3.8812236317822957
270,2185.7799999999997,3.8342818668384995
271,2187.7616199999998,3.847740257827707
272,2195.86,3.9077882721613806
273,2206.0,3.8447444261655797
274,2216.1800000000003,3.739801438765455
275,2226.41,3.6749312746099276
276,2236.69,3.789031933698997
277,2247.01,3.699371451383743
278,2257.38,3.6072557923130866
279,2262.5899999999997,3.651841374400057
280,2273.03,3.6889804678718345
281,2283.52,3.7313513845882103
282,2294.06,3.6281171245491817
283,2304.65,3.61248868775475
284,2315.29,3.5114710742049153
285,2325.98,3.1363801838996768
286,2336.71,3.3662103521901154
287,2347.5,3.3175932083740705
288,2352.91,3.436866083439427
289,2363.77,3.2901006921658174
290,2374.6800000000003,3.326753124136803
291,2385.64,3.2111863793523874
292,2396.66,3.300673422461487
293,2407.7200000000003,3.226937324166263
294,2413.27,3.2641217043164907
295,2424.41,3.349584323212622
296,2435.6,3.2802297653533503
297,2446.84,3.359941030738675
298,2452.48,3.3347790927291756
299,2463.7999999999997,3.3122740753058557
300,2475.17,3.242128881127131
301,2486.6,3.270226474841923
302,2492.33,3.187153218672698
303,2503.8300000000004,3.3406905649299246
304,2511.88643,3.2008196040853
305,2515.3900000000003,3.1411569033652698
306,2527.0,3.108926757632722
307,2532.83,3.1346874036602195
308,2544.52,3.0966615583877397
309,2556.26,3.205889150902803
310,2562.16,3.152956809832861
311,2573.98,3.240639702807993
312,2585.8599999999997,3.2086203211281763
313,2597.8,3.1737686647934105
314,2603.7900000000004,3.1145769117410453
315,2615.81,3.086769555866349
316,2627.88,3.1544756377791954
317,2633.94,3.2158788976293895
318,2646.1,3.3561475675598134
319,2652.2000000000003,3.406009977640042
320,2664.44,3.193542948030534
321,2676.7400000000002,3.2776826437660773
322,2682.91,3.2656020667488663
323,2695.29,3.177492062944478
324,2707.73,3.2276847844851417
325,2713.97,3.125996220370491
326,2726.5,3.112215529928731
327,2732.79,3.196518403601623
328,2745.4,2.944244013619932
329,2758.07,2.9713123489832927
330,2764.43,3.029623235558745
331,2777.19,3.095608158939682
332,2783.59,2.9979341957451684
333,2796.44,2.6971287071436834
334,2802.8900000000003,2.784806181736712
335,2815.82,3.0533219935952953
336,2822.31,3.153271618418359
337,2835.34,3.0768703058520277
338,2841.88,3.028125368462634
339,2854.9999999999995,2.949817643913881
340,2868.17,3.1258283571526695
341,2874.79,3.134646720223344
342,2884.0315,3.112038011630637
343,2888.0499999999997,3.103353549718749
344,2894.7099999999996,3.092627244199499
345,2908.0699999999997,3.2611741958906135
346,2928.23,3.173170811616127
347,2948.5299999999997,3.135999396895291
348,2968.9700000000003,3.174215951728103
349,2989.55,3.170924476114565
350,3010.27,3.195110970054677
351,3031.14,3.188003574230841
352,3052.15,3.1768591479606547
353,3073.2999999999997,3.1816456912441184
354,3087.49,3.194426319574726
355,3108.8900000000003,3.1872253799182766
356,3130.44,3.151421550497881
357,3152.14,3.1521528313135385
358,3166.6899999999996,3.152648524210673
359,3188.64,3.037262322086418
360,3210.7400000000002,3.108931230198216
361,3232.9999999999995,2.994111389228472
362,3247.92,3.122271287374536
363,3270.44,3.191455104147283
364,3293.1,3.1623238904736795
365,3308.3,3.1544047277270426
366,3311.31121,3.147738476879516
367,3323.58,3.12303236199908
368,3331.24,3.1551516950996055
369,3338.92,3.034329311054179
370,3346.6099999999997,3.167786068435777
371,3354.33,3.0917722500984475
372,3362.06,2.9982105731881417
373,3369.81,3.091022179131885
374,3377.58,3.042221067929676
375,3385.36,3.0859830981544913
376,3393.1699999999996,3.17523155266038
377,3400.99,3.297584148593292
378,3408.83,3.099845027380252
379,3416.69,3.101649189021261
380,3424.57,3.2107156335163185
381,3432.46,3.2736692194384003
382,3440.37,3.18747908821453
383,3448.3,3.031574239844708
384,3456.25,3.062992674328935
385,3464.2200000000003,2.97240139166721
386,3472.21,3.150249391859533
387,3480.21,3.0085125334788807
388,3488.23,3.091750957952277
389,3496.2700000000004,3.062968665279721
390,3504.33,3.1446166554612134
391,3512.4100000000003,3.0751989284967545
392,3520.51,3.180775484386344
393,3528.6299999999997,2.9717073231299818
394,3536.7599999999998,3.1480563033006437
395,3544.91,3.2248575663253543
396,3553.08,3.2415051122041123
397,3560.4799999999996,3.329664768202009
398,3563.1400000000003,3.510688387790442
399,3565.8,3.389209007378875
400,3568.46,3.197074626967308
401,3571.12,3.4291162465557417
402,3573.7799999999997,3.4935088661441744
403,3576.44,3.3182344857326074
404,3579.1,2.9444171053210404
405,3581.7599999999998,2.7357147249094735
406,3584.4199999999996,2.9800363444979068
407,3587.09,2.7367471055133636
408,3589.75,3.0526477251017967
409,3592.41,3.06619334469023
410,3595.07,3.170737964278663
411,3597.73,3.233109583867096
412,3600.39,3.123715203455529
413,3603.0499999999997,3.199387823043962
414,3605.7099999999996,2.8780034426323953
415,3608.3700000000003,2.890599062220828
416,3611.03,2.997993681809261
417,3613.69,2.912500301397694
418,3616.35,3.2726229209861275
419,3619.0099999999998,2.9826915405745607
420,3621.67,2.7587621601629935
421,3624.33,2.8699337797514266
422,3626.99,3.1613743993398598
423,3629.6499999999996,3.060653018928293
424,3632.3100000000004,3.143416638516726
425,3634.9700000000003,3.017966258105159
426,3637.63,2.988630877693592
427,3640.29,3.273615497282025
428,3642.95,3.0819191168704583
429,3645.61,3.013966736458891
430,3648.27,3.070418356047324
431,3650.93,3.151573975635757
432,3653.5899999999997,3.2050755952241903
433,3656.25,3.3864162148126233
434,3658.9100000000003,3.1265988344010562
435,3661.57,3.1819284539894896
436,3664.2400000000002,3.2469872150049466
437,3666.9,2.96631483459338
438,3669.56,3.1421724541818126
439,3672.22,3.281314073770246
440,3674.8799999999997,3.212216693358679
441,3677.5400000000004,3.2796553129471118
442,3680.2000000000003,3.197718932535545
443,3682.86,3.2018355521239776
444,3685.52,3.393019171712411
445,3688.18,3.5328667913008447
446,3690.84,3.295415410889277
447,3693.5,3.2399630304777105
448,3696.16,3.0709986500661435
449,3698.8199999999997,3.0908782696545765
450,3701.4799999999996,2.8185138892430097
451,3704.1400000000003,2.8328395088314426
452,3706.8,3.114753128419875
453,3709.46,2.9243237480083084
454,3712.12,3.3388263675967416
455,3714.7799999999997,3.390038987185175
456,3717.44,4.445703606773607
457,3720.1,5.370729226362041
458,3722.7599999999998,6.756720845950475
459,3725.4199999999996,7.1035894655389065
460,3728.08,6.280989085127341
461,3730.7400000000002,5.118268704715772
462,3733.4,4.216240324304206
463,3736.06,3.7235279438926394
464,3738.72,3.447410563481072
465,3741.39,3.22436532449653
466,3744.0499999999997,3.201656944084963
467,3746.7099999999996,3.223267563673396
468,3749.3700000000003,3.4119891832618285
469,3752.03,3.5045228028502615
470,3754.69,3.2960404224386943
471,3757.35,3.314288042027128
472,3760.0099999999998,3.574712661615561
473,3762.67,3.4898532812039935
474,3765.33,3.473844900792427
475,3767.99,3.5866735203808604
476,3770.6499999999996,3.5364111399692932
477,3773.3100000000004,3.665708759557726
478,3775.9700000000003,3.7409193791461592
479,3778.63,3.6494819987345926
480,3781.29,3.8431006183230254
481,3783.95,3.9816582379114585
482,3786.61,3.7835058574998914
483,3789.27,3.3954604770883243
484,3791.93,3.1202210966767576
485,3794.5899999999997,3.2997577162651908
486,3797.25,3.3440023358536237
487,3799.9100000000003,3.1998889554420566
488,3801.8939600000003,3.4482245249904446
489,3802.57,3.5329408379155667
490,3805.23,3.9208722863222727
491,3807.89,3.751113734728979
492,3810.5499999999997,3.9019831831356853
493,3813.21,3.8825496315423913
494,3815.87,3.8543450799490975
495,3818.5400000000004,3.884108078913723
496,3821.2000000000003,3.7338415273204295
497,3823.86,3.3405929757271355
498,3826.52,3.1656444241338413
499,3829.18,3.0497058725405477
500,3831.84,2.7915063209472537
501,3834.5,2.85583476935396
502,3837.16,3.222886217760666
503,3839.8199999999997,3.286557666167372
504,3842.4799999999996,3.4689781145740786
505,3845.1400000000003,4.050114562980784
506,3847.8,3.93590501138749
507,3850.46,4.023673459794196
508,3853.12,4.087076908200903
509,3855.7799999999997,4.285213356607609
510,3858.44,4.145177805014315
511,3861.1,4.1686242534210205
512,3863.7599999999998,4.200111701827726
513,3866.42,4.381194150234433
514,3869.08,4.198277598641139
515,3871.7400000000002,3.9659030470478447
516,3874.4,3.729874495454551
517,3877.06,3.633937943861257
518,3879.72,3.5472603922679635
519,3882.38,3.4322708406746694
520,3885.04,3.2403642890813753
521,3887.7,3.2037297374880813
522,3890.36,3.5231251858947874
523,3893.03,3.7412231848594137
524,3895.69,3.89818463326612
525,3898.35,4.037115081672826
526,3901.0099999999998,4.145348530079532
527,3903.67,4.141751978486238
528,3906.33,3.9637094268929443
529,3908.99,4.149662875299651
530,3911.6499999999996,4.328064323706356
531,3914.31,4.134184772113063
532,3916.9700000000003,3.9580922205197684
533,3919.63,3.8643486689264748
534,3922.29,3.9886621173331807
535,3924.95,3.8496015657398868
536,3927.61,3.5168480141465928
537,3930.27,3.4367484625532985
538,3932.93,3.3695619109600052
539,3935.59,3.262320359366711
540,3938.25,3.451782807773417
541,3940.9100000000003,3.9349772561801233
542,3943.57,4.117276704586829
543,3946.23,4.162894152993536
544,3948.89,4.1936506014002415
545,3951.5499999999997,4.123296049806948
546,3954.21,4.055378498213654
547,3956.87,3.7248169466203596
548,3959.53,3.635702395027066
549,3962.19,3.601894843433772
550,3964.85,3.354877291840478
551,3967.51,3.197104740247184
552,3970.18,3.1649877392118104
553,3972.84,3.3549611876185157
554,3975.5,3.8160796360252225
555,3978.16,3.870225084431928
556,3980.8199999999997,3.8688205328386345
557,3983.48,4.101552981245341
558,3986.1400000000003,4.305049429652046
559,3988.8,4.3550528780587525
560,3991.46,4.301510326465459
561,3994.12,4.393662774872165
562,3996.7799999999997,4.501165223278871
563,3999.44,4.370875671685577
564,4002.1,4.408941120092283
565,4004.7599999999998,4.230655568498989
566,4007.42,4.324271016905695
567,4010.08,4.643982465312401
568,4012.7400000000002,4.5536499137191075
569,4015.4,4.423848362125813
570,4018.06,4.368842810532519
571,4020.72,4.536037258939226
572,4023.3799999999997,4.5205017073459315
573,4026.04,4.272290155752637
574,4028.7000000000003,4.400989604159344
575,4031.36,4.30724605256605
576,4034.02,4.429854500972756
577,4036.6800000000003,4.380453949379462
578,4039.34,4.528644397786168
579,4042.0,4.445133846192874
580,4044.67,4.6074338451575
581,4047.33,4.417696293564206
582,4049.99,4.477688741970913
583,4052.6499999999996,4.358851190377619
584,4055.31,4.369141638784325
585,4057.9700000000003,4.386497087191031
586,4060.63,4.337583535597736
587,4063.29,4.324484984004442
588,4065.95,4.259247432411149
589,4068.6099999999997,4.286835880817855
590,4071.27,4.464262329224561
591,4073.93,4.452625777631267
592,4076.59,4.294317226037974
593,4079.25,4.225912674444679
594,4081.9100000000003,4.157995122851386
595,4084.57,4.117851571258091
596,4087.23,4.091597019664798
597,4089.89,3.9403544680715035
598,4092.5499999999997,3.96355691647821
599,4095.21,3.8291263648849156
600,4097.87,3.707119813291622
601,4100.53,3.525423261698328
602,4103.19,3.6485187101050345
603,4105.849999999999,3.9346081585117405
604,4108.51,3.7850716069184465
605,4111.17,3.9980700553251527
