,lambda (Angstroms),Total Flux (erg/s/cm^2/Angstrom)
0,101.99,1.5986353707760972
1,103.88,1.5941040167011042
2,104.712855,1.5921073218764272
3,106.06,1.5751397057873515
4,108.03,1.5503274076941627
5,110.03999999999999,1.5250124632833562
6,113.91,1.4762712505873106
7,117.91,1.425892966885506
8,120.22644299999999,1.3967260558844292
9,120.94000000000001,1.3891939483140125
10,124.89999999999999,1.3473871251140825
11,126.92999999999999,1.325956749350911
12,128.1,1.313605497578886
13,131.08,1.282144977949797
14,131.99,1.2725423627004446
15,134.14000000000001,1.249843638757578
16,136.95000000000002,1.2201935049563903
17,138.038426,1.2087053618760384
18,140.14000000000001,1.1928534286855488
19,143.07,1.1708156601824309
20,147.08,1.1406773141440338
21,150.85,1.1122485284690322
22,155.07999999999998,1.0804243880641897
23,158.489319,1.0547575959569881
24,159.06,1.0515122537231316
25,162.01,1.034740628454404
26,166.17,1.011096267652741
27,170.04,0.9891110717903768
28,172.8,0.9733112066094656
29,176.83,0.9505642463047296
30,180.12,0.9318804475209624
31,181.970086,0.9213800238586202
32,182.2,0.9203861909120519
33,186.02,0.9038899387843659
34,190.79,0.8833035658736168
35,193.89,0.8699303555815157
36,197.95,0.8524121905086348
37,202.09,0.8345610554540223
38,204.9,0.8224554150956982
39,208.929613,0.8050279947945126
40,210.16,0.8010362057774496
41,216.04999999999998,0.7821183144754661
42,220.07,0.7691688907294603
43,223.13,0.7592770087287692
44,226.75,0.7476782424599779
45,229.91,0.7384410145899832
46,234.18,0.7272176711707183
47,239.88329199999998,0.7099115837578037
48,240.19,0.7092111904985487
49,245.78,0.6952096911017781
50,252.08999999999997,0.6801603729812732
51,256.77,0.6678101582770001
52,259.75,0.6612826115037663
53,263.97,0.6523861570396569
54,268.88,0.6407167882153021
55,273.87,0.6287708570883099
56,275.42287,0.6247200276809612
57,278.97,0.6175474971354525
58,284.15,0.6093737622291409
59,290.1,0.598742030242161
60,296.18,0.5870422025142892
61,300.99,0.5782332801012852
62,308.0,0.5668821074578014
63,316.227766,0.5519351261885287
64,318.09,0.5494644628153807
65,327.76,0.5375325147557795
66,337.72,0.5238806631349284
67,347.98,0.5095081098989915
68,356.9,0.505600675877105
69,363.078055,0.5097125577335222
70,366.06,0.5127798249174718
71,374.59,0.5044866749909942
72,385.08,0.48502080531587677
73,394.96000000000004,0.5000170561747749
74,405.09000000000003,0.5100739382902241
75,413.57,0.5036380661124362
76,416.86938299999997,0.4974700874930109
77,422.22999999999996,0.4888205279470564
78,430.08,0.4805587242117866
79,441.12,0.489228890028681
80,451.39,0.4853188473329839
81,459.78,0.4667550496974535
82,470.49,0.46261853900895156
83,478.630092,0.4690108979829442
84,480.34,0.4706801473409816
85,490.4,0.44680361603649
86,499.52000000000004,0.4679192994463345
87,506.46999999999997,0.4458268821435296
88,512.33,0.5160213291371358
89,519.46,0.5049161443358411
90,530.34,0.48593551998267315
91,540.1999999999999,0.4513203447876148
92,549.5408739999999,0.44366674272898377
93,550.24,0.44319933834120345
94,560.47,0.4833366705821669
95,569.58,0.5038473361457227
96,580.17,0.49500712553299586
97,589.59,0.4950737041947627
98,600.55,0.45394389953796505
99,610.3100000000001,0.4469003377268021
100,620.23,0.48932285686955446
101,630.3100000000001,0.47206695696622236
102,630.957344,0.47307188146766843
103,640.55,0.4889278334033371
104,649.46,0.4770078803861964
105,658.49,0.45391837850687206
106,664.59,0.4786651780125333
107,675.39,0.48703018041599916
108,684.78,0.44604133195012363
109,694.3100000000001,0.4776203431450337
110,705.5899999999999,0.4241528500997648
111,715.41,0.4770565348777309
112,724.43596,0.47509766586430435
113,725.36,0.4749887044026243
114,735.45,0.47265794949797035
115,745.68,0.45997072931218147
116,754.31,0.45539745519650615
117,764.81,0.42659395911138565
118,775.45,0.44830769774513
119,784.43,0.4252447104266175
120,795.3399999999999,0.43848087316103024
121,804.55,0.4399995285949388
122,815.7399999999999,0.4368056607670817
123,825.1899999999999,0.43727150429047323
124,831.763771,0.3992978214209367
125,834.74,0.3823200500942552
126,844.41,0.42486747716364376
127,854.1899999999999,0.4177102325657761
128,864.08,0.42324991630065223
129,874.08,0.4206048283682723
130,884.1999999999999,0.41792843498070376
131,894.4399999999999,0.4152259361379466
132,904.8000000000001,0.4069145318400009
133,915.28,0.3963106220868666
134,925.88,0.6523915068785439
135,934.4399999999999,0.9140109844084265
136,945.26,1.1533453258655915
137,954.01,1.3111302614247589
138,954.992586,1.316888763528559
139,965.06,1.3759358280426424
140,973.99,0.6294710151834559
141,985.26,1.084204581373486
142,994.38,1.069779702283253
143,1005.89,1.3160587637603822
144,1015.2,1.3435701184391027
145,1024.6,0.9767748838504855
146,1034.08,1.1666225476909013
147,1046.05,1.5656085751349704
148,1055.73,1.5033736850479686
149,1065.5,1.2620720056936294
150,1075.3600000000001,1.378025537071952
151,1085.31,1.203277279182937
152,1095.35,1.399502232026584
153,1096.4782,1.392387907914717
154,1105.48,1.3359640163546713
155,1115.71,1.2938683978028256
156,1126.04,1.1439216862055075
157,1133.84,1.3476574286586458
158,1144.3300000000002,1.2706113681885713
159,1154.92,1.2766442146730246
160,1165.61,1.2540419681120052
161,1173.69,0.8804797500378201
162,1184.55,1.1883065452994974
163,1195.51,0.9989998475157017
164,1203.79,0.8533815433505716
165,1214.93,0.7271020780849256
166,1226.17,0.9720847197738068
167,1234.6699999999998,1.1724915109086371
168,1246.1,1.2073337758111204
169,1254.74,1.161844936682289
170,1258.92541,1.1377210760834333
171,1266.35,1.0952916105496198
172,1275.12,1.2412801555665405
173,1283.96,1.2610679708401529
174,1295.8400000000001,1.0695070515472247
175,1304.83,1.0661948887994617
176,1313.8700000000001,1.218594333377907
177,1326.03,1.1625875951117446
178,1335.22,1.0735189616688146
179,1344.47,1.174944617017334
180,1353.79,1.1376709426225453
181,1366.32,1.045683918570324
182,1375.79,1.04885236615416
183,1385.33,1.0368992839946873
184,1394.93,0.8223971906266644
185,1404.6,0.8097458675153331
186,1414.3400000000001,0.9573179146606933
187,1424.14,0.9424602505975034
188,1434.01,0.9608577567910049
189,1440.6299999999999,0.9780799867809726
190,1445.43977,0.9789498495148181
191,1447.28,0.979350378522476
192,1453.96,0.9449759100212255
193,1464.04,0.8875548539594585
194,1474.19,0.8903404440361514
195,1484.3999999999999,0.8968307308029531
196,1494.6899999999998,0.8904370131565659
197,1505.06,0.84327829109699
198,1512.0,0.7735472082528766
199,1515.4899999999998,0.8037003657275229
200,1525.9900000000002,0.7866216864965155
201,1536.57,0.6849830028523196
202,1543.66,0.6550174617334776
203,1554.36,0.6437876714694987
204,1565.1399999999999,0.6921964767923312
205,1575.9899999999998,0.7270739282536237
206,1583.26,0.7443727772051072
207,1594.24,0.7449491714949681
208,1605.29,0.729012011923289
209,1616.41,0.7192423984900699
210,1623.8700000000001,0.6998593869602304
211,1635.1299999999999,0.7279590658039312
212,1646.4599999999998,0.7270028907860919
213,1654.06,0.7001407715331723
214,1659.58691,0.7122984399043482
215,1665.53,0.7255230416278355
216,1673.22,0.6669015382443803
217,1677.07,0.7398907886960965
218,1684.82,0.7424698110339667
219,1696.49,0.7060898138317663
220,1704.32,0.6857060704647371
221,1716.1399999999999,0.6470178375658503
222,1724.06,0.6361280327808093
223,1736.01,0.6645174556114609
224,1744.02,0.6519551894084081
225,1756.11,0.6687695722554857
226,1764.22,0.6363188489213087
227,1776.45,0.6253424917848123
228,1784.65,0.6363999070326235
229,1797.02,0.6514628099125532
230,1805.31,0.6496381637423525
231,1813.65,0.6019239390065896
232,1826.22,0.6110411276242709
233,1834.6499999999999,0.5933916414704963
234,1843.1200000000001,0.5545524724642719
235,1855.89,0.5515795468197046
236,1864.46,0.558919320682356
237,1873.06,0.5851060074056702
238,1886.05,0.5409664760726294
239,1894.75,0.5180501056648193
240,1903.5,0.545410556691447
241,1905.46072,0.5417712662920842
242,1916.69,0.5211073413555509
243,1925.54,0.5042217958223136
244,1934.43,0.5266771040945757
245,1943.3600000000001,0.5338028661723373
246,1956.83,0.49483553517429124
247,1965.8600000000001,0.5295759317658016
248,1974.93,0.5411614821628115
249,1984.05,0.5139805498166956
250,1993.21,0.5012634712760794
251,2007.02,0.514030797624779
252,2016.29,0.5002586170492863
253,2025.59,0.5163542268279182
254,2034.94,0.4845293538634245
255,2044.3400000000001,0.4919996981558051
256,2053.77,0.44902603280231035
257,2063.25,0.46137988470568997
258,2072.7799999999997,0.497792453865944
259,2077.5499999999997,0.4673036201717584
260,2087.1400000000003,0.48126887004026164
261,2096.78,0.45806343716563924
262,2106.46,0.4632210580965163
263,2116.18,0.46561423283289294
264,2125.9500000000003,0.4661384248261438
265,2135.7599999999998,0.4481454706248943
266,2145.62,0.44321573368051914
267,2155.52,0.4545832505416434
268,2165.47,0.44324978465964204
269,2175.47,0.44013033603451507
270,2185.5099999999998,0.42744264121488756
271,2187.7616199999998,0.42987990771619117
272,2195.6,0.4384752433563347
273,2205.73,0.43026305749767085
274,2215.9100000000003,0.41631299490722673
275,2226.14,0.40609425558500256
276,2236.41,0.4131931348773542
277,2246.7400000000002,0.40385134209156964
278,2257.11,0.3915814679203609
279,2267.53,0.396805817017372
280,2272.75,0.3974541462195216
281,2283.24,0.3979431278920404
282,2293.78,0.3766849328327791
283,2304.37,0.3786539610417376
284,2315.01,0.36643921251891587
285,2325.69,0.3177114826106701
286,2336.43,0.35085738062428806
287,2347.21,0.3477734972524819
288,2352.62,0.35247931487386674
289,2363.48,0.34049356873121234
290,2374.3900000000003,0.33883884585677765
291,2385.35,0.3266974462505629
292,2396.3599999999997,0.3348721699125679
293,2407.42,0.3254133168427928
294,2412.9700000000003,0.3271981996151931
295,2424.1099999999997,0.3307691837745697
296,2435.3,0.32015619120216604
297,2446.54,0.3268739218979823
298,2452.18,0.3222065465531783
299,2463.5,0.3193390144781462
300,2474.8700000000003,0.31215570567133394
301,2486.29,0.31305142013274156
302,2497.77,0.2785974625160129
303,2503.5299999999997,0.3094741430149365
304,2511.88643,0.2976532854247017
305,2515.08,0.2931597618075914
306,2520.8799999999997,0.30299692811375606
307,2526.6899999999996,0.29580367436182786
308,2532.52,0.295673980493714
309,2544.21,0.28854993258320794
310,2555.9500000000003,0.29400918438223766
311,2567.7499999999995,0.29031561583271054
312,2573.67,0.2953855414417613
313,2585.5499999999997,0.29222341242749167
314,2597.4799999999996,0.2891119831227579
315,2603.47,0.2833476683251589
316,2615.49,0.2797656584975897
317,2627.56,0.2811672483795565
318,2633.62,0.2810341931753078
319,2645.77,0.28523382259253194
320,2657.9799999999996,0.28329903166119924
321,2664.11,0.2716966360503008
322,2676.4100000000003,0.27410946459613267
323,2682.58,0.272373888752863
324,2694.96,0.2652355568339523
325,2707.3999999999996,0.2644619045664847
326,2713.64,0.2597082883165653
327,2726.17,0.2594309555262623
328,2732.4500000000003,0.26134425904397157
329,2745.06,0.24861746578892607
330,2757.73,0.24738855218532363
331,2764.09,0.24821509523829036
332,2776.8500000000004,0.2523337011118525
333,2783.25,0.24827636393244795
334,2796.1000000000004,0.2285778892831748
335,2802.54,0.23472027187139893
336,2815.48,0.2456510166992904
337,2821.97,0.24455799899705044
338,2834.9999999999995,0.23583796330210652
339,2848.08,0.23418432731669844
340,2854.65,0.23222294914971597
341,2867.8199999999997,0.23513353264147258
342,2874.43,0.23180467424211879
343,2884.0315,0.23094262517040204
344,2887.7000000000003,0.23063697188330942
345,2894.36,0.22741656624084403
346,2907.72,0.22944123330040295
347,2927.8700000000003,0.22471297433708798
348,2948.17,0.2205141841656094
349,2968.6099999999997,0.21806291819984475
350,2989.1800000000003,0.21481083185367159
351,3009.8999999999996,0.21202161429933483
352,3030.77,0.20966336553683443
353,3051.77,0.20612199639392553
354,3072.93,0.20302564062897543
355,3087.11,0.20008956375057316
356,3108.5099999999998,0.19707877805256124
357,3130.06,0.19336386114638568
358,3151.76,0.1915504130320465
359,3173.6,0.18793278912342126
360,3188.2500000000005,0.18307810779277292
361,3210.3500000000004,0.1820433431233307
362,3232.6,0.17859464724572488
363,3247.52,0.17734456974038199
364,3270.0299999999997,0.17497663310195918
365,3292.7000000000003,0.17263350984149514
366,3307.8999999999996,0.17043228074758016
367,3311.31121,0.17111731136348934
368,3323.1699999999996,0.17355252148641012
369,3330.8300000000004,0.17181319842135917
370,3338.51,0.16814715519164752
371,3346.2,0.16838740187960552
372,3353.92,0.16448921832057242
373,3361.65,0.16535052467920902
374,3369.4,0.16214701087318487
375,3377.17,0.16083477690250003
376,3384.95,0.16541773284948486
377,3392.75,0.16470336863180896
378,3400.5800000000004,0.166841874167142
379,3408.41,0.15958677970247503
380,3416.27,0.161336554990817
381,3424.15,0.16280121011449827
382,3432.04,0.1630273551558492
383,3439.95,0.16263258003253941
384,3447.8799999999997,0.15855698474456892
385,3455.83,0.1546010692919377
386,3463.8,0.1533465336746458
387,3471.7799999999997,0.15413738797502355
388,3479.79,0.1534673120284102
389,3487.81,0.15222052599946653
390,3495.85,0.15476051980586214
391,3503.91,0.15061179344759704
392,3511.98,0.1493901570070016
393,3520.08,0.1504388903194151
394,3528.19,0.15063831354949822
395,3536.33,0.1514116065325903
396,3544.48,0.151037289433352
397,3552.65,0.15152535216945304
398,3560.84,0.15057379474089333
399,3569.0499999999997,0.14793161714767294
400,3577.2799999999997,0.14235331938979182
401,3585.52,0.14146301154958035
402,3593.79,0.14137317346237782
403,3602.07,0.14289382529284494
404,3610.38,0.14280534687632102
405,3618.7000000000003,0.14271565837746672
406,3627.0400000000004,0.14647044971395173
407,3635.3999999999996,0.14416822088577602
408,3643.7799999999997,0.1440777718929396
409,3652.18,0.1418173027354425
410,3659.79,0.1293159300820433
411,3662.5200000000004,0.1352487776058567
412,3665.25,0.13881832512967018
413,3667.98,0.14218297265348362
414,3670.7000000000003,0.14279853025962738
415,3673.43,0.14598487778344083
416,3676.16,0.13708692530725425
417,3678.8900000000003,0.1234376428310677
418,3681.62,0.12675892035488112
419,3684.35,0.14435256787869458
420,3687.07,0.11601163548483835
421,3689.7999999999997,0.1205461930086518
422,3692.53,0.12120268053246523
423,3695.26,0.13711986805627868
424,3697.99,0.1207090955800921
425,3700.7200000000003,0.13909606310390554
426,3703.44,0.12152605071004934
427,3706.1699999999996,0.11926604823386276
428,3708.9,0.1383530157576762
429,3711.63,0.13767126328148963
430,3714.3599999999997,0.15308171080530308
431,3717.08,0.15654376841144685
432,3719.81,0.19989081593526029
433,3722.54,0.3171196634590738
434,3725.27,0.5006107109828872
435,3728.0,0.5779584585067006
436,3730.73,0.501049706030514
437,3733.45,0.3232163636366578
438,3736.18,0.20117721116047127
439,3738.91,0.1576214586842847
440,3741.64,0.16182430620809812
441,3744.3700000000003,0.15971925373191156
442,3747.1,0.142853501255725
443,3749.8199999999997,0.1416691588618688
444,3752.55,0.1503501063856822
445,3755.2799999999997,0.15660955390949566
446,3758.0099999999998,0.1552278014333091
447,3760.7400000000002,0.15924404895712252
448,3763.47,0.14559809648093597
449,3766.1899999999996,0.13584765408707977
450,3768.92,0.1314561016108932
451,3771.6499999999996,0.12717954913470664
452,3774.38,0.14128349665852005
453,3777.11,0.15125594418233348
454,3779.83,0.15167160178847727
455,3782.56,0.1562244493122907
456,3785.29,0.16317549683610416
457,3788.0200000000004,0.1687966443599176
458,3790.75,0.159265391883731
459,3793.48,0.15086073940754446
460,3796.2000000000003,0.15085299701368826
461,3798.93,0.13584554453750167
462,3801.66,0.14367319206131512
463,3801.8939600000003,0.1432099981839045
464,3804.3900000000003,0.13827630873074065
465,3807.12,0.14554607236788603
466,3809.8500000000004,0.1656849360050314
467,3812.57,0.16160457779735204
468,3815.2999999999997,0.15740664143449742
469,3818.03,0.1660613050716428
470,3820.76,0.17397436870878813
471,3823.49,0.14615133234593353
472,3826.2200000000003,0.1396169959830789
473,3828.94,0.14853073777539957
474,3831.6699999999996,0.14505780141254493
475,3834.4,0.13336216504969028
476,3837.13,0.14587152868683567
477,3839.86,0.14733169232398102
478,3842.58,0.1390497341163017
479,3845.31,0.15220249775344707
480,3848.04,0.16678006139059243
481,3850.77,0.17304492502773777
482,3853.5000000000005,0.16794038866488317
483,3856.23,0.16980885230202855
484,3858.95,0.1757194940943492
485,3861.6800000000003,0.17638965773149456
486,3864.41,0.20738112136863995
487,3867.14,0.2375743850057853
488,3869.8700000000003,0.24288574864293067
489,3872.6,0.21714931228007603
490,3875.3199999999997,0.1840476540723967
491,3878.05,0.15525131770954206
492,3880.7799999999997,0.14458888134668743
493,3883.51,0.1464506449838328
494,3886.2400000000002,0.17034100862097817
495,3888.96,0.16768385041329884
496,3891.69,0.1485586140504442
497,3894.42,0.14606397768758958
498,3897.1499999999996,0.14602584132473495
499,3899.88,0.15129740496188032
500,3902.61,0.14993266859902568
501,3905.3300000000004,0.15747481039134634
502,3908.06,0.1584416740284917
503,3910.79,0.1637531376656371
504,3913.52,0.14663120130278245
505,3916.25,0.14519646493992783
506,3918.98,0.14540332857707317
507,3921.7000000000003,0.15889837036939383
508,3924.43,0.1533790340065392
509,3927.1600000000003,0.15229929764368458
510,3929.89,0.14788646128082997
511,3932.62,0.14605342491797532
512,3935.3500000000004,0.14316048855512067
513,3938.07,0.15026093034744134
514,3940.7999999999997,0.15446259398458673
515,3943.53,0.15328285762173208
516,3946.2599999999998,0.15358812125887747
517,3948.99,0.14974018489602284
518,3951.71,0.14469812668834348
519,3954.44,0.13783879032548885
520,3957.17,0.14479855396263422
521,3959.9,0.1473619175997796
522,3962.6299999999997,0.15483168123692495
523,3965.36,0.15659174487407035
524,3968.08,0.163497286666391
525,3970.8100000000004,0.16807385030353636
526,3973.54,0.15206181394068172
527,3976.27,0.1403794775778271
528,3978.9999999999995,0.14120294121497248
529,3981.73,0.15314070485211784
530,3984.45,0.1515434466444385
531,3987.1800000000003,0.14716721028158386
532,3989.91,0.14973397391872925
533,3992.64,0.1545055375558746
534,3995.37,0.15379910119301998
535,3998.1,0.14818636483016534
536,4000.8199999999997,0.14744240662248598
537,4003.55,0.14887587025963137
538,4006.2799999999997,0.15430233389677672
539,4009.01,0.1535875975339221
540,4011.74,0.15687266117106746
541,4014.46,0.16519970296338815
542,4017.19,0.1546822666005335
543,4019.92,0.15110103023767885
544,4022.6499999999996,0.15960899387482425
545,4025.38,0.1563844575119696
546,4028.1099999999997,0.15211832114911497
547,4030.8300000000004,0.14984766294143564
548,4033.56,0.152827726578581
549,4036.29,0.15973919021572636
550,4039.02,0.16693555385287176
551,4041.75,0.1584597174900171
552,4044.4799999999996,0.1457273811271625
553,4047.2000000000003,0.15163962291948313
554,4049.93,0.15609118655662851
555,4052.6600000000003,0.14904355019377388
556,4055.39,0.14590901383091925
557,4058.12,0.1462891774680646
558,4060.85,0.15320564110520998
559,4063.57,0.14640198289753065
560,4066.2999999999997,0.14434564653467602
561,4069.03,0.14435921017182138
562,4071.7599999999998,0.16037507380896673
563,4074.4900000000002,0.16119183744611212
564,4077.21,0.13879927923843277
565,4079.94,0.14197764287557815
566,4082.67,0.1412379065127235
567,4085.4,0.1445112701498689
568,4088.1299999999997,0.14215993378701428
569,4090.86,0.13863869742415963
570,4093.58,0.1408878392164803
571,4096.31,0.15045740285362566
572,4099.04,0.16369676649077103
573,4101.77,0.16941163012791638
574,4104.5,0.17283329376506176
575,4107.2300000000005,0.1523848574022071
576,4109.95,0.1459061991945278
577,4112.68,0.14131666283167316
578,4115.41,0.13694722646881854
579,4118.14,0.1326943901059639
580,4120.87,0.15532645374310927
581,4123.59,0.14170489553542992
582,4126.32,0.1488396591725753
583,4129.05,0.13802732280972066
584,4131.78,0.13652098644686603
585,4134.51,0.1400625500840114
586,4137.24,0.13494651372115676
