,lambda (Angstroms),Total Flux (erg/s/cm^2/Angstrom)
0,100.05999999999999,76.10357055275985
1,101.92,75.89186049836864
2,104.05,75.64941833904966
3,104.712855,75.57397045339869
4,105.99000000000001,74.81037371998659
5,107.96,73.6325234660296
6,109.97,72.43075747642509
7,114.09,69.96743614292913
8,118.1,67.56988310682398
9,120.22644299999999,66.29849677776187
10,121.13000000000001,65.84556997426147
11,125.10000000000001,63.855524421163665
12,127.13000000000001,62.83794445281686
13,128.01999999999998,62.391813354450484
14,131.0,60.89802603764088
15,131.91,60.44186963619014
16,134.05,59.369149905537164
17,136.86,57.96057892294731
18,138.038426,57.36986829436472
19,140.04000000000002,56.65270393135749
20,142.98,55.59930474548955
21,146.98,54.16611369701299
22,151.1,52.689919318033496
23,154.98,51.29971765745386
24,158.489319,50.0423313337194
25,158.95,49.917541816454744
26,161.91,49.11573561980875
27,166.06,47.99158246240256
28,169.93,46.943276134081124
29,173.09,46.08729500095459
30,177.11999999999998,44.99564859926473
31,180.0,44.21551495540296
32,181.970086,43.68185849681721
33,182.07999999999998,43.65914422124355
34,185.89000000000001,42.871789828938546
35,191.1,41.79511895994945
36,194.21,41.1524241855615
37,197.82000000000002,40.406402900085666
38,201.95999999999998,39.550855355319065
39,204.76999999999998,38.970158591759876
40,208.929613,38.110554117719644
41,210.02,37.94114541966219
42,215.9,37.02761070897215
43,219.92000000000002,36.40304917277997
44,222.98,35.92763412349638
45,227.12,35.284430694865634
46,229.75,34.87592935947027
47,234.01999999999998,34.21273798594773
48,239.88329199999998,33.301937300279285
49,240.03,33.28437642118769
50,246.19,32.54685934918814
51,251.92,31.860912898057396
52,257.19,31.22986246647466
53,260.16999999999996,30.87320411677229
54,263.79,30.439872261346565
55,268.7,29.852055952314466
56,273.69,29.254661436704442
57,275.42287,29.047202156722427
58,278.78,28.738755625133646
59,283.96000000000004,28.26285389658368
60,289.90999999999997,27.716155589830358
61,295.98,27.158486689292083
62,300.79,26.71655716499569
63,307.8,26.07255816497538
64,316.227766,25.298306308190167
65,317.88,25.184941399869114
66,328.28999999999996,24.470689399458756
67,338.27000000000004,23.78592504316813
68,347.75,23.135480490970227
69,356.66999999999996,22.52380144355617
70,363.078055,22.08475084501139
71,365.82000000000005,21.944138047287627
72,375.2,21.462498730853838
73,384.82000000000005,20.967992930404677
74,394.7,20.46233889010555
75,404.82,19.94451703479105
76,414.24999999999994,19.461010145270727
77,416.86938299999997,19.32648287291769
78,421.95000000000005,19.127264215992835
79,429.79999999999995,18.81988718091015
80,440.82000000000005,18.39083323094184
81,451.09000000000003,17.989940677287166
82,459.47,17.660918579942845
83,470.17999999999995,17.24295294418418
84,478.630092,16.91532822258762
85,480.02000000000004,16.874035815691865
86,490.07,16.56961634698326
87,500.34000000000003,16.267561987307893
88,506.13,16.0903827464101
89,511.99,15.931388429750156
90,520.3100000000001,15.681626567734668
91,529.98,15.39048900887773
92,539.8399999999999,15.08804380009496
93,549.5408739999999,14.797676222678062
94,549.87,14.790180911173918
95,560.1,14.573554819942585
96,570.51,14.347425542912456
97,579.78,14.138207839274674
98,590.56,13.897705934213699
99,600.15,13.667817124711394
100,609.9,13.44575935227684
101,619.8100000000001,13.246695526910017
102,629.89,13.014315182177677
103,630.957344,12.991724424777008
104,640.12,12.84152363038544
105,650.52,12.653800428134339
106,658.0500000000001,12.510630866119842
107,665.67,12.393537057547404
108,674.93,12.239715811696906
109,684.32,12.051710920818268
110,695.4399999999999,11.881237746103634
111,705.12,11.676514316316071
112,716.58,11.519287454604765
113,724.43596,11.384277324574306
114,726.54,11.358016265821902
115,734.96,11.252519274080079
116,745.1800000000001,11.11559494348609
117,755.55,10.981933434654422
118,764.3,10.847340070789704
119,774.9300000000001,10.737693326346053
120,785.71,10.57812360366472
121,794.81,10.481959057245417
122,805.86,10.34791989373626
123,815.1999999999999,10.230528422136663
124,824.64,10.116949898378614
125,831.763771,9.978813425479023
126,834.1800000000001,9.940228499010065
127,845.79,9.889036537982975
128,855.5799999999999,9.792790456720683
129,865.49,9.712778335034338
130,875.51,9.621550859625945
131,885.6500000000001,9.5285982437935
132,895.9,9.433963974239006
133,904.1899999999999,9.350841798277372
134,914.6600000000001,9.24479662127878
135,925.26,9.691458817154135
136,935.97,10.212295759307441
137,944.6300000000001,10.841546475371644
138,954.992586,11.26811119633988
139,955.57,11.292006154370975
140,964.41,11.477414791706375
141,975.58,9.2916514024571
142,984.6,10.696662260914716
143,996.01,10.636346499828395
144,1005.22,11.45152148058168
145,1014.52,11.424094571896072
146,1023.91,9.986784773771571
147,1035.77,10.610160565490785
148,1045.3500000000001,12.140432889661952
149,1055.02,11.940732324394231
150,1064.78,11.059019869687614
151,1074.64,11.49665942671556
152,1084.58,10.754400193131158
153,1094.6200000000001,11.527747971281316
154,1096.4782,11.481660753044437
155,1104.74,11.29159040170392
156,1114.97,11.101140930040936
157,1125.28,10.553805359870323
158,1135.7,11.357798279251721
159,1146.2,10.984928100125492
160,1154.15,11.082492935929919
161,1164.83,11.026964285161526
162,1175.61,9.512249261258598
163,1183.76,10.750334350793953
164,1194.71,9.73405199256231
165,1205.76,8.995972261196139
166,1214.1200000000001,8.364393467148966
167,1225.3600000000001,9.509455126827174
168,1233.85,10.561468547705111
169,1245.27,10.764467735741153
170,1253.9,10.538890234230738
171,1258.92541,10.334416142640476
172,1265.5,10.08222503220071
173,1274.2700000000002,10.915881089202252
174,1286.06,11.044893031283005
175,1294.98,10.054948466682518
176,1303.95,10.013529694881358
177,1316.02,10.834025076638326
178,1325.1399999999999,10.57337768323514
179,1334.33,10.07282739975101
180,1343.5800000000002,10.687103067626065
181,1356.01,10.467289157538172
182,1365.4099999999999,9.959355203811205
183,1374.87,10.039896201443426
184,1384.4,9.996203308994701
185,1394.0,8.981864526465033
186,1403.6599999999999,8.953858695294553
187,1413.3899999999999,9.539485974043128
188,1426.47,9.474558370346454
189,1436.3600000000001,9.515731186052864
190,1442.99,9.645847311243312
191,1445.43977,9.674116064600689
192,1446.3100000000002,9.685678021452244
193,1456.3400000000001,9.497153891279385
194,1466.43,9.141793517057637
195,1476.6000000000001,9.142815150770701
196,1483.41,9.200818451221632
197,1493.7,9.191799596836915
198,1504.0500000000002,8.916892498403307
199,1510.99,8.475622936748309
200,1517.9699999999998,8.668835879060719
201,1524.97,8.552542073356829
202,1535.54,7.950493746743956
203,1546.19,7.9074894280658965
204,1553.32,7.787657760256078
205,1564.09,7.9983219534802386
206,1574.9299999999998,8.217523528647359
207,1585.8500000000001,8.33589411174929
208,1593.1699999999998,8.365248337784653
209,1604.21,8.242351432788805
210,1615.3300000000002,8.17801053572777
211,1626.53,7.999777646601548
212,1634.04,8.200204766482091
213,1645.36,8.204157389258087
214,1656.77,7.953219645960748
215,1659.58691,8.035817664160824
216,1664.42,8.183380965188498
217,1672.1,7.747605978993419
218,1675.95,8.273865208570104
219,1683.6899999999998,8.335890558420374
220,1695.36,8.06556191924113
221,1703.19,7.914886773159428
222,1714.9900000000002,7.663072528745111
223,1726.88,7.592691788398822
224,1734.85,7.815653759756271
225,1746.88,7.704472136849133
226,1754.94,7.867110612274609
227,1763.04,7.592528978396985
228,1775.26,7.567353086300126
229,1783.45,7.629910956490528
230,1795.82,7.791565904507046
231,1804.11,7.7580660014397
232,1816.61,7.403563344221146
233,1825.0,7.464480667896051
234,1833.42,7.319029159593632
235,1846.1299999999999,6.989946678533805
236,1854.6499999999999,6.991636396973639
237,1863.2099999999998,7.063298006110371
238,1876.13,7.263355701209273
239,1884.79,6.923605537088257
240,1893.4899999999998,6.763172263664144
241,1905.46072,6.925019818280786
242,1906.61,6.941426719042033
243,1915.4099999999999,6.776032269561437
244,1924.2500000000002,6.657184931674111
245,1933.13,6.790621705380055
246,1946.53,6.885298089125512
247,1955.52,6.600665919712949
248,1969.07,6.883308471933168
249,1978.1599999999999,6.973833081503781
250,1982.72,6.757385803136561
251,1996.4699999999998,6.633588913323131
252,2005.68,6.736145857673553
253,2014.94,6.612412191515562
254,2024.24,6.7331566369508415
255,2033.5800000000002,6.50579219397939
256,2042.97,6.588881140499527
257,2057.13,6.252099644517115
258,2066.63,6.321137647918745
259,2076.16,6.625577485015327
260,2085.75,6.535082989501814
261,2095.38,6.327466605581571
262,2105.05,6.340796333254598
263,2114.7599999999998,6.362972172520896
264,2124.52,6.37681040127878
265,2134.33,6.1645910195282525
266,2144.18,6.168670749370995
267,2154.08,6.272939868705325
268,2164.02,6.143915099632924
269,2174.01,6.11502972005211
270,2184.0499999999997,6.0211477299628875
271,2187.7616199999998,6.061652669034001
272,2194.13,6.135419317415551
273,2204.26,6.046994555164224
274,2214.43,5.88873571487834
275,2224.65,5.797047777049261
276,2234.92,5.923245741676988
277,2245.2400000000002,5.798950608761519
278,2255.6,5.663154397811494
279,2266.0099999999998,5.716445089318274
280,2276.47,5.747915683281859
281,2286.98,5.779898179702249
282,2297.53,5.5680745980880815
283,2302.83,5.597756258509401
284,2313.46,5.466011520826123
285,2324.14,4.938724685599649
286,2334.87,5.268802752829981
287,2345.64,5.1933087420257555
288,2356.47,5.321550614169697
289,2367.35,5.130086388770443
290,2372.7999999999997,5.162382756562177
291,2383.76,4.98508537509381
292,2394.7599999999998,5.098678915590888
293,2405.81,4.99259535854477
294,2416.92,5.01574368444682
295,2422.49,5.120215818134886
296,2433.67,5.00551400747646
297,2444.9,5.1027580992748405
298,2456.19,5.046759074021386
299,2467.53,5.004385951224737
300,2473.22,4.918206850809135
301,2484.63,4.928321591452013
302,2496.1,4.6173332150430575
303,2507.62,4.948886741090906
304,2511.88643,4.7653348277386005
305,2513.4,4.7007583825145725
306,2519.2,4.774636862960193
307,2525.0,4.694840343405815
308,2536.66,4.707236629956839
309,2542.51,4.652534881785611
310,2554.24,4.763685048273048
311,2566.03,4.695414540420268
312,2577.88,4.783818358227269
313,2583.82,4.7458975985457155
314,2595.7400000000002,4.69588629628913
315,2607.7299999999996,4.615669873968957
316,2613.74,4.5671349942238155
317,2625.7999999999997,4.633789451840055
318,2637.92,4.671246235116077
319,2644.0000000000005,4.813582235307348
320,2656.21,4.834414007073044
321,2662.33,4.614834224370837
322,2674.62,4.684301430349576
323,2686.96,4.665206407711466
324,2693.16,4.545988059222302
325,2705.59,4.5827560250738655
326,2718.08,4.465625316585211
327,2724.34,4.45324829375583
328,2736.92,4.513151573756849
329,2743.23,4.25988232231062
330,2755.89,4.274878036524682
331,2762.2400000000002,4.325738002184973
332,2774.99,4.39495770488871
333,2787.7999999999997,4.270473733252228
334,2794.2299999999996,3.922831133125563
335,2807.13,4.016006149978754
336,2813.6,4.307787766958611
337,2826.5800000000004,4.3719762180248445
338,2833.1,4.275941606387853
339,2846.18,4.216040600220392
340,2852.7400000000002,4.130166205689922
341,2865.91,4.283340188012134
342,2872.5099999999998,4.270610010588186
343,2884.0315,4.243315499593399
344,2885.7699999999995,4.239730445917541
345,2892.42,4.2173796145337334
346,2912.47,4.341095348481804
347,2932.6600000000003,4.241425801769161
348,2952.99,4.179362974395808
349,2966.62,4.187104864356517
350,2987.18,4.160470361611994
351,3007.89,4.1513982010167085
352,3028.74,4.124538759760711
353,3049.73,4.0975870378440025
354,3070.87,4.076490658076531
355,3092.16,4.0552776204582965
356,3106.43,4.039125370255752
357,3127.97,3.9774609028862464
358,3149.65,3.961699154856029
359,3171.48,3.9345977489750505
360,3193.46,3.8131356852433083
361,3208.2,3.8517777071083734
362,3230.44,3.74324283643531
363,3252.83,3.8250703079114836
364,3267.85,3.859046768455125
365,3290.5,3.8201034329899777
366,3311.31121,3.7896800437691374
367,3313.31,3.787188161932801
368,3320.95,3.822644963232891
369,3328.6,3.8416025391420128
370,3336.2799999999997,3.8606474388782295
371,3343.97,3.727375113223477
372,3351.6800000000003,3.790084336786788
373,3359.4,3.752575334959131
374,3367.15,3.7375116569585676
375,3374.91,3.5734237535670363
376,3382.69,3.621564399393568
377,3390.49,3.7646535944381627
378,3398.3,3.771932564091789
379,3406.14,3.6793188575725098
380,3413.9900000000002,3.6917259256622623
381,3421.86,3.7599665429700773
382,3429.7499999999995,3.7112407094959563
383,3437.65,3.740596650630866
384,3445.58,3.5167079155928707
385,3453.52,3.7381579551639073
386,3461.48,3.5603795439530064
387,3469.4599999999996,3.603856681960169
388,3477.46,3.526153369185394
389,3485.48,3.5586036056286825
390,3493.51,3.554534616681002
391,3501.5600000000004,3.5715151769513853
392,3509.64,3.5410650610488634
393,3517.73,3.484969719755372
394,3525.83,3.527587153070913
395,3533.96,3.608679910213548
396,3542.11,3.6650582165742467
397,3550.27,3.6609182975439762
398,3558.46,3.5907187023408005
399,3566.66,3.630341881746657
400,3574.8799999999997,3.4202366103705764
401,3583.1200000000003,3.346497888212558
402,3591.39,3.2891344898816346
403,3592.5099999999998,3.3282422460931667
404,3595.2000000000003,4.394653615922648
405,3597.88,3.3226352111430986
406,3600.57,2.904097580972581
407,3603.2599999999998,3.902493950802063
408,3605.95,3.268073320631545
409,3608.6400000000003,3.927660690461027
410,3611.33,3.5538450602905085
411,3614.02,3.499754430119991
412,3616.71,3.219480799949473
413,3619.3999999999996,3.580297169778955
414,3622.09,3.2291945396084367
415,3624.77,3.4333841348288874
416,3627.46,3.4913335046583693
417,3630.1499999999996,3.5307858744878517
418,3632.84,3.1950182443173336
419,3635.53,3.5829956141468156
420,3638.22,3.253082983976298
421,3640.91,3.8036743538057793
422,3643.6000000000004,3.872861723635262
423,3646.29,3.9422840934647443
424,3648.98,3.771121463294226
425,3651.66,3.5005830585146764
426,3654.35,3.620931428344158
427,3657.0399999999995,2.997515798173641
428,3659.73,2.745807168003122
429,3662.42,3.7761645378326043
430,3665.1099999999997,3.647732907662087
431,3667.7999999999997,3.561331277491569
432,3670.4900000000002,3.58685064732105
433,3673.18,3.1752220171505328
434,3675.87,2.9064213869800146
435,3678.56,3.303646756809497
436,3681.2400000000002,2.714315352029947
437,3683.9300000000003,3.4947227218594294
438,3686.62,3.8581150916889113
439,3689.31,3.409723461518394
440,3691.9999999999995,3.7934868313478756
441,3694.69,3.1827162011773575
442,3697.38,3.5436495710068394
443,3700.0699999999997,4.081127940836321
444,3702.7599999999998,3.243354310665804
445,3705.4500000000003,3.614237680495285
446,3708.13,2.813591275715736
447,3710.82,3.3371406455452175
448,3713.5099999999998,2.9552460153747
449,3716.2000000000003,3.451751385204182
450,3718.8900000000003,3.491787755033664
451,3721.58,4.070126124863146
452,3724.27,5.543484494692628
453,3726.9600000000005,7.61414686452211
454,3729.65,9.128361234351592
455,3732.34,8.906268604181074
456,3735.02,7.492301199401525
457,3737.71,5.113137569231006
458,3740.3999999999996,4.054208939060489
459,3743.09,3.316646308889971
460,3745.78,4.1579306787194525
461,3748.47,3.8426510485489347
462,3751.16,3.383372418378417
463,3753.8500000000004,3.555116788207899
464,3756.54,3.5973771580373812
465,3759.23,3.992963527866863
466,3761.91,3.903304123087314
467,3764.6000000000004,3.9070484929167955
468,3767.29,3.7464218627462778
469,3769.98,3.74969823257576
470,3772.67,3.8556466024052414
471,3775.3599999999997,4.001984972234723
472,3778.05,3.8012033420642055
473,3780.7400000000002,4.153824711893687
474,3783.43,3.87624308172317
475,3786.12,4.186834451552652
476,3788.8100000000004,4.039554821382134
477,3791.4900000000002,3.813739416602584
478,3794.18,4.269619786432067
479,3796.87,4.204758156261548
480,3799.56,3.8126785260910303
481,3801.8939600000003,3.485495831268387
482,3802.25,3.435638854460442
483,3804.94,3.8379558989119076
484,3807.63,3.8128399433633726
485,3810.3199999999997,3.878921987814838
486,3813.01,4.425121032266303
487,3815.7000000000003,4.207303076717769
488,3818.38,4.451708831041161
489,3821.0699999999997,4.119040875492627
490,3823.7599999999998,4.441864919944092
491,3826.4500000000003,4.191148964395557
492,3829.14,3.887985008847023
493,3831.83,3.4208010532984883
494,3834.52,3.871937097749954
495,3837.2099999999996,3.6213381422014193
496,3839.9,3.514974186652884
497,3842.59,3.71252923110435
498,3845.27,3.8918399854277426
499,3847.9600000000005,3.7224900298792076
500,3850.65,3.946388074330673
501,3853.34,4.059534118782138
502,3856.0299999999997,4.095881163233604
503,3858.72,4.066199207685069
504,3861.4100000000003,4.1451602521365345
505,3864.1,4.163009296587999
506,3866.79,4.402126341039465
507,3869.48,4.358980385490931
508,3872.16,4.427660139814323
509,3874.8500000000004,4.713606184265789
510,3877.54,4.493914228717254
511,3880.23,4.164290273168719
512,3882.92,3.9376923176201846
513,3885.6099999999997,4.15842836207165
514,3888.3,4.247691406523115
515,3890.99,3.7686844509745807
516,3893.68,3.916367495426046
517,3896.37,3.927660539877511
518,3899.05,3.8772742942009044
519,3901.7400000000002,3.978948338652369
520,3904.43,4.183763383103835
521,3907.12,3.9530664275553002
522,3909.8100000000004,3.9588574720067653
523,3912.5,4.3866965164582306
524,3915.19,4.551823560909696
525,3917.88,4.394296605361161
526,3920.5699999999997,4.037513649812627
527,3923.26,3.888299694264092
528,3925.9500000000003,4.027787738715557
529,3928.63,4.19878749303895
530,3931.3199999999997,4.113846537490415
531,3934.01,3.8431105819418807
532,3936.7000000000003,4.0841016263933465
533,3939.39,3.9851116708448115
534,3942.08,4.139116715296277
535,3944.7700000000004,4.279892759747742
536,3947.46,4.334619804199208
537,3950.15,4.598789848650673
538,3952.84,4.259332893102139
539,3955.52,4.140577647425531
540,3958.2099999999996,4.294465691876997
541,3960.9,4.289017736328462
542,3963.59,3.531726780779927
543,3966.2799999999997,3.5770888252313924
544,3968.97,3.557942869682858
545,3971.6600000000003,3.425821914134323
546,3974.35,3.665523958585789
547,3977.04,3.692857003037254
548,3979.73,3.3227280474887193
549,3982.4100000000003,3.737002801812112
550,3985.1,4.380723846263578
551,3987.79,4.2727198907150425
552,3990.48,4.638626935166508
553,3993.1699999999996,4.581081979617974
554,3995.86,4.679125024069439
555,3998.55,4.6034330685209035
556,4001.24,4.269245112972369
557,4003.93,4.4961851574238345
558,4006.6200000000003,4.2382112018753
559,4009.31,4.8214042463267655
560,4011.99,4.568135000650159
561,4014.68,4.314140045101624
562,4017.37,4.543540089553089
563,4020.06,4.7324331340045545
564,4022.75,4.55430217845602
565,4025.44,4.441263222907485
566,4028.1299999999997,4.707424267358951
567,4030.82,4.814950311810415
568,4033.51,4.561191356261881
569,4036.2,4.688034400713346
570,4038.88,4.75730015503674
571,4041.5699999999997,4.529179199488205
572,4044.26,4.578989243939669
573,4046.9500000000003,4.019551288391135
574,4049.64,4.600990332842601
575,4052.33,4.836242377294066
576,4055.0199999999995,4.383576421745531
577,4057.71,4.562751466196996
578,4060.4,4.422435510648461
579,4063.0899999999997,4.590722555099926
580,4065.7700000000004,4.89296430942332
581,4068.46,4.523418353874785
582,4071.15,4.389423398326251
583,4073.84,4.835057442777716
584,4076.5299999999997,4.484711487229181
585,4079.2200000000003,4.7933705316806465
586,4081.9100000000003,4.193894576132112
587,4084.6,4.396367620583577
588,4087.29,4.177963665035042
589,4089.9799999999996,4.498562709486508
590,4092.6600000000003,3.9560034638099006
591,4095.35,4.046906508261366
592,4098.04,4.223038552712832
593,4100.7300000000005,3.9520685971642964
594,4103.42,4.131947641615763
595,4106.11,4.1192406860672275
596,4108.8,4.334825730518693
597,4111.49,4.088909774970158
598,4114.18,4.221372819421623
599,4116.87,4.233719863873088
600,4119.5599999999995,3.8757659083245546
601,4122.24,4.390257662647947
