,lambda (Angstroms),Total Flux (erg/s/cm^2/Angstrom)
0,102.07000000000001,14.97769407029885
1,103.97,14.935020485308565
2,104.712855,14.918339401811052
3,105.9,14.778244345239575
4,108.12,14.516264046089491
5,109.88,14.308633480976814
6,114.0,13.822455668224405
7,118.01,13.349255002235287
8,120.22644299999999,13.088274752470271
9,121.02999999999999,13.00898439490149
10,125.0,12.61637631959615
11,127.03,12.41560186324103
12,127.91,12.328594226170827
13,130.89,12.033868655319468
14,132.1,11.91436718009794
15,133.94,11.732401058042067
16,137.06,11.424072290338628
17,138.038426,11.327321436319433
18,139.93,11.193658962122432
19,142.86,10.988908427216774
20,146.85999999999999,10.710105904137384
21,150.97,10.42012971442331
22,154.85,10.146573388036302
23,158.489319,9.890036188495088
24,158.82,9.872432665600007
25,162.14,9.695611405578784
26,165.92,9.494542467241372
27,170.17999999999998,9.26769401022619
28,172.94,9.12090364032903
29,176.97,8.906398312471945
30,179.85000000000002,8.753129900405343
31,181.93,8.642428482801684
32,181.970086,8.640294853863143
33,186.17000000000002,8.469994925792538
34,190.94,8.27669779170334
35,194.04999999999998,8.150718258743714
36,198.10999999999999,7.986176985619574
37,201.79,7.837192374561237
38,205.07000000000002,7.704198388835329
39,208.929613,7.547152188692691
40,209.85,7.519020356729432
41,216.22,7.326191836431793
42,220.23999999999998,7.20416643864584
43,222.79,7.126548264005499
44,226.94,7.000550762335921
45,230.09,6.919246421309615
46,233.83,6.833553606503779
47,239.83,6.672734012644149
48,239.88329199999998,6.671057905736233
49,245.98,6.522199939233608
50,251.70999999999998,6.392943760154304
51,256.97999999999996,6.2491582126066705
52,259.96,6.195493172684099
53,264.18,6.101467758632673
54,269.09,5.985426302283741
55,274.1,5.866779245601833
56,275.42287,5.8352132083404245
57,279.19,5.766026764023313
58,283.72999999999996,5.684376446794137
59,289.67,5.5718489987453905
60,295.74,5.462197155049113
61,301.23,5.357827416549514
62,308.25,5.232429031582815
63,316.227766,5.089285122539403
64,318.35,5.060948728898847
65,328.02,4.928625297253547
66,337.99,4.791401083488951
67,348.26000000000005,4.649743217605059
68,357.19,4.5281458978540226
69,363.078055,4.448908767645776
70,366.36,4.415907337583658
71,374.89000000000004,4.32730747569045
72,385.39,4.215460445634333
73,395.28000000000003,4.117246083943379
74,405.42,4.0141753817749
75,413.90999999999997,3.926107510758097
76,416.86938299999997,3.895000557278167
77,421.6,3.8566185690508847
78,430.43,3.78601755016513
79,441.46999999999997,3.6999451896782976
80,450.72,3.6261690550131522
81,460.15,3.5502195550139835
82,469.79,3.473880237125118
83,478.630092,3.4046605664808016
84,479.63,3.398619943586987
85,489.66999999999996,3.3354900688448024
86,499.92,3.2745669802683683
87,505.71,3.2377973088383634
88,511.57,3.2073377861302754
89,519.88,3.1559401686892845
90,529.5500000000001,3.095442694988395
91,539.39,3.0326595667550187
92,549.42,2.970851359338275
93,549.5408739999999,2.9701519965894048
94,559.63,2.9260346342580137
95,570.04,2.8788529557688487
96,580.64,2.828766830679016
97,590.0699999999999,2.7849731536038163
98,599.66,2.7378133483385816
99,609.4,2.6870549310201874
100,619.3,2.6485371755117595
101,629.3700000000001,2.6004682856764183
102,630.957344,2.5933078961935125
103,639.59,2.5624996179186814
104,649.98,2.5234235219662784
105,657.51,2.494147312512804
106,665.12,2.467728363436982
107,674.38,2.43391151715024
108,685.34,2.3911846088886097
109,694.8699999999999,2.3578965588764444
110,704.5400000000001,2.319370489525169
111,715.9799999999999,2.280258043529453
112,724.43596,2.2491797306526577
113,725.94,2.2450486338090454
114,734.35,2.2218491555279023
115,744.5699999999999,2.1931399130982614
116,754.9200000000001,2.1645027304811584
117,765.43,2.132361912248719
118,774.29,2.1111199125494413
119,785.0600000000001,2.0802820139420795
120,794.15,2.056314809295755
121,805.1999999999999,2.0264972333615536
122,814.52,2.000969813768182
123,825.85,1.9701572205071414
124,831.763771,1.952083759049688
125,835.4200000000001,1.9433793812605569
126,845.09,1.926222371458827
127,854.88,1.9057768659925458
128,864.77,1.8858464924724718
129,874.79,1.8653477094824678
130,884.92,1.8445613446332922
131,895.17,1.8235434141195659
132,905.53,1.8020954417466672
133,916.02,1.7809752199038387
134,924.49,1.7865880067476179
135,935.2,1.7881367411864462
136,946.0300000000001,1.788424509960723
137,954.78,1.7832478502538835
138,954.992586,1.7829861974685628
139,965.84,1.7701035823543703
140,974.77,1.694056685241518
141,986.06,1.7143914743340039
142,995.18,1.692576120686836
143,1004.39,1.691165369733939
144,1016.02,1.6678809534492283
145,1025.4199999999998,1.6093919259620157
146,1034.91,1.616241881169074
147,1044.49,1.6274944590704041
148,1054.1499999999999,1.6044464415888646
149,1063.91,1.569505404878737
150,1076.23,1.5536116159167734
151,1086.18,1.5161826026723297
152,1096.23,1.5153155701992995
153,1096.4782,1.5146536579844718
154,1103.83,1.497654140289818
155,1114.05,1.4786770267097722
156,1124.35,1.4513966822993543
157,1134.76,1.4481145579971744
158,1145.26,1.4253907865108257
159,1155.85,1.4089315678403087
160,1163.8700000000001,1.3950833520954973
161,1174.64,1.3515369790566427
162,1185.5,1.3553373788336196
163,1193.72,1.327644236012878
164,1204.77,1.2974651050677208
165,1215.91,1.2596956969383948
166,1224.34,1.2748130306879266
167,1235.67,1.2710255318364665
168,1244.24,1.2603110166328468
169,1255.75,1.2390922834130496
170,1258.92541,1.2321375851805618
171,1264.45,1.2225782924558173
172,1276.15,1.218306265803528
173,1285.0,1.2091567198742323
174,1293.91,1.1859517971928737
175,1305.88,1.1718670501563007
176,1314.93,1.171675568386795
177,1324.05,1.157166802073216
178,1336.3,1.136508436860349
179,1345.5600000000002,1.1330536814586225
180,1354.8899999999999,1.1197489615128229
181,1364.28,1.10271126481496
182,1373.74,1.0921153935730235
183,1386.4499999999998,1.0771948299276737
184,1396.0600000000002,1.0512315118055795
185,1405.73,1.0393559469314224
186,1415.48,1.0381703997211815
187,1425.29,1.0254693057588775
188,1435.17,1.0153107372525
189,1441.79,1.0088907589415468
190,1445.43977,1.0047236151490915
191,1448.45,1.002324608318987
192,1455.13,0.9945545728919754
193,1465.22,0.9825327014760253
194,1475.38,0.9742596717846423
195,1485.6,0.9662902835714602
196,1495.9,0.9572050073292115
197,1506.2700000000002,0.9458693428115305
198,1513.22,0.9351711140364214
199,1516.71,0.9344402000184167
200,1523.71,0.927907772475141
201,1534.27,0.9123200626384281
202,1544.9099999999999,0.9018919647726495
203,1555.6200000000001,0.8920042086314377
204,1566.4,0.8867125142147931
205,1573.63,0.8838416723379527
206,1584.5400000000002,0.8763416811240758
207,1595.52,0.8681973616347667
208,1606.58,0.8572858941163912
209,1613.9999999999998,0.8507858469205193
210,1625.19,0.8398580426049114
211,1636.45,0.8331870900138709
212,1644.0,0.8274629360207665
213,1655.3999999999999,0.8154989968788607
214,1659.58691,0.8133737836664988
215,1666.88,0.8114134092885557
216,1670.72,0.8038739630768831
217,1678.4299999999998,0.8123287549800096
218,1686.1799999999998,0.808501189318431
219,1693.9599999999998,0.7994900079833237
220,1705.7,0.792317677742429
221,1713.5800000000002,0.7896346874955592
222,1725.45,0.7838063726693738
223,1733.42,0.785190475401918
224,1745.43,0.7762645240992653
225,1753.49,0.7782690098112235
226,1765.64,0.7623393920321034
227,1773.7900000000002,0.7624845007234756
228,1786.09,0.7570136945767123
229,1794.3300000000002,0.7627532862474984
230,1806.77,0.7520878236242677
231,1815.1100000000001,0.7459165463832914
232,1823.49,0.7401186115776104
233,1836.1299999999999,0.7303281611308551
234,1844.6000000000001,0.7163450193045877
235,1853.1200000000001,0.7187219180224393
236,1865.96,0.7200123697521594
237,1874.5800000000002,0.7148151495582487
238,1883.2299999999998,0.7082675036908095
239,1896.28,0.7050489357058287
240,1905.04,0.6995652890354509
241,1905.46072,0.6994065659613521
242,1913.83,0.6974973103088213
243,1927.1,0.6855107913908611
244,1935.99,0.6669499932611953
245,1944.93,0.6903626126111149
246,1953.9,0.6860565304487861
247,1967.45,0.6922205074165058
248,1976.53,0.6847522697092652
249,1985.6499999999999,0.6831162899856935
250,1994.82,0.6786638977417074
251,2004.02,0.6703370039854727
252,2013.28,0.6669954272047407
253,2027.2299999999998,0.6539634640091457
254,2036.5900000000001,0.6622790621875853
255,2045.99,0.6667494883496932
256,2055.43,0.6564723524954699
257,2064.92,0.649290764120832
258,2074.45,0.661111113729863
259,2079.23,0.6859635527782539
260,2084.03,0.6928363108184792
261,2093.65,0.6790769458907642
262,2103.31,0.6668620189467178
263,2113.02,0.672469439482257
264,2122.77,0.6610784980014648
265,2132.57,0.6433855040002582
266,2147.35,0.6600899389657855
267,2157.26,0.6567073494196674
268,2167.22,0.6388830073531353
269,2177.22,0.6363217032702715
270,2187.27,0.6492108466669932
271,2187.7616199999998,0.6493377133880437
272,2197.37,0.6530885024312985
273,2207.51,0.6435446337221
274,2212.6,0.6185333145179759
275,2222.81,0.6229259738354399
276,2233.07,0.6517697960290911
277,2243.38,0.63891108109893
278,2253.74,0.6098071290449563
279,2264.14,0.6039773072919323
280,2274.59,0.6123632484150956
281,2285.0899999999997,0.6347724524144466
282,2295.64,0.6104877192899849
283,2306.23,0.626773916466473
284,2316.88,0.6090089090943859
285,2327.5699999999997,0.5728067320232488
286,2332.94,0.5700405249257738
287,2343.71,0.5402729884565366
288,2354.52,0.5889617222882493
289,2365.39,0.5399944015713869
290,2376.31,0.5592073037307117
291,2387.2799999999997,0.5173253487662239
292,2392.7799999999997,0.5314402451468363
293,2403.83,0.5277904307842484
294,2414.92,0.5356406767226103
295,2426.0699999999997,0.5816130981123973
296,2437.27,0.5768506823783714
297,2442.89,0.5975711896618335
298,2454.16,0.5996672019544701
299,2465.49,0.5834014096985316
300,2476.87,0.5626875803187803
301,2482.58,0.5314377807793796
302,2494.04,0.5339834120015283
303,2505.55,0.5824907060998642
304,2511.33,0.505145894587126
305,2511.88643,0.5033822845186294
306,2517.12,0.4871636423055785
307,2522.92,0.49108663188635776
308,2534.56,0.5169765331829562
309,2546.26,0.5210244326821144
310,2552.13,0.5811915584992134
311,2563.91,0.5439508622684514
312,2575.75,0.5735445942402491
313,2587.64,0.5569802163808467
314,2593.6,0.5430812845017854
315,2605.5699999999997,0.5235861109124627
316,2617.6,0.5082079655256997
317,2623.63,0.5474693998829581
318,2635.74,0.6209505587662749
319,2647.91,0.6949534458521514
320,2654.0099999999998,0.7853050464457296
321,2666.2599999999998,0.6551945378016859
322,2672.41,0.688668328564064
323,2684.75,0.7228434622238598
324,2697.14,0.6383675860524556
325,2703.36,0.6898402430511533
326,2715.8300000000004,0.6110625711498288
327,2722.0899999999997,0.5782655802835664
328,2734.66,0.6194214887198415
329,2747.28,0.5141343873249165
330,2753.61,0.5572625626949739
331,2766.3199999999997,0.6049644036038885
332,2772.7000000000003,0.6245600691427455
333,2785.5,0.5280367523555
334,2791.92,0.429270290029397
335,2804.81,0.4438061555459909
336,2817.75,0.5924200112313848
337,2824.25,0.6826961331753615
338,2837.29,0.661915729198355
339,2843.83,0.5958962032773716
340,2856.95,0.5132379035704447
341,2863.54,0.6596895678182612
342,2876.7599999999998,0.735288948448934
343,2883.3900000000003,0.7088934648317902
344,2884.0315,0.7115564187095119
345,2896.7,0.7649124476108637
346,2910.07,0.9028859500422314
347,2930.2400000000002,0.8341910068889542
348,2950.55,0.7986238763265816
349,2970.9999999999995,0.8172085583551132
350,2991.6,0.8237634967310424
351,3012.33,0.8245240039413827
352,3033.21,0.8495970674991207
353,3047.22,0.8706051703460511
354,3068.34,0.9122682840596251
355,3089.6099999999997,0.9011786541205968
356,3111.02,0.9715572367724727
357,3132.59,0.9238813195282393
358,3147.05,0.9263749914173622
359,3168.86,0.9782944243289651
360,3190.83,0.8922186573444584
361,3212.94,0.9492876029508563
362,3227.77,0.8548771938302266
363,3250.15,1.0485074208619398
364,3272.68,1.1638923042410507
365,3287.78,1.147848976545737
366,3310.5699999999997,1.0999202975936702
367,3311.31121,1.0954912119272842
368,3318.2,1.0546199928073106
369,3325.8500000000004,1.0467897087744642
370,3333.52,1.1173542617768262
371,3341.21,1.052729351814396
372,3348.91,1.1832462103695705
373,3356.63,1.153514505959953
374,3364.37,0.8527296385855437
375,3372.12,0.9208269397287386
376,3379.89,1.1557693779071418
377,3387.69,1.1051885216383572
378,3395.5,1.0285502338871768
379,3403.32,1.2514914146536005
380,3411.17,1.0671776009728364
381,3419.03,1.0535941558096769
382,3426.9100000000003,1.1117851476817253
383,3434.81,1.226476776588982
384,3442.73,1.001991442531447
385,3450.67,1.07707954550912
386,3458.62,1.1557174170043973
387,3466.6000000000004,1.098821494052487
388,3474.59,1.175471439618181
389,3482.6000000000004,1.117215222219083
390,3490.63,1.1827342418551932
391,3498.6699999999996,1.0415762300089078
392,3506.74,1.2504286237154345
393,3514.82,1.0890941859395653
394,3522.92,1.2152041851989046
395,3531.0399999999995,1.037110121493452
396,3539.1800000000003,1.2364733948232076
397,3547.34,1.2849208051881713
398,3555.52,1.2104255525883436
399,3563.7200000000003,1.1878160370237238
400,3571.93,0.9929323899767084
401,3580.1699999999996,1.0665234484825052
402,3588.42,0.8496904755059062
403,3596.69,1.1344349395645155
404,3604.98,1.2615523406583329
405,3613.29,1.0158799787873587
406,3621.62,0.9905280539515927
407,3629.9700000000003,1.4220446661510349
408,3638.3399999999997,1.1951257153856853
409,3646.7300000000005,1.248995901655544
410,3655.1299999999997,1.264832456443007
411,3663.56,1.501557916783282
412,3672.0000000000005,1.3449383456411614
413,3680.4700000000003,1.3090136800518528
414,3688.95,1.2434339829801488
415,3697.46,1.355957191461257
416,3705.98,1.4029763684599692
417,3714.52,1.2794944824938899
418,3723.09,1.0839811020806227
419,3731.67,1.2471704901849596
420,3740.27,0.840710915324505
421,3748.89,1.0246859774992587
422,3753.0,0.7970460382345528
423,3755.71,1.03205130650527
424,3758.43,1.0986848432935914
425,3761.1499999999996,1.1723594800819126
426,3763.8700000000003,1.170484316870234
427,3766.59,1.1471013536585553
428,3769.2999999999997,1.2644150219292722
429,3772.02,1.2909874587175936
430,3774.74,1.224663895505915
431,3777.46,1.1844750322942363
432,3780.1800000000003,1.2315787690825575
433,3782.89,1.4031392373532747
434,3785.6099999999997,1.373768674141596
435,3788.33,1.1745662109299173
436,3791.05,1.1625667477182384
437,3793.7599999999998,1.1031879159889557
438,3796.48,1.0373275527772772
439,3799.2,0.9368533895655984
440,3801.8939600000003,1.1340742758958955
441,3801.9199999999996,1.135981405368179
442,3804.6400000000003,1.1804169138456275
443,3807.35,1.2437714546448504
444,3810.0699999999997,1.2013250631222991
445,3812.79,1.2573500715997477
446,3815.5099999999998,1.2706148800771966
447,3818.23,1.2617796885546453
448,3820.94,1.1144189293538682
449,3823.66,1.1092079378313169
450,3826.3799999999997,1.1164855463087655
451,3829.1,1.0028331547862142
452,3831.82,0.832673563263663
453,3834.5299999999997,0.8440927040628858
454,3837.25,0.9077242125403345
455,3839.97,0.8343650210177833
456,3842.69,0.896146229495232
457,3845.4100000000003,1.0178526379726807
458,3848.12,1.1521813787719035
459,3850.8399999999997,1.2502725872493523
460,3853.56,1.297662395726801
461,3856.28,1.2331942042042499
462,3858.99,1.1589154450034727
463,3861.71,1.3121525534809213
464,3864.43,1.28340236195837
465,3867.1499999999996,1.034249870435819
466,3869.8700000000003,1.1682135789132675
467,3872.58,1.1689954197124903
468,3875.2999999999997,1.008908228189939
469,3878.02,1.0431935366673877
470,3880.74,1.1767977451448366
471,3883.46,1.2103120536222853
472,3886.17,1.151245594421508
473,3888.89,1.1727595028989568
474,3891.6099999999997,1.1034855113764057
475,3894.33,1.3134097198538541
476,3897.05,1.297456528331303
477,3899.7599999999998,1.3084930691305259
478,3902.48,1.2798198776079746
479,3905.2,1.4019116860854233
480,3907.9199999999996,1.507942494562872
481,3910.6400000000003,1.3215413030403207
482,3913.35,1.4620138438395436
483,3916.0699999999997,1.6321066523169923
484,3918.79,1.467497460794441
485,3921.51,1.5176622692718897
486,3924.22,1.4315128100711125
487,3926.94,1.2486316185485613
488,3929.66,1.0747199270260102
489,3932.3799999999997,0.8081189355034588
490,3935.1000000000004,0.7378691439809075
491,3937.81,0.7878335847801303
492,3940.5299999999997,0.8992616932575791
493,3943.25,1.0561219017350276
494,3945.97,1.3654680102124765
495,3948.69,1.4402768186899253
496,3951.4,1.519101359489148
497,3954.12,1.4646291679665968
498,3956.8399999999997,1.4019849764440455
499,3959.56,1.3546817849214943
500,3962.28,1.2974855933989429
501,3964.99,1.0933595341981657
502,3967.71,0.8911550426756145
503,3970.43,0.8228066511530633
504,3973.1499999999996,0.8944299596305121
505,3975.86,1.029477800429735
506,3978.58,1.2715499089071836
507,3981.2999999999997,1.5441487173846322
508,3984.02,1.552839525862081
509,3986.74,1.6778083343395298
510,3989.45,1.6676458751387524
511,3992.17,1.6803446836162013
512,3994.89,1.84077649209365
513,3997.6099999999997,1.8806623005710987
514,4000.3300000000004,1.8136501090485475
515,4003.04,1.7993236498477703
516,4005.7599999999998,1.8854394583252192
517,4008.48,1.9349882668026677
518,4011.2,1.9283880752801164
519,4013.92,1.8803658837575652
520,4016.63,2.039367424556788
521,4019.35,2.064785233034237
522,4022.0699999999997,1.9639550415116855
523,4024.79,1.9065528499891342
524,4027.51,2.027846658466583
525,4030.22,2.024187199265806
526,4032.94,1.8581630077432545
527,4035.66,1.8436738162207034
528,4038.3799999999997,1.910927624698152
529,4041.09,2.0353661654973747
530,4043.81,2.0507889739748233
531,4046.5299999999997,1.9126467824522724
532,4049.25,1.796063590929721
533,4051.97,1.8885523994071698
534,4054.68,1.9101769402063926
535,4057.4,1.8939927486838413
536,4060.12,1.87832155716129
537,4062.8399999999997,1.7855093656387389
538,4065.56,1.7128431741161876
539,4068.27,1.8817627149154101
540,4070.99,1.837902523392859
541,4073.71,1.8336413318703078
542,4076.43,1.8532271403477565
543,4079.15,1.885686948825205
544,4081.86,1.9822184896244281
545,4084.58,2.0175572981018766
546,4087.2999999999997,1.9826911065793253
547,4090.02,1.9503689150567742
548,4092.7400000000002,1.985243723534223
549,4095.45,1.9761612643334456
550,4098.17,1.8356800728108944
551,4100.889999999999,1.6795758812883432
552,4103.61,1.764200689765792
553,4106.32,1.7196812305650147
554,4109.04,1.7417850390424634
555,4111.76,1.8642618475199122
556,4114.48,1.8227916559973611
557,4117.2,1.8744984644748097
558,4119.91,1.8818100052740325
559,4122.63,1.9146048137514813
560,4125.349999999999,1.95215262222893
561,4128.07,1.9452704307063786
562,4130.79,2.0294832391838273
563,4133.5,2.00146177998305
564,4136.22,1.9112695884604989
565,4138.94,1.9453233969379478
566,4141.66,1.9788112054153966
567,4144.38,1.909640013892845
568,4147.09,1.9870015546920679
569,4149.8099999999995,1.9232513631695167
570,4152.53,1.8714771716469656
571,4155.25,1.9617299801244141
572,4157.97,1.956131788601863
573,4160.68,2.0164053294010857
574,4163.4,2.0612511378785343
575,4166.12,2.060767946355983
576,4168.84,1.9797237548334319
577,4171.55,1.8939092956326549
578,4174.2699999999995,1.8937601041101035
579,4176.99,1.878294912587552
580,4179.71,1.866273721065001
581,4182.429999999999,1.9423925295424498
582,4185.14,1.9511950703416725
583,4187.86,1.9960918788191213
584,4190.58,1.94994468729657
585,4193.3,1.9751584957740187
586,4196.0199999999995,1.9179613042514674
587,4198.73,1.8984458450506903
588,4201.45,1.944473653528139
589,4204.17,1.8784114620055876
590,4206.889999999999,1.9590012704830364
591,4209.61,1.989894078960485
592,4212.32,2.043897619759708
593,4215.04,2.172181428237157
594,4217.76,2.134334236714605
595,4220.48,2.032733045192054
596,4223.19,2.038194585991277
597,4225.91,1.9593093944687257
598,4228.63,1.8918852029461746
599,4231.349999999999,1.8400070114236233
600,4234.07,1.901324819901072
601,4236.78,1.9848283607002948
602,4239.5,2.0780361691777434
603,4242.22,2.1061789776551922
604,4244.94,2.126509786132641
