,lambda (Angstroms),Total Flux (erg/s/cm^2/Angstrom)
0,101.98,18.39519733163469
1,104.11,18.33642722445589
2,104.712855,18.319793490673394
3,106.05,18.125994864088256
4,108.02000000000001,17.840473627157422
5,110.03,17.54915500474235
6,113.89,16.989707302019436
7,117.9,16.408519403690033
8,120.22644299999999,16.071337231221722
9,120.92,15.987061401774307
10,124.88000000000001,15.505871989116695
11,126.91,15.25920165899321
12,128.09,15.115816935192099
13,131.07,14.75370975151043
14,131.98,14.643133398159414
15,134.12,14.383096696225934
16,136.93,14.041646637522735
17,138.038426,13.906959048741
18,140.12,13.726163665207265
19,143.05,13.471678174599328
20,147.06,13.123389238752601
21,150.82999999999998,12.795945445294368
22,155.06,12.428548307482082
23,158.489319,12.130694430475609
24,159.04000000000002,12.09453448595904
25,162.0,11.900168909431738
26,166.15,11.627663141434237
27,170.02,11.373543324504721
28,173.18,11.166044985455342
29,176.80999999999997,10.927684594695563
30,180.10000000000002,10.711649958653751
31,181.970086,10.588852604404838
32,182.18,10.578336886965976
33,185.99999999999997,10.386972654213034
34,191.20999999999998,10.125975915146022
35,193.87,9.99272238146197
36,197.93,9.789335368295841
37,202.07,9.581940792339653
38,204.88,9.441173031749488
39,208.929613,9.238306350536332
40,210.14000000000001,9.19272031917754
41,216.02,8.971266226289988
42,220.04,8.819863904731172
43,223.1,8.704617309451056
44,227.25,8.548319014122956
45,229.88000000000002,8.449271324004469
46,234.14999999999998,8.288462253799032
47,239.88329199999998,8.072540017582284
48,240.16,8.064509483045258
49,245.75,7.902272335158214
50,252.06,7.719142422322788
51,256.74,7.583311799398289
52,259.71999999999997,7.4968299679841435
53,263.94,7.374357424824444
54,268.84999999999997,7.231857711377544
55,273.84,7.087036170944155
56,275.42287,7.0410976101339
57,278.93,6.962982692791009
58,284.12,6.847384954457109
59,290.07,6.714857052626952
60,296.14,6.57966031282844
61,300.96000000000004,6.472303350401135
62,307.97,6.316169993928832
63,316.227766,6.1322456069413915
64,318.05,6.101931969037391
65,327.72,5.941066436626656
66,337.68,5.775375771425474
67,347.94,5.604694093686245
68,356.86,5.456304977425629
69,363.078055,5.352864806949195
70,366.02000000000004,5.316214189773443
71,375.40999999999997,5.199231954972344
72,385.03999999999996,5.079256472689108
73,394.90999999999997,4.956299252323735
74,405.03999999999996,4.830099756477714
75,413.53000000000003,4.724330360609626
76,416.86938299999997,4.682727102141554
77,422.18,4.632202645114526
78,430.03,4.557519803801435
79,441.06,4.452585535272595
80,451.34000000000003,4.354783599590865
81,459.73,4.274963168195855
82,470.44,4.173070882671117
83,478.630092,4.095154639790612
84,480.29,4.083009881255963
85,490.35,4.009400836091199
86,499.46,3.942750132957503
87,506.40999999999997,3.8919341154039135
88,512.27,3.8494222244449166
89,520.6,3.7885180402651466
90,530.28,3.7177461211728104
91,540.13,3.6456659288033353
92,549.5408739999999,3.5771617813887144
93,550.18,3.573618519970656
94,560.4,3.5168383955825804
95,569.51,3.466233200277748
96,580.1,3.407077637861924
97,589.52,3.355004006696006
98,600.48,3.293990902252433
99,610.24,3.240066459142098
100,620.16,3.1851878425873315
101,630.2299999999999,3.12939997461591
102,630.957344,3.125346711494448
103,640.47,3.0833411933259915
104,649.38,3.0446601889661262
105,658.42,3.0051351424304147
106,664.51,2.978549091423503
107,675.31,2.930871003199423
108,684.7,2.88935744765182
109,694.23,2.8492596472994607
110,705.51,2.799066301887645
111,715.3199999999999,2.7574624509257726
112,724.43596,2.717642456401559
113,725.27,2.7149503713502385
114,735.36,2.682362183282086
115,745.59,2.6505079540692806
116,754.23,2.6232306417135978
117,764.72,2.589846013517867
118,775.3599999999999,2.5564875005242946
119,784.34,2.52863802796017
120,795.25,2.493752258330483
121,804.46,2.4645916897430014
122,815.65,2.4287554658240094
123,825.09,2.4002422012131706
124,831.763771,2.3750850678799886
125,834.65,2.366599363614006
126,844.3100000000001,2.3491565030964665
127,854.09,2.326125079156349
128,865.9699999999999,2.2993589503211145
129,876.0,2.2772188067506263
130,884.1,2.2606565307266027
131,894.34,2.2378456986666024
132,904.6899999999999,2.212601035969239
133,915.17,2.208085397064083
134,925.7700000000001,2.566734314736348
135,934.33,3.0489223305924416
136,945.15,3.7274084169899804
137,954.992586,4.135259743084205
138,956.1,4.181206850011579
139,964.9399999999999,4.286265026304841
140,976.12,2.3484761551463196
141,985.1500000000001,3.5711037053644366
142,994.26,3.755721276182493
143,1005.78,4.657246442573713
144,1015.08,4.704979587316624
145,1024.48,3.4511595078094595
146,1033.96,4.008936248902233
147,1045.93,5.53767340616811
148,1055.6100000000001,5.315486698760732
149,1065.3700000000001,4.526693811953292
150,1075.23,5.026852700895778
151,1085.18,4.422871388013194
152,1095.22,5.244367873305541
153,1096.4782,5.208386735933094
154,1105.36,4.958258295256748
155,1115.5800000000002,4.820343193883051
156,1125.9099999999999,4.276915740146234
157,1133.71,5.160009390761221
158,1144.2,4.867000242678044
159,1154.79,4.991248410628391
160,1165.47,4.970293563008912
161,1176.26,3.535684363026311
162,1184.41,4.8943126197586375
163,1195.3700000000001,4.33424705703303
164,1203.65,3.4637196246089395
165,1214.79,3.1926190307436775
166,1226.03,4.319738752911942
167,1234.53,5.077255615761607
168,1245.95,5.156546306790216
169,1254.59,4.987879812086818
170,1258.92541,4.939817625423222
171,1266.2,4.863279854816015
172,1274.98,5.311813177502728
173,1283.81,5.37267439382661
174,1295.6899999999998,4.472189122017745
175,1304.67,4.645227019253131
176,1313.7199999999998,5.340078767580553
177,1325.8700000000001,5.0719129214123955
178,1335.0600000000002,4.791055371923887
179,1344.32,5.178506673527415
180,1353.64,5.085204847495544
181,1366.1599999999999,4.70717521424243
182,1375.6299999999999,4.709849069122064
183,1385.17,4.672688775093732
184,1394.77,3.759166353430002
185,1404.44,3.941186782858308
186,1414.1699999999998,4.3643420846512155
187,1423.97,4.365276237536158
188,1433.8400000000001,4.471670241513136
189,1440.46,4.587083159074189
190,1445.43977,4.562290534490061
191,1447.1100000000001,4.554682231419387
192,1453.7900000000002,4.4548245062006115
193,1463.87,4.1660191962896445
194,1474.02,4.255917377282074
195,1484.23,4.2606208361917
196,1494.52,4.250519998990922
197,1504.88,3.97506465269354
198,1511.8300000000002,3.6172676781021487
199,1515.31,3.758874797299553
200,1525.82,3.8175656457951623
201,1536.3899999999999,3.3634957722079677
202,1543.48,3.361877779423369
203,1554.18,3.314229674656768
204,1564.95,3.501518060793562
205,1575.8,3.6996731508199523
206,1586.73,3.7835919447359374
207,1594.05,3.782975850633926
208,1605.1000000000001,3.823902200384305
209,1616.2299999999998,3.8064532540242793
210,1623.69,3.7092381417290596
211,1634.94,3.929055751203427
212,1646.27,3.95248006456739
213,1653.8700000000001,3.842574934078963
214,1659.58691,3.9230843260532122
215,1665.34,4.005790231958189
216,1673.02,3.794574843968357
217,1676.88,4.113716940629717
218,1684.6200000000001,4.115728424608715
219,1696.3,3.9213351678741795
220,1704.13,3.8469529598064214
221,1715.94,3.667106592337683
222,1723.8600000000001,3.6488926922231695
223,1735.8100000000002,3.8252373593483657
224,1743.8200000000002,3.746053767187096
225,1755.91,3.8595604689062286
226,1764.01,3.7387481846982027
227,1776.24,3.6323149210112704
228,1784.4399999999998,3.7247350900846277
229,1796.8100000000002,3.8663058609916297
230,1805.1000000000001,3.895925338018231
231,1813.43,3.549584396357385
232,1826.0000000000002,3.6829380738271524
233,1834.4299999999998,3.5796315854476894
234,1842.9,3.3236146783807783
235,1855.68,3.3382154077414485
236,1864.24,3.4039228086277826
237,1872.8500000000001,3.611297936154807
238,1885.83,3.2999985720782425
239,1894.5300000000002,3.1304730075585114
240,1903.28,3.3771441696794717
241,1905.46072,3.3467033169736697
242,1916.47,3.195040154948976
243,1925.3200000000002,3.1075146059080687
244,1934.2,3.2662939872093957
245,1943.13,3.3567422524144463
246,1956.6,3.1027399760776078
247,1965.6299999999999,3.3695040090901056
248,1974.7,3.4770789492255822
249,1983.82,3.288351773264783
250,1992.97,3.236767527646218
251,2006.79,3.3550794386354448
252,2016.05,3.295986937605072
253,2025.36,3.4137343204784223
254,2034.71,3.181126610474752
255,2044.1000000000001,3.27590580759406
256,2053.53,3.160232911836348
257,2063.01,3.184202899982359
258,2072.54,3.3837317720320934
259,2077.31,3.114258696447333
260,2086.9,3.2663894291815367
261,2096.53,3.1102510690387186
262,2106.21,3.191570592799625
263,2115.93,3.2160680236835097
264,2125.7000000000003,3.2468903384711183
265,2135.5099999999998,3.1535505603817056
266,2145.37,3.0856976661960167
267,2155.27,3.2022406791333067
268,2165.22,3.179511575974321
269,2175.21,3.156915379938313
270,2185.25,3.07701706780603
271,2187.7616199999998,3.097303582296868
272,2195.34,3.1597459500237393
273,2205.47,3.1329173182534404
274,2215.65,3.060591694223663
275,2225.88,2.990103077934407
276,2236.1600000000003,3.036700469385673
277,2246.48,3.021963267029356
278,2256.85,2.9359450724135616
279,2267.26,2.9870902839901836
280,2272.4900000000002,2.9964128936487553
281,2282.98,3.021185917610213
282,2293.52,2.8552529493121916
283,2304.1,2.932398387206588
284,2314.7400000000002,2.8388064343896104
285,2325.42,2.44944688776505
286,2336.16,2.715588950429116
287,2346.94,2.7174894192855987
288,2352.35,2.7764588568100494
289,2363.21,2.7029161380513673
290,2374.1200000000003,2.699803427033207
291,2385.07,2.6380521222074638
292,2396.08,2.683655426670347
293,2407.1400000000003,2.6220917388737517
294,2412.69,2.639788598071663
295,2423.83,2.6856327226599026
296,2435.02,2.6092968549886635
297,2446.26,2.6693249950579467
298,2457.55,2.6611531428677515
299,2463.21,2.6301816190948104
300,2474.58,2.5836055792894497
301,2486.0099999999998,2.5803071487727154
302,2497.48,2.339161124448398
303,2503.24,2.5753426161565005
304,2511.88643,2.476046256489841
305,2514.79,2.4429529453943895
306,2520.5899999999997,2.523956307099383
307,2526.3999999999996,2.4721391366693846
308,2532.22,2.470967434104394
309,2543.91,2.423643368299458
310,2555.65,2.4936776418195645
311,2567.45,2.4638127225297226
312,2573.37,2.513284698614819
313,2585.25,2.492287522245046
314,2597.18,2.471473685200316
315,2603.17,2.4339059363404725
316,2615.18,2.4090708422158116
317,2627.25,2.4335205552812025
318,2633.31,2.450396081476419
319,2645.46,2.5081155374618787
320,2657.6699999999996,2.52451380063739
321,2663.8,2.3991176018876668
322,2676.1000000000004,2.446259075848255
323,2682.27,2.445004748558567
324,2694.65,2.3662209654392248
325,2707.0899999999997,2.3636729895099338
326,2713.33,2.3318159372753056
327,2725.8500000000004,2.3335997042660837
328,2732.1299999999997,2.36296652349149
329,2744.7500000000005,2.2364779691323537
330,2757.4100000000003,2.246300286233252
331,2763.77,2.2701158483787274
332,2776.5299999999997,2.310143844129712
333,2782.9300000000003,2.2577102777352214
334,2795.77,2.0868290164062753
335,2802.2200000000003,2.143689789336827
336,2815.15,2.2679347387929587
337,2828.1499999999996,2.29088096330415
338,2834.67,2.2136350112897625
339,2847.75,2.210928978721023
340,2854.32,2.1727373660316784
341,2867.49,2.244402544248016
342,2874.1,2.2346008030187066
343,2884.0315,2.22314616631704
344,2887.3700000000003,2.219543990668338
345,2894.02,2.2061747740991025
346,2907.38,2.2505786111870734
347,2927.5299999999997,2.2100131955675097
348,2947.8300000000004,2.170149955514053
349,2968.2599999999998,2.17559046761789
350,2988.8399999999997,2.1605341552878334
351,3009.5499999999997,2.1374775951150706
352,3030.41,2.1386792105084154
353,3051.42,2.1277610014678676
354,3072.57,2.11686775628902
355,3086.7499999999995,2.091017953138379
356,3108.15,2.0881030005697103
357,3129.69,2.057672011862742
358,3151.39,2.050779410426289
359,3173.23,2.0284477728515355
360,3187.88,1.977072919808031
361,3209.98,1.996620786547864
362,3232.23,1.9449338288538045
363,3247.1499999999996,1.9801376918292937
364,3269.66,1.9845872384498204
365,3292.32,1.9663709606364546
366,3307.52,1.9530317513353443
367,3311.31121,1.9676246952384058
368,3322.78,2.0123680415234135
369,3330.44,2.0156067641713697
370,3338.12,1.9501879534580933
371,3345.8199999999997,1.949500609383584
372,3353.53,1.9265659986284587
373,3361.2599999999998,1.944432854512101
374,3369.01,1.9105401770345107
375,3376.77,1.877334232876304
376,3384.56,1.9201754886762492
377,3392.3599999999997,1.9605234777955776
378,3400.18,1.9941939335536736
379,3408.02,1.903484855950537
380,3415.88,1.921152244986168
381,3423.75,1.996038367341183
382,3431.6400000000003,1.9876489563349653
383,3439.55,1.9831160119675149
384,3447.48,1.9000285342388323
385,3455.43,1.8884055231489172
386,3463.39,1.8518532453783858
387,3471.38,1.9052631675660057
388,3479.38,1.8646698230730092
389,3487.4,1.8461719452187804
390,3495.44,1.906841534003319
391,3503.5,1.880565589426625
392,3511.57,1.872621378169315
393,3519.6699999999996,1.8900463668701564
394,3527.7799999999997,1.8532640888903809
395,3535.92,1.914390010868757
396,3544.07,1.928593666166517
397,3552.24,1.9429597881030445
398,3560.43,1.9271743766783396
399,3568.6299999999997,1.8639876985730184
400,3576.86,1.7962552204258482
401,3585.11,1.7783452089174456
402,3593.3700000000003,1.8051419307284269
403,3601.65,1.8828831191781756
404,3609.96,1.8424055075860755
405,3618.2799999999997,1.8632336293133593
406,3626.62,1.9289862176794106
407,3634.98,1.8726432726842293
408,3643.36,1.9388947943278154
409,3649.6099999999997,1.848682118942662
410,3652.34,1.6295603151344271
411,3655.06,1.8704137780068084
412,3657.7799999999997,1.8651832408791895
413,3660.5,1.8863267037515707
414,3663.22,1.8389571666239521
415,3665.9399999999996,1.7509656294963332
416,3668.67,1.7386928256880982
417,3671.39,1.8153072885604793
418,3674.1099999999997,1.9196297514328606
419,3676.83,1.923050214305242
420,3679.5499999999997,1.775563677177623
421,3682.2700000000004,1.7882641400500041
422,3685.0,1.8688943362417694
423,3687.72,1.7986517991141506
424,3690.44,1.8335982619865319
425,3693.16,1.849305724858913
426,3695.88,1.8434471877312941
427,3698.6000000000004,1.8057746506036754
428,3701.33,1.8553238467954403
429,3704.0499999999997,1.7792783096678215
430,3706.77,1.796292772540203
431,3709.49,2.061222235412584
432,3712.21,2.2409076982849654
433,3714.9300000000003,2.7923101611573466
434,3717.66,4.249117357349111
435,3720.3799999999997,6.649239820221492
436,3723.1,8.980880283093875
437,3725.82,9.092684745966254
438,3728.54,6.993799208838636
439,3731.26,4.228852671711017
440,3733.99,2.768449867902783
441,3736.7099999999996,2.234322330775164
442,3739.4300000000003,1.924190793647545
443,3742.15,1.9090782565199262
444,3744.8700000000003,1.8974427193923074
445,3747.59,1.7924851822646888
446,3750.3199999999997,1.9081433784564539
447,3753.0400000000004,1.9813588413288348
448,3755.76,2.0405373042012163
449,3758.48,1.9363127670735973
450,3761.2000000000003,1.9980012299459786
451,3763.92,2.02040069281836
452,3766.65,1.9413908890101248
453,3769.3700000000003,1.9170243518825059
454,3772.09,2.009217814754887
455,3774.81,2.2059472776272684
456,3777.53,2.15047474049965
457,3780.25,2.113430203372031
458,3782.98,2.152992399563796
459,3785.7000000000003,2.059903862436177
460,3788.42,2.053679325308558
461,3791.14,1.9572967881809398
462,3793.86,1.8915242510533208
463,3796.58,1.935070713925702
464,3799.3100000000004,2.003335910117467
465,3801.8939600000003,2.0944199898541322
466,3802.03,2.0992203707608725
467,3804.75,2.1460037596637327
468,3807.47,2.1831941485665927
469,3810.19,2.112555537469453
470,3812.91,2.150163926372313
471,3815.6400000000003,2.118280415969669
472,3818.36,2.061495804872529
473,3821.08,2.0403921937753893
474,3823.8,2.084640582678249
475,3826.52,1.8959249715811093
476,3829.24,1.7975773604839693
477,3831.9700000000003,1.8744908500813253
478,3834.69,2.0140982389841855
479,3837.41,1.9504916278870454
480,3840.13,2.0291400167899054
481,3842.85,2.0694404056927658
482,3845.5699999999997,2.211243794595626
483,3848.3,2.2111732841929816
484,3851.02,2.1978076730958414
485,3853.74,2.290154061998702
486,3856.46,2.309438450901562
487,3859.18,2.381237839804422
488,3861.8999999999996,2.417199228707282
489,3864.63,2.562284718304638
490,3867.35,2.441300107207498
491,3870.0699999999997,2.314956496110358
492,3872.79,2.2328158850132183
493,3875.5099999999998,2.1383632739160783
494,3878.2299999999996,2.1157176628189385
495,3880.96,2.2133071524162946
496,3883.68,2.2569795413191547
497,3886.3999999999996,2.2614429302220147
498,3889.12,2.159356319124875
499,3891.8399999999997,2.0725627080277347
500,3894.5600000000004,2.089860096930595
501,3897.29,2.0479915865279508
502,3900.0099999999998,2.128625975430811
503,3902.73,2.257255364333671
504,3905.45,2.278264753236531
505,3908.17,2.237452142139391
506,3910.8900000000003,2.1999845310422512
507,3913.62,2.201691020639607
508,3916.3399999999997,2.189816409542467
509,3919.06,2.1500747984453272
510,3921.78,2.0327231873481875
511,3924.5,1.9552875762510475
512,3927.2200000000003,1.9532149651539075
513,3929.95,1.9003154547512635
514,3932.6699999999996,1.8655928436541236
515,3935.3900000000003,1.9894642325569836
516,3938.11,2.108865621459844
517,3940.8300000000004,2.0877620103627037
518,3943.55,2.1431983992655637
519,3946.2799999999997,2.1963238888629197
520,3948.9999999999995,2.1833762777657797
521,3951.7200000000003,2.07054666666864
522,3954.44,2.0738850555715
523,3957.1600000000003,1.97747144447436
524,3959.88,1.9527608333772204
525,3962.6099999999997,2.0187473229745763
526,3965.3300000000004,2.039364711877436
527,3968.05,2.027463100780296
528,3970.77,1.9763504896831563
529,3973.4900000000002,1.9832958785860164
530,3976.21,2.104266267488877
531,3978.94,2.1172397570862325
532,3981.6600000000003,2.1482081459890927
533,3984.38,2.1732165348919525
534,3987.1,2.2172289237948126
535,3989.82,2.229481312697673
536,3992.54,2.201032701600533
537,3995.2700000000004,2.2565621911978893
538,3997.9900000000002,2.292210580100749
539,4000.71,2.2704799690036093
540,4003.43,2.3174463579064692
541,4006.15,2.3068257468093294
542,4008.87,2.2991851357121895
543,4011.6000000000004,2.3893506253095453
544,4014.32,2.3678820142124053
545,4017.04,2.3300754031152655
546,4019.76,2.3938237920181256
547,4022.48,2.3457441809209856
548,4025.2,2.226458569823846
549,4027.9300000000003,2.3174860594212014
550,4030.65,2.3107864483240617
551,4033.37,2.2592298372269215
552,4036.09,2.2959232261297817
553,4038.81,2.3657366150326418
554,4041.5299999999997,2.328244003935502
555,4044.26,2.269566493532858
556,4046.98,2.2611678824357178
557,4049.7,2.2814182713385778
558,4052.42,2.331182660241438
559,4055.14,2.2663990491442982
560,4057.8599999999997,2.344681438047158
561,4060.59,2.3148099276445144
562,4063.31,2.4033393165473744
563,4066.0299999999997,2.2954507054502344
564,4068.75,2.3232310943530945
565,4071.47,2.291201483255955
566,4074.1899999999996,2.257654872158815
567,4076.92,2.2598323617561706
568,4079.64,2.277809750659031
569,4082.3599999999997,2.268469139561891
570,4085.08,2.198065528464751
571,4087.7999999999997,2.201560917367611
572,4090.5200000000004,2.233993306270471
573,4093.25,2.3081607958678267
574,4095.97,2.439169184770687
575,4098.69,2.6150335736735473
576,4101.41,2.522854962576407
577,4104.13,2.2612083514792674
578,4106.85,2.1478037403821273
579,4109.58,2.1747882299794834
580,4112.3,2.0984516188823434
581,4115.0199999999995,2.1325310077852038
582,4117.74,2.210786396688064
583,4120.46,2.167202785590924
584,4123.18,2.1867221744937835
585,4125.91,2.18103166409114
586,4128.63,2.1516160529939996
587,4131.349999999999,2.20856844189686
588,4134.070000000001,2.25982183079972
589,4136.79,2.2041872197025802
590,4139.51,2.15723160860544
591,4142.24,2.1931820982027963
592,4144.96,2.1572834871056563
593,4147.68,2.1989958760085164
594,4150.400000000001,2.2179142649113763
595,4153.12,2.2294596538142364
596,4155.84,2.3375430427170967
597,4158.57,2.245928532314452
598,4161.29,2.2955609212173123
599,4164.01,2.1707073101201724
