,lambda (Angstroms),Total Flux (erg/s/cm^2/Angstrom)
0,100.07000000000001,1.6991140866430487
1,101.93,1.694387305974928
2,104.06,1.688974379693743
3,104.712855,1.6873152924580375
4,106.0,1.670133228903591
5,107.97,1.6438357528528087
6,109.98,1.617004318818831
7,114.1,1.5620065533359773
8,118.11,1.5084771765085618
9,120.22644299999999,1.4802248705860939
10,120.86,1.4731342931753013
11,125.11,1.425569541303593
12,127.15,1.402738461407745
13,128.03,1.3928897640180682
14,131.01,1.3595384852724337
15,131.92000000000002,1.3493540566417912
16,134.06,1.32540381354058
17,136.87,1.2939551731506473
18,138.038426,1.2808785035306578
19,140.06,1.2647066443742583
20,142.98999999999998,1.2412683127775437
21,146.99,1.2092715472491307
22,151.10999999999999,1.176313490173956
23,154.99,1.1452754707023058
24,158.489319,1.1172827898527655
25,158.96,1.114436253969912
26,161.92000000000002,1.096535125845811
27,166.07,1.0714374066180274
28,169.94,1.0480330963088746
29,173.1,1.0289226360960375
30,177.13,1.0045508724490955
31,180.01,0.9871339406848894
32,181.970086,0.9752802375166294
33,182.1,0.9746808641593341
34,185.91,0.9571031777555378
35,191.12,0.9330665169409765
36,194.21999999999997,0.9187646950221399
37,197.82999999999998,0.9021101828198815
38,201.98000000000002,0.8829643988204707
39,204.79000000000002,0.8700008631443639
40,208.929613,0.8509023029410829
41,210.04,0.8470509348570985
42,215.92,0.8266591294131661
43,219.94,0.8127173661054777
44,223.0,0.8021045871384311
45,227.14000000000001,0.7877469852606624
46,229.77,0.7786457460097369
47,234.04999999999998,0.7638449839902078
48,239.88329199999998,0.7436413500194988
49,240.04999999999998,0.743196609185182
50,246.21,0.7267311321988352
51,251.94,0.711431307308938
52,257.21999999999997,0.6973000965920694
53,260.2,0.6893582512817911
54,263.82,0.6796955130209834
55,268.72,0.6666042407591165
56,273.72,0.6532454977143545
57,275.42287,0.6486959063636486
58,278.8,0.6417724509287225
59,283.99,0.6311325445482979
60,289.93,0.6189452341608754
61,296.01,0.6064840974468134
62,300.82,0.5966213811672678
63,307.82,0.5822722936352884
64,316.227766,0.5650384675166369
65,317.91,0.562463773979395
66,328.32,0.5465257684668592
67,338.3,0.5312435169252544
68,347.78000000000003,0.5167271485847319
69,356.7,0.5030671637854218
70,363.078055,0.49330134083384525
71,365.85,0.49012358836084363
72,375.23,0.4793662365497377
73,384.86,0.4683136349739434
74,394.73,0.4570034826040484
75,404.86,0.4453873990988775
76,414.29,0.43457018363483385
77,416.86938299999997,0.43161083867523453
78,421.99,0.42712462493789766
79,429.83,0.42025668441759784
80,440.86,0.4105964298281965
81,451.13,0.40159753516372215
82,459.52,0.3942468823556462
83,470.22,0.38487196773891047
84,478.630092,0.3775055502827736
85,480.06,0.3765424279086573
86,490.12,0.36975917739838216
87,500.38,0.36284993805728644
88,506.17,0.3589452987750307
89,512.04,0.3550072011004467
90,520.35,0.34940827800985164
91,530.03,0.3428834838381356
92,539.88,0.33623745227022206
93,549.5408739999999,0.32973120774729364
94,549.92,0.32953647618202525
95,560.14,0.32429660522009524
96,570.5600000000001,0.3189517577277947
97,579.83,0.31418306818512437
98,590.61,0.308654391558157
99,600.21,0.3037123027003753
100,609.96,0.2986765476448158
101,619.87,0.29364166558496
102,629.9399999999999,0.28846938642080777
103,630.957344,0.28794807397376976
104,640.1800000000001,0.284204903633011
105,650.58,0.2799789106789264
106,658.1099999999999,0.2769109606527479
107,665.7299999999999,0.27383306629677434
108,674.99,0.2700775784534259
109,684.38,0.2662352804781514
110,695.5,0.26177062378570715
111,705.18,0.25779354736998217
112,716.6400000000001,0.2532136142094235
113,724.43596,0.25005810779010995
114,726.61,0.2494064887470925
115,735.02,0.24688834117827363
116,745.2499999999999,0.24382705824367004
117,755.61,0.24072646386151025
118,764.36,0.23806058895292947
119,775.0,0.2349439327144952
120,785.78,0.23169026884792362
121,794.88,0.22900973741899958
122,804.0799999999999,0.22628267748426314
123,815.27,0.22294529411386088
124,824.71,0.22016204484517482
125,831.763771,0.217914524352374
126,834.26,0.2173098671794508
127,845.8599999999999,0.21492363044696577
128,855.6600000000001,0.21274584131952148
129,865.56,0.21060272024179721
130,875.59,0.20841515402870883
131,885.73,0.20621110647031243
132,895.98,0.20396991456660798
133,904.27,0.20212407808839233
134,914.74,0.20009841249407181
135,925.34,0.2039283417643872
136,936.05,0.2100360206893946
137,944.71,0.22168179259514278
138,954.992586,0.2310063158818944
139,955.65,0.23160568776903026
140,964.4899999999999,0.23409215617767792
141,975.66,0.19349856012389896
142,984.69,0.2204514211386148
143,996.09,0.2214951575027079
144,1005.31,0.24063157912349203
145,1014.6099999999999,0.23800076036788378
146,1024.0,0.20326253868883415
147,1035.86,0.21546057788867137
148,1045.44,0.25382510781568995
149,1055.11,0.2503311848192672
150,1064.8799999999999,0.22980190635235404
151,1074.73,0.24114333750904848
152,1084.6699999999998,0.22221353574230163
153,1094.71,0.2421487485050643
154,1096.4782,0.2412597977091993
155,1104.84,0.23739128393451614
156,1115.06,0.23224428412949075
157,1125.3799999999999,0.22206777906218528
158,1135.79,0.2414730602588277
159,1146.3,0.23176724619319006
160,1154.25,0.2362657528419227
161,1164.93,0.2368218628304089
162,1175.71,0.20496627755661498
163,1183.8600000000001,0.2315186636807875
164,1194.81,0.2019273324611175
165,1205.87,0.18315878445293932
166,1214.23,0.1703379385263236
167,1225.46,0.19870065457226926
168,1233.96,0.22929136727846147
169,1245.37,0.23653312585230302
170,1254.0100000000002,0.23020626719130305
171,1258.92541,0.2237084466974889
172,1265.6100000000001,0.2152195752173973
173,1274.3799999999999,0.2404263113722678
174,1286.17,0.24483084264546306
175,1295.0900000000001,0.21747403769693907
176,1304.07,0.21588033430705733
177,1316.13,0.2395886875941426
178,1325.26,0.23332863310086638
179,1334.44,0.2188695215731253
180,1343.6899999999998,0.23823837019713354
181,1356.1200000000001,0.2330684514291791
182,1365.52,0.21934222894979283
183,1374.99,0.22356316662215583
184,1384.52,0.22360885585316104
185,1394.1200000000001,0.20511861523591546
186,1403.78,0.20696031617731214
187,1413.51,0.21217916727045805
188,1426.5900000000001,0.21340150705446098
189,1436.48,0.21261930563731948
190,1443.11,0.2178486028672843
191,1445.43977,0.2188368042005191
192,1446.44,0.21930007230509166
193,1456.46,0.21500365221163809
194,1466.5600000000002,0.20543842078011304
195,1473.33,0.20554216129581362
196,1483.5400000000002,0.20728971427444026
197,1493.82,0.2083412573322544
198,1504.18,0.201339189051997
199,1511.12,0.18937232547429564
200,1518.1,0.19547559622755856
201,1525.1000000000001,0.19218436414630352
202,1535.68,0.1780076346863496
203,1546.32,0.18310500672284202
204,1553.46,0.17870119479996194
205,1564.23,0.1810866984120882
206,1575.0700000000002,0.1865860821034019
207,1585.99,0.19071709445664414
208,1593.31,0.19190035702310324
209,1604.35,0.18951992236923823
210,1615.47,0.18874973637730175
211,1626.67,0.18302815904729375
212,1634.18,0.18915066468583305
213,1645.51,0.18978255893145893
214,1653.1000000000001,0.18218968323192675
215,1659.58691,0.18633161252491864
216,1664.56,0.18964127160456523
217,1672.24,0.17773572356529715
218,1676.1000000000001,0.19062080686847754
219,1683.8400000000001,0.1943922507976527
220,1695.51,0.18720387865985869
221,1703.3300000000002,0.18293277188029144
222,1715.14,0.17677309100219823
223,1723.06,0.1758332608367031
224,1734.9999999999998,0.18186712255690352
225,1743.0100000000002,0.17927350034407313
226,1755.09,0.18514586332397445
227,1763.19,0.17640719906380892
228,1775.41,0.17722884330341104
229,1783.61,0.17926218565731755
230,1795.97,0.18528775115662052
231,1804.26,0.18426347146319183
232,1816.77,0.17484881688360288
233,1825.15,0.176878005142839
234,1833.58,0.1726403367091112
235,1846.29,0.16398820535766628
236,1854.8100000000002,0.16429227487660325
237,1863.3700000000001,0.16675559904116904
238,1876.29,0.1734110395792754
239,1884.95,0.16473956035791326
240,1893.65,0.1607909957821799
241,1905.46072,0.16527138965054125
242,1906.78,0.16579411222254195
243,1915.5800000000002,0.16168860531342372
244,1924.42,0.1591682077819913
245,1933.3,0.16194319962824474
246,1946.7,0.16574230115299654
247,1955.6899999999998,0.158770373787886
248,1969.2399999999998,0.16745269547895963
249,1973.78,0.17006904984630095
250,1982.8899999999999,0.16452080061424784
251,1996.64,0.1614174591937506
252,2005.86,0.1639141807503336
253,2015.11,0.1605639043401809
254,2024.41,0.16420452465213548
255,2033.76,0.15882114168619738
256,2043.1499999999999,0.1621898980979451
257,2057.31,0.15513148779872757
258,2066.81,0.1561991449991113
259,2076.35,0.16390079157718088
260,2085.93,0.16536246753293626
261,2095.56,0.15930688021079892
262,2105.23,0.15954354226634743
263,2114.95,0.1607108410440032
264,2124.71,0.1609616891993448
265,2134.52,0.15415919407679368
266,2144.37,0.15659709833192842
267,2154.27,0.1598252793091704
268,2164.21,0.15590484966409823
269,2174.2,0.15499132674113333
270,2184.2400000000002,0.1540745705402757
271,2187.7616199999998,0.15535548057073015
272,2194.3199999999997,0.1578390876439747
273,2204.45,0.15497695954874102
274,2214.62,0.14911044941759327
275,2224.8399999999997,0.14708784424155297
276,2235.1099999999997,0.15355951402062012
277,2245.43,0.14945150875479468
278,2255.8,0.14402430844407665
279,2266.21,0.14536431609744463
280,2276.67,0.14782052870592
281,2287.18,0.15102596626950282
282,2292.45,0.14454357053782646
283,2303.03,0.1463856370385597
284,2313.66,0.14128519849440038
285,2324.34,0.12370760490534846
286,2335.0699999999997,0.133284656271404
287,2345.85,0.12987036259256696
288,2356.67,0.1373638968778159
289,2367.5499999999997,0.12894122310919376
290,2373.01,0.13154767020692562
291,2383.96,0.12464337537545388
292,2394.97,0.12913254249011105
293,2406.02,0.12615054756885416
294,2417.13,0.1281889345937262
295,2422.7000000000003,0.13507077859269445
296,2433.88,0.1320474645547169
297,2445.12,0.13690777246286828
298,2456.4,0.1362076483351056
299,2467.74,0.13410636615347182
300,2473.4300000000003,0.13044910404469792
301,2484.85,0.12901136779123606
302,2496.3199999999997,0.12271332649288165
303,2507.84,0.13529923014963463
304,2511.88643,0.1259254025929746
305,2513.62,0.12192330324222891
306,2519.4100000000003,0.12322274987832438
307,2525.2200000000003,0.12118286007792967
308,2536.88,0.12397455760415993
309,2542.7300000000005,0.12297140493078487
310,2554.46,0.13181779992929954
311,2566.25,0.1269466256183437
312,2572.1699999999996,0.13250900041725305
313,2584.0400000000004,0.13029727036033648
314,2595.9700000000003,0.12793767099394943
315,2607.95,0.12450869553633695
316,2613.96,0.12256790137104054
317,2626.0299999999997,0.1275907369492223
318,2632.08,0.13580591991094554
319,2644.23,0.1468758797431666
320,2656.44,0.15512972026591715
321,2662.56,0.1374329306999248
322,2674.85,0.14329906547671464
323,2687.2000000000003,0.14567844094403398
324,2693.39,0.13667731885032605
325,2705.8199999999997,0.1420823885716847
326,2712.06,0.1327199003867513
327,2724.58,0.1302182811439042
328,2737.1600000000003,0.13592435259158658
329,2743.4700000000003,0.1191074818789376
330,2756.13,0.12332967758065932
331,2762.48,0.12893145399502998
332,2775.23,0.13309602073254592
333,2788.04,0.12217642816059134
334,2794.47,0.10495991882900133
335,2807.3700000000003,0.10922474729284097
336,2813.84,0.1294669550882706
337,2826.8300000000004,0.14049891458790448
338,2833.35,0.13738639629210875
339,2846.42,0.13121023004578192
340,2852.9900000000002,0.12100322565876072
341,2866.15,0.14101070044822814
342,2872.7599999999998,0.14675894318822658
343,2884.0315,0.14321679577570684
344,2886.0200000000004,0.14260551903629926
345,2892.67,0.14623768814547125
346,2912.73,0.16189928368381568
347,2932.92,0.15392443801677552
348,2953.25,0.15053748643624426
349,2966.88,0.1546961892870735
350,2987.44,0.1547853494200925
351,3008.15,0.1570930389315139
352,3029.0,0.1580312225294442
353,3050.0,0.15955883550577687
354,3071.14,0.16198844256861844
355,3092.43,0.16269337900986236
356,3106.7,0.1667866405418751
357,3128.24,0.16328185928045627
358,3149.92,0.16280307210554637
359,3171.76,0.16656224960093235
360,3186.39,0.15578728164111078
361,3208.48,0.16380974143383403
362,3230.7200000000003,0.15147393060495967
363,3253.12,0.17061258444638117
364,3268.13,0.1818412575785123
365,3290.7799999999997,0.17926499371727111
366,3311.31121,0.17727794335750546
367,3313.6,0.17706742574066148
368,3321.24,0.17772369322758597
369,3328.89,0.18607594404891742
370,3336.56,0.1885934615390628
371,3344.26,0.1773210290324291
372,3351.9700000000003,0.1719754798602024
373,3359.69,0.18637071402238264
374,3367.44,0.18104189818778377
375,3375.2,0.1588009656875919
376,3382.98,0.16330619985621395
377,3390.7799999999997,0.18486560069364993
378,3398.6,0.18628786819989987
379,3406.43,0.18164371904055676
380,3414.28,0.1823270365500276
381,3422.1600000000003,0.1940154040627194
382,3430.04,0.18514067157541111
383,3437.9500000000003,0.18548148909132375
384,3445.88,0.15529037327605036
385,3453.82,0.19094804079518393
386,3461.7799999999997,0.17065797498313143
387,3469.76,0.17766957583989287
388,3477.7599999999998,0.16801724336546825
389,3485.78,0.17591957755985754
390,3493.81,0.17055879508865385
391,3501.8700000000003,0.17621436262067106
392,3509.9399999999996,0.1817478134870952
393,3518.0299999999997,0.17081343102233332
394,3526.14,0.17046221522638536
395,3534.27,0.18490656609925135
396,3542.42,0.19807498364093123
397,3550.58,0.19611258451701813
398,3558.77,0.18814883539632593
399,3566.97,0.19454226961004067
400,3575.1899999999996,0.1673813704925694
401,3583.44,0.159215521378319
402,3591.7,0.1561829555984756
403,3599.98,0.1921913564874461
404,3605.93,0.07452718045959278
405,3608.6800000000003,0.2592323574215093
406,3611.42,0.2118896910490189
407,3614.17,0.11061790801093542
408,3616.91,0.108156841638445
409,3619.6600000000003,0.26986575860036155
410,3622.4,0.2122134922278711
411,3625.1499999999996,0.10991614918978765
412,3627.89,0.3638809428172972
413,3630.64,-0.03913204022078626
414,3633.3900000000003,0.04213684674113027
415,3636.13,0.17793831036863986
416,3638.88,0.31210612733055637
417,3641.62,0.4914569609580659
418,3644.37,0.1869672779199825
419,3647.11,0.05339300154749205
420,3649.8599999999997,0.30362212850940856
421,3652.6,0.31062886213691815
422,3655.35,0.4766162790988347
423,3658.1000000000004,0.1870814960607512
424,3660.84,0.2117831296882608
425,3663.5899999999997,0.17360124665017732
426,3666.33,0.2873100802776869
427,3669.08,0.29066499723960343
428,3671.82,0.08671474086711299
429,3674.5699999999997,0.23050824782902954
430,3677.31,0.0919971514565391
431,3680.06,-0.010335991581544367
432,3682.8100000000004,0.14020231538037217
433,3685.55,0.05425562900788174
434,3688.2999999999997,0.11828633596979829
435,3691.04,0.07772097959730784
436,3693.79,0.2291729165592244
437,3696.53,0.3390182501867339
438,3699.2799999999997,0.2544402671486505
439,3702.02,0.07669017077616005
440,3704.77,0.18131251773807658
441,3707.5200000000004,0.20272913469999312
442,3710.26,0.1716593683275027
443,3713.0099999999998,0.16331338528941922
444,3715.75,0.3036109189169288
445,3718.5,0.36350013587884533
446,3721.2400000000002,0.18779836950635492
447,3723.99,0.21971378646827144
448,3726.7400000000002,0.12967320343018796
449,3729.48,0.14416273705769755
450,3732.2300000000005,0.20612155401961407
451,3734.9700000000003,0.21122348764712365
452,3737.72,0.1753245046090402
453,3740.46,0.14770933823654975
454,3743.21,0.01763151619846628
455,3745.9500000000003,0.14527708882597584
456,3748.7,0.19773220578789238
457,3751.4500000000003,0.2323820227498089
458,3754.19,0.35142575637731854
459,3756.9399999999996,0.28033747333923503
460,3759.6800000000003,0.2067113069667446
461,3762.43,0.23653302392866113
462,3765.17,0.19655765755617072
463,3767.92,0.23389937451808723
464,3770.6600000000003,0.1597420081455968
465,3773.41,0.14369902510751334
466,3776.16,0.21168844206942988
467,3778.9,0.31410507569693946
468,3781.6499999999996,0.340264092658856
469,3784.3900000000003,0.24381562628636555
470,3787.14,0.1741680432482821
471,3789.88,0.25049657687579163
472,3792.63,0.2481749938377082
473,3795.3700000000003,0.24737452746521776
474,3798.12,0.24824534442713428
475,3800.87,0.31089966138905084
476,3801.8939600000003,0.3209134048230779
477,3803.61,0.33770110149485133
478,3806.3599999999997,0.34665032349353864
479,3809.1000000000004,0.2467441283213216
480,3811.85,0.3061911503200089
481,3814.59,0.3225399551477919
482,3817.34,0.31702297714647915
483,3820.08,0.16127788197426213
484,3822.83,0.11777053397294943
485,3825.58,0.15649502597163673
486,3828.32,0.16701423079941968
487,3831.0699999999997,0.12115693279810696
488,3833.8100000000004,0.11651385762588995
489,3836.56,0.20261077962457724
490,3839.2999999999997,0.2473547844523602
491,3842.05,0.09993438645104749
492,3844.79,0.20416691127883047
493,3847.54,0.25494653327751776
494,3850.29,0.2646894552762051
495,3853.03,0.263501660103988
496,3855.7799999999997,0.2195057821026753
497,3858.5199999999995,0.1102785269304583
498,3861.27,0.2937937089291456
499,3864.0099999999998,0.27053421375692854
500,3866.76,0.2710541357556158
501,3869.5,0.19818794058339884
502,3872.25,0.1783026625820861
503,3875.0,0.1510500845807734
504,3877.7400000000002,0.2251108894085564
505,3880.49,0.13708771140724366
506,3883.2299999999996,0.22389971623502666
507,3885.98,0.21365853823371392
508,3888.72,0.13888164306149692
509,3891.4700000000003,0.1031141650601842
510,3894.21,0.2711998698879672
511,3896.96,0.20998479188665445
512,3899.71,0.31399031388534177
513,3902.4500000000003,0.2470268187131247
514,3905.2,0.163947740711812
515,3907.9399999999996,0.23791714553959498
516,3910.69,0.22631476753828228
517,3913.43,0.17505027236606524
518,3916.1800000000003,0.23935009436475255
519,3918.92,0.33230299919253553
520,3921.67,0.32549192119122283
521,3924.42,0.1503477431899101
522,3927.1600000000003,0.23551774801769307
523,3929.91,0.23928497001638036
524,3932.6499999999996,0.17639867484416333
525,3935.4,0.20279929684285064
526,3938.14,0.28625430167063365
527,3940.8900000000003,0.18417362366932089
528,3943.63,0.19726262849710385
529,3946.38,0.15941965049579115
530,3949.13,0.25961037249447844
531,3951.87,0.24291847732226143
532,3954.62,0.29002339932094867
533,3957.3599999999997,0.21690100414873167
534,3960.11,0.23202762614741898
535,3962.85,0.28492653097520193
536,3965.6000000000004,0.18223545297388924
537,3968.35,0.17849507497257655
538,3971.0899999999997,0.1378207798003595
539,3973.84,0.2098603017990468
540,3976.58,0.2326118066268298
541,3979.33,0.20181882862551706
542,3982.0699999999997,0.21771573345330003
543,3984.82,0.2929719554519873
544,3987.56,0.2949703602797703
545,3990.3100000000004,0.2868958822784576
546,3993.06,0.3088832042771449
547,3995.7999999999997,0.33563920910492784
548,3998.55,0.31394073110361514
549,4001.29,0.35792203593139815
550,4004.04,0.3025727579300854
551,4006.7799999999997,0.25091166275786836
552,4009.53,0.20938798475655565
553,4012.27,0.13342078958433864
554,4015.0200000000004,0.16127431158302596
555,4017.77,0.23314903358171324
556,4020.5099999999998,0.2221154384094962
557,4023.26,0.1918962604081835
558,4026.0,0.22970606523596648
559,4028.75,0.30561528723465375
560,4031.49,0.32707309206243673
561,4034.2400000000002,0.259296314061124
562,4036.98,0.221570418888907
563,4039.7300000000005,0.2547829408875943
564,4042.48,0.28029836288628157
565,4045.22,0.30232976771406456
566,4047.9700000000003,0.23977198971275185
567,4050.71,0.2246670945405348
568,4053.46,0.27766231653922213
569,4056.2,0.3562893213670051
570,4058.9500000000003,0.30371734336569234
571,4061.69,0.24000094819347534
572,4064.44,0.23304977019216264
573,4067.19,0.21649109219084994
574,4069.93,0.2528970970186329
575,4072.6800000000003,0.3045189190173202
576,4075.42,0.25855892384510315
577,4078.17,0.25151004584379044
578,4080.91,0.21618895067157343
579,4083.66,0.21228377267026072
580,4086.4,0.2951832774980437
581,4089.1499999999996,0.327785399496731
582,4091.9,0.30747252149541826
583,4094.64,0.29874032632320124
