,lambda (Angstroms),Total Flux (erg/s/cm^2/Angstrom)
0,102.00000000000001,13.550426345698531
1,103.9,13.511808178417564
2,104.712855,13.495286617828034
3,106.07000000000001,13.350389451035282
4,108.05,13.138992466511498
5,110.05,12.925460217154047
6,113.91999999999999,12.512275283363893
7,117.92,12.08521080041199
8,120.22644299999999,11.838962535662377
9,120.95,11.774195911634855
10,124.91,11.419728550238002
11,126.94,11.238019218345952
12,128.12,11.132395150168476
13,131.1,10.865649530436611
14,132.01,10.784194626712692
15,133.85,10.619492779400407
16,136.96,10.341112339401125
17,138.038426,10.244580499794381
18,140.15,10.10947896606082
19,143.09,9.921395564292178
20,147.10000000000002,9.664888492168728
21,150.87,9.423688727735982
22,155.1,9.153059867308551
23,158.489319,8.936219445913745
24,159.07999999999998,8.90764987652511
25,162.02999999999997,8.7649667521988
26,166.19,8.563762322920004
27,170.06,8.376583582086841
28,172.82,8.243094893766298
29,176.85,8.048178982149336
30,180.14,7.889053802207453
31,181.8,7.808768780025529
32,181.970086,7.800542441431517
33,186.04,7.650374411732541
34,190.81,7.474380216364251
35,193.91,7.36000401075446
36,197.97,7.210205155015832
37,202.12,7.057088974349499
38,204.93,6.953415432206754
39,208.929613,6.805832620685683
40,210.19,6.770868827437117
41,216.07999999999998,6.607525552230464
42,220.09,6.496309274470247
43,223.15,6.411432780665941
44,226.78,6.31076348074809
45,229.94,6.2234220879168465
46,234.21,6.10557879990659
47,239.88329199999998,5.948576690753391
48,240.22000000000003,5.94140155948917
49,245.80999999999997,5.821830112035929
50,252.11999999999998,5.687103990136119
51,256.81,5.586544375491093
52,259.78000000000003,5.523348966523986
53,264.0,5.433267256267695
54,268.91,5.3283289192917715
55,273.90999999999997,5.221461764135028
56,275.42287,5.189126477214932
57,279.0,5.130455425329319
58,284.19,5.045335860017611
59,290.14000000000004,4.947637342947345
60,296.21000000000004,4.848116719494151
61,301.03000000000003,4.769024148946474
62,308.04,4.654070879660331
63,316.227766,4.519810212972048
64,318.13,4.496517607600856
65,327.79999999999995,4.378051307121889
66,337.76,4.2560015017299015
67,348.02,4.130269101289962
68,356.95,4.020848110795942
69,363.078055,3.9457722056312776
70,366.09999999999997,3.9180494189461337
71,374.63000000000005,3.8397563167424176
72,385.13,3.743297653559651
73,395.01,3.6526992279895807
74,405.14,3.5597458514627784
75,413.62,3.4818931000504096
76,416.86938299999997,3.4520571094561183
77,422.28000000000003,3.414112593287268
78,430.14,3.3589932581848574
79,441.17,3.28168649171417
80,451.45,3.2095946796082173
81,459.84,3.150744552141394
82,469.47,3.0832212502182097
83,478.630092,3.0190153291234165
84,480.4,3.009473888634158
85,490.46,2.955173777458889
86,499.58000000000004,2.9060244482164985
87,506.53,2.868528101893624
88,512.4,2.837139729046822
89,519.52,2.79874815127864
90,530.4,2.7400587197789457
91,540.26,2.686810547951098
92,549.5408739999999,2.636874156002666
93,550.31,2.6337190223523543
94,560.54,2.5917864943717834
95,569.65,2.554433805735126
96,580.24,2.5108102304297253
97,589.67,2.4722027588376645
98,600.63,2.4270880706150786
99,610.39,2.386895562475257
100,620.3100000000001,2.3465416648577335
101,630.38,2.3052013163548652
102,630.957344,2.3028315719050854
103,640.63,2.271373174206941
104,649.54,2.2425127798998887
105,658.58,2.2131188787488494
106,664.67,2.1934562320574975
107,675.4699999999999,2.158330635018646
108,684.8700000000001,2.1275730932996457
109,694.39,2.0972663647246583
110,705.6800000000001,2.060200231273859
111,715.49,2.0289907250469024
112,724.43596,2.0000088639555638
113,725.4499999999999,1.9975755891766478
114,735.54,1.9733697142962567
115,745.7700000000001,1.9490589410181196
116,754.41,1.9284726373286671
117,764.9,1.903147204740431
118,775.54,1.8781655435117528
119,784.52,1.8567000975706316
120,795.44,1.830780142546462
121,804.65,1.8089185010233302
122,815.84,1.782209224446365
123,825.2900000000001,1.760084853098526
124,831.763771,1.7433930027677418
125,834.84,1.7373410162243748
126,844.51,1.7219875059857581
127,854.2900000000001,1.7046247646896173
128,864.18,1.6875737963359547
129,874.1899999999999,1.670236016101357
130,884.31,1.6528404408092368
131,894.5500000000001,1.6350462536361816
132,904.91,1.6164647745821927
133,915.39,1.6022379436472698
134,925.99,1.6683690608314123
135,934.56,1.7713894531680257
136,945.38,1.944348310237122
137,954.13,2.100974339752334
138,954.992586,2.104189640549264
139,965.1700000000001,2.142523708249672
140,974.0999999999999,1.5857466612501185
141,985.38,1.9817899229348928
142,994.5,2.0082743494034334
143,1006.02,2.2726472038900116
144,1015.3299999999999,2.234880303826647
145,1024.72,1.7610210346972166
146,1034.2,1.9471967003684632
147,1046.18,2.467151932725165
148,1055.86,2.4246220757312473
149,1065.63,2.1632572535380064
150,1075.49,2.317080566145442
151,1085.44,2.0753154135535543
152,1095.48,2.3370899957623426
153,1096.4782,2.3310326859259156
154,1105.62,2.2784902552911146
155,1115.8500000000001,2.2173037786172283
156,1126.1699999999998,2.093385403321579
157,1133.98,2.34198220069958
158,1144.47,2.2198405168961526
159,1155.06,2.2729169457352096
160,1165.75,2.2881394872167506
161,1173.83,1.9079846887294585
162,1184.69,2.2249508217032217
163,1195.65,1.8625385673194694
164,1203.94,1.637995005381394
165,1215.0800000000002,1.4726391537541128
166,1226.32,1.8267035147693158
167,1234.82,2.201111789380457
168,1246.25,2.294491164416379
169,1254.8899999999999,2.220258896726998
170,1258.92541,2.1367202508280014
171,1263.59,2.0420971461062756
172,1275.28,2.339415803998538
173,1284.12,2.3961511637733546
174,1296.0,2.071599574873447
175,1304.99,2.0523620029702343
176,1314.03,2.3303567871743445
177,1326.1899999999998,2.2535539924754495
178,1335.3799999999999,2.089829845001531
179,1344.64,2.3113203960778654
180,1353.9599999999998,2.2550839744829885
181,1366.49,2.092413014978288
182,1375.96,2.1437906617053817
183,1385.5,2.1453850069827287
184,1395.1,1.951909379588864
185,1404.77,1.9793734507452523
186,1414.51,2.018686220451894
187,1424.31,2.0381180174873235
188,1434.1899999999998,2.0252091842944715
189,1440.81,2.0853815329041185
190,1445.43977,2.096751525553064
191,1447.46,2.1023430390905267
192,1454.1399999999999,2.057237020031664
193,1464.22,1.9495437337871522
194,1474.3700000000001,1.9448259802770538
195,1484.5900000000001,1.9611627595013683
196,1494.88,1.9752130714600962
197,1505.24,1.8993699161532374
198,1512.1899999999998,1.7692410376413967
199,1515.67,1.8370782935807912
200,1526.18,1.805508994133389
201,1536.76,1.6588159274203997
202,1543.85,1.7419110143773853
203,1554.5500000000002,1.6794260323519612
204,1565.3300000000002,1.695346973451581
205,1576.18,1.7671049472856137
206,1583.45,1.8177495612739472
207,1594.43,1.8401694101861756
208,1605.48,1.8068537918328174
209,1616.61,1.7963154966045027
210,1624.07,1.7254861280148146
211,1635.3300000000002,1.7928701078646954
212,1646.67,1.81540341083962
213,1654.27,1.7060781077187583
214,1659.58691,1.7552608185652303
215,1665.73,1.8134128712448625
216,1673.4199999999998,1.6582619072932454
217,1677.28,1.8611567010704568
218,1685.0200000000002,1.910512389628907
219,1696.6999999999998,1.808304575980677
220,1704.53,1.7628468190572488
221,1716.3500000000001,1.7193103124372078
222,1724.27,1.7128561100319013
223,1736.22,1.7909979599380357
224,1744.24,1.7581652625528639
225,1756.3300000000002,1.8434024194871874
226,1764.4299999999998,1.712400326118124
227,1776.6599999999999,1.7547967900806367
228,1784.8700000000001,1.7637811522337212
229,1793.1,1.8674574153908332
230,1805.53,1.8354358893936158
231,1813.87,1.7517806080728764
232,1826.44,1.7533963891038478
233,1834.8700000000001,1.6944726623012296
234,1843.34,1.5930887375066658
235,1856.12,1.6124524790799208
236,1864.69,1.6567740593054916
237,1873.29,1.7164814910371033
238,1886.28,1.633496193152642
239,1894.98,1.607198129904388
240,1903.7299999999998,1.6420548191662023
241,1905.46072,1.6382597779900765
242,1916.93,1.6146578489776093
243,1925.77,1.584798733066064
244,1934.66,1.5649241153676887
245,1943.5900000000001,1.662649696239849
246,1957.07,1.597366614510479
247,1966.1000000000001,1.7017871918089793
248,1975.17,1.7174319676780159
249,1984.29,1.6553732417602225
250,1993.45,1.621201714412965
251,2007.27,1.6288098205331507
252,2016.53,1.5901242896122332
253,2025.84,1.6168322569044855
254,2035.19,1.5857034227672742
255,2044.59,1.6356620868432326
256,2054.02,1.563929649847093
257,2063.5,1.5604217110641234
258,2073.0299999999997,1.6649152704943238
259,2077.81,1.636459499673375
260,2087.4,1.6622928569593793
261,2097.03,1.5930454128159197
262,2106.71,1.5742564668856303
263,2116.44,1.5858590191685107
264,2126.21,1.6002517700219272
265,2136.02,1.4927807194458795
266,2145.88,1.5422601670830018
267,2155.79,1.5738571129332943
268,2165.74,1.5201492573541224
269,2175.73,1.511586600345487
270,2185.7799999999997,1.5054337411926553
271,2187.7616199999998,1.5154678627441505
272,2195.86,1.5574440645815515
273,2206.0,1.5197325444278067
274,2216.1800000000003,1.4478360103878538
275,2226.41,1.418078358990141
276,2236.69,1.5061963902346678
277,2247.01,1.4498088075929867
278,2257.38,1.3917202075935455
279,2262.5899999999997,1.4088525989149447
280,2273.03,1.4418427746146394
281,2283.52,1.4785636329565741
282,2294.06,1.4047344739407486
283,2304.65,1.421587797567163
284,2315.29,1.370760603835817
285,2325.98,1.1526621927467113
286,2336.71,1.2759374677713975
287,2347.5,1.2241771219667716
288,2352.91,1.3332283438571306
289,2363.77,1.2216959737516406
290,2374.6800000000003,1.2644311862883904
291,2385.64,1.1673590814673802
292,2396.66,1.228065055817058
293,2407.7200000000003,1.1963735162805276
294,2413.27,1.2198637895691584
295,2424.41,1.299997322260212
296,2435.6,1.2655219375935054
297,2446.84,1.3180574355690386
298,2452.48,1.3087143776137014
299,2463.7999999999997,1.2965502478168185
300,2475.17,1.2516910006621755
301,2486.6,1.2601318326782205
302,2492.33,1.192691843478915
303,2503.8300000000004,1.3275827511940959
304,2511.88643,1.2271665204115672
305,2515.3900000000003,1.1837212264044523
306,2527.0,1.156797414609026
307,2532.83,1.1746777454645527
308,2544.52,1.1661851112794936
309,2556.26,1.2446823506009144
310,2562.16,1.2083084243655127
311,2573.98,1.2680098412973007
312,2585.8599999999997,1.2525176664368645
313,2597.8,1.2310935997842036
314,2603.7900000000004,1.194954885860465
315,2615.81,1.1708932968181718
316,2627.88,1.2387936812823581
317,2633.94,1.2824502102676911
318,2646.1,1.3934099070435408
319,2652.2000000000003,1.4298980748340575
320,2664.44,1.2953485492202745
321,2676.7400000000002,1.3510266318142672
322,2682.91,1.3529387425138555
323,2695.29,1.2864365027182156
324,2707.73,1.3257723711303513
325,2713.97,1.2568933247390113
326,2726.5,1.2516618054628101
327,2732.79,1.3058111325779496
328,2745.4,1.134621190912116
329,2758.07,1.1696487574540582
330,2764.43,1.213080927478269
331,2777.19,1.2626742063318743
332,2783.59,1.1713007151612689
333,2796.44,0.9581395063265378
334,2802.8900000000003,1.011293088662412
335,2815.82,1.2402383574380482
336,2822.31,1.3245584785791062
337,2835.34,1.2892165943677019
338,2841.88,1.2532592890152392
339,2854.9999999999995,1.1951730171154984
340,2868.17,1.3166512187222368
341,2874.79,1.3232013909801417
342,2884.0315,1.3160183995040413
343,2888.0499999999997,1.3131151984945775
344,2894.7099999999996,1.3060228440729296
345,2908.0699999999997,1.4210828658337076
346,2928.23,1.365337090287097
347,2948.5299999999997,1.3455208718547462
348,2968.9700000000003,1.372359210536655
349,2989.55,1.3771741063328238
350,3010.27,1.392187559243252
351,3031.14,1.3894602519189585
352,3052.15,1.3918765017089245
353,3073.2999999999997,1.4046373086131503
354,3087.49,1.4150149904084677
355,3108.8900000000003,1.4148948635881569
356,3130.44,1.3938589765331246
357,3152.14,1.4041373292433703
358,3166.6899999999996,1.4093315864753555
359,3188.64,1.339931005461065
360,3210.7400000000002,1.3854456642120523
361,3232.9999999999995,1.3195472453793369
362,3247.92,1.406201760699008
363,3270.44,1.4550090907927746
364,3293.1,1.446700978000801
365,3308.3,1.4439016075489914
366,3311.31121,1.4460839644093575
367,3323.58,1.4554471240751916
368,3331.24,1.4557463687033374
369,3338.92,1.3933897471294676
370,3346.6099999999997,1.4647511924545904
371,3354.33,1.4126118384766904
372,3362.06,1.3782615513977825
373,3369.81,1.4322113981168594
374,3377.58,1.3813433786339213
375,3385.36,1.4001734260499752
376,3393.1699999999996,1.4750886741630063
377,3400.99,1.5549199891750296
378,3408.83,1.4308394379850378
379,3416.69,1.4394080205930306
380,3424.57,1.5170627369990084
381,3432.46,1.5595035203039784
382,3440.37,1.491391437406933
383,3448.3,1.3914304883078723
384,3456.25,1.4242226730067964
385,3464.2200000000003,1.3602419915037052
386,3472.21,1.4724834437985985
387,3480.21,1.3764209629924844
388,3488.23,1.441971615984355
389,3496.2700000000004,1.4145824027742102
390,3504.33,1.4708653233620503
391,3512.4100000000003,1.434432377747875
392,3520.51,1.4859375659316845
393,3528.6299999999997,1.3725278879134788
394,3536.7599999999998,1.4663912767942653
395,3544.91,1.5104417994730364
396,3553.08,1.5257134559497922
397,3560.4,1.5457404260121979
398,3563.06,1.736126221144165
399,3565.72,1.7015260162761319
400,3568.3900000000003,1.3886578783070913
401,3571.05,1.3971606734390583
402,3573.71,1.6306724685710257
403,3576.37,1.6101262637029925
404,3579.03,1.2728710588349594
405,3581.69,1.1351204539669266
406,3584.35,1.3111626490988937
407,3587.0099999999998,1.3114924442308606
408,3589.6699999999996,1.501469239362828
409,3592.3300000000004,1.4026500344947948
410,3594.9900000000002,1.5394708296267618
411,3597.65,1.436553624758729
412,3600.31,1.429170419890696
413,3602.97,1.4575362150226632
414,3605.63,1.41645201015463
415,3608.29,1.227040805286597
416,3610.95,1.4124126004185644
417,3613.6099999999997,1.3681223955505313
418,3616.27,1.5607501906824983
419,3618.9300000000003,1.2324129858144652
420,3621.59,1.2476417809464322
421,3624.25,1.3209665760783995
422,3626.91,1.4639103712103665
423,3629.5699999999997,1.4389781663423336
424,3632.23,1.5159669614743008
425,3634.89,1.4003457566062676
426,3637.5499999999997,1.4686565517382346
427,3640.21,1.5376423468702016
428,3642.88,1.5124602089011612
429,3645.54,1.3002930040331282
430,3648.2,1.5578147991650952
431,3650.86,1.5768515942970622
432,3653.52,1.4732593894290293
433,3656.18,1.4856671845609966
434,3658.8399999999997,1.4703049796929635
435,3661.4999999999995,1.5508127748249305
436,3664.1600000000003,1.5449485699568974
437,3666.82,1.3193293650888647
438,3669.48,1.5216001602208318
439,3672.14,1.5886809553527987
440,3674.7999999999997,1.625628750484766
441,3677.46,1.6021185456167328
442,3680.12,1.5584553407486998
443,3682.7799999999997,1.5416701358806668
444,3685.4399999999996,1.472862931012634
445,3688.1000000000004,1.663417726144601
446,3690.76,1.4225395212765681
447,3693.42,1.490802316408535
448,3696.08,1.4717991115405022
449,3698.74,1.4442389066724692
450,3701.4,1.3408637018044363
451,3704.06,1.3616354969364033
452,3706.72,1.4685172920683705
453,3709.38,1.4093050872003374
454,3712.04,1.5422208823323045
455,3714.7000000000003,1.6976286774642715
456,3717.36,2.4065454725962385
457,3720.0299999999997,3.265894334627198
458,3722.69,3.893618129759165
459,3725.35,3.651341924891132
460,3728.0099999999998,2.815325720023099
461,3730.6699999999996,2.026414515155066
462,3733.3300000000004,1.6168633102870331
463,3735.9900000000002,1.5583261054190003
464,3738.65,1.5293679005509673
465,3741.31,1.5541896956829344
466,3743.97,1.4809484908149013
467,3746.63,1.5955192859468683
468,3749.29,1.6728450810788353
469,3751.95,1.6976198762108026
470,3754.6099999999997,1.6238236713427696
471,3757.27,1.6423064664747367
472,3759.9300000000003,1.7442692616067035
473,3762.59,1.5097070567386708
474,3765.25,1.6116938518706379
475,3767.91,1.6682176470026049
476,3770.5699999999997,1.609004442134572
477,3773.23,1.817302237266539
478,3775.89,1.959523032398506
479,3778.55,1.939845827530473
480,3781.21,1.96464462266244
481,3783.87,1.8719714177944071
482,3786.53,1.7989472129263742
483,3789.19,1.5116390080583413
484,3791.85,1.3998258031903084
485,3794.5099999999998,1.5226175983222754
486,3797.18,1.6331784603532349
487,3799.8399999999997,1.6119102554852018
488,3801.8939600000003,1.8095118596090547
489,3802.4999999999995,1.8678324517012408
490,3805.1600000000003,2.07383923363875
491,3807.82,1.8989160155762599
492,3810.48,1.9408537975137694
493,3813.14,1.9211515794512788
494,3815.7999999999997,1.8969653613887885
495,3818.46,1.964553143326298
496,3821.12,1.8627689252638076
497,3823.7799999999997,1.562587707201317
498,3826.44,1.5448864891388265
499,3829.1,1.4508402710763362
500,3831.76,1.3770190530138458
501,3834.42,1.4620358349513551
502,3837.08,1.7579106168888647
503,3839.74,1.7944483988263742
504,3842.4,1.7890901807638837
505,3845.06,2.1105899627013933
506,3847.7200000000003,2.024860744638903
507,3850.38,2.0148495265764126
508,3853.04,1.955299308513922
509,3855.7000000000003,2.0999310904514314
510,3858.36,2.035848872388941
511,3861.02,2.0907566543264506
512,3863.68,1.9894294362639604
513,3866.3399999999997,2.19379721820147
514,3869.0,2.0182230001389794
515,3871.6600000000003,1.850024782076489
516,3874.3300000000004,1.8237559015400793
517,3876.9900000000002,1.7574326834775889
518,3879.65,1.6819724654150985
519,3882.31,1.551959247352608
520,3884.97,1.4663260292901175
521,3887.63,1.514772811227627
522,3890.29,1.8428535931651366
523,3892.95,1.8894923751026462
524,3895.61,2.0396201570401558
525,3898.27,2.175861938977665
526,3900.9300000000003,2.1856427209151748
527,3903.59,2.1682065028526845
528,3906.25,2.023440284790194
529,3908.91,2.1196170667277037
530,3911.5699999999997,2.211624848665213
531,3914.23,2.0281196306027227
532,3916.89,2.0696714125402322
533,3919.55,2.024320194477742
534,3922.21,2.074550976415251
535,3924.87,1.7819157583527607
536,3927.53,1.5816805402902703
537,3930.19,1.73824432222778
538,3932.85,1.7304511041652895
539,3935.5099999999998,1.7073018861027989
540,3938.1699999999996,1.8162076680403085
541,3940.8300000000004,2.119459449977818
542,3943.4900000000002,2.237646231915327
543,3946.15,2.228985013852837
544,3948.81,2.1839467957903467
545,3951.48,2.136101915253937
546,3954.14,2.0781186971914467
547,3956.7999999999997,1.7907394791289561
548,3959.46,1.5740642610664657
549,3962.12,1.5343060430039752
550,3964.7799999999997,1.4865438249414848
551,3967.44,1.4181466068789943
552,3970.1,1.504609388816504
553,3972.76,1.6973331707540134
554,3975.42,1.926890952691523
555,3978.08,1.9663217346290325
556,3980.74,1.996761516566542
557,3983.4,2.1241322985040516
558,3986.06,2.2457420804415613
559,3988.7200000000003,2.186191862379071
560,3991.38,2.12157964431658
561,3994.04,2.20871742625409
562,3996.7000000000003,2.2382892081915995
563,3999.36,2.221069990129109
564,4002.02,2.2166997720666184
565,4004.68,2.117928554004128
566,4007.3399999999997,2.1775123359416377
567,4010.0000000000005,2.357556117879147
568,4012.6600000000003,2.2872788998166564
569,4015.32,2.259886681754166
570,4017.98,2.243029463691676
571,4020.64,2.2880052456291855
572,4023.3,2.279657027566695
573,4025.97,2.1312881470302854
574,4028.63,2.1479389289677946
575,4031.29,2.1287907109053044
576,4033.95,2.246808492842814
577,4036.61,2.2485122747803237
578,4039.27,2.243588056717833
579,4041.9300000000003,2.2113028386553424
580,4044.59,2.332646620592852
581,4047.25,2.327384402530362
582,4049.91,2.230663184467871
583,4052.5699999999997,2.148717966405381
584,4055.23,2.1515307483428905
585,4057.8900000000003,2.1632885302803997
586,4060.55,2.2792813122179094
587,4063.21,2.250418094155419
588,4065.87,2.1279018760929285
589,4068.53,2.098316658030438
590,4071.19,2.2352344399679476
591,4073.85,2.169440221905457
592,4076.5099999999998,2.1651910038429665
593,4079.1699999999996,2.0476647857804764
594,4081.8300000000004,2.0121005677179857
595,4084.4900000000002,1.9498023496554955
596,4087.15,1.930558131593005
597,4089.81,1.8470699135305144
598,4092.4700000000003,1.878690695468024
599,4095.13,1.8110894774055335
600,4097.79,1.774970259343043
