,lambda (Angstroms),Total Flux (erg/s/cm^2/Angstrom)
0,102.05000000000001,2.8132588871415942
1,103.95,2.805240621795169
2,104.712855,2.802021269763319
3,105.88,2.776148221262419
4,108.10000000000001,2.7269356868385177
5,110.11,2.6823784435336178
6,113.98,2.596589063175676
7,117.99000000000001,2.5076961955875663
8,120.22644299999999,2.4581198274838623
9,121.01,2.443557359903899
10,124.98,2.369773721294403
11,127.01,2.3320455542173075
12,127.89,2.3156905284133007
13,130.87,2.260306343083437
14,132.07999999999998,2.2378183761465524
15,133.92,2.2036214811238115
16,137.03,2.1458216413873896
17,138.038426,2.1270798085875593
18,139.9,2.1023499594083885
19,143.16,2.0590469912829246
20,146.83,2.0103016934860563
21,150.95000000000002,1.9555716571522315
22,155.18,1.8993808149996392
23,158.489319,1.8554205444936704
24,159.16,1.8486851642875592
25,162.12,1.8189592501078573
26,165.89,1.7810995292629002
27,170.14999999999998,1.738318397985627
28,172.91,1.7106017988540132
29,176.94000000000003,1.6701310827335405
30,179.82000000000002,1.6412094623970743
31,181.9,1.6203215506429598
32,181.970086,1.6196177285874078
33,186.14,1.5876718921089394
34,190.91,1.5511297182279666
35,194.01000000000002,1.5273814859824288
36,198.07000000000002,1.4962785628455633
37,202.22,1.4644866626816984
38,205.04000000000002,1.4428838725990476
39,208.929613,1.4130849934248806
40,209.81,1.4080143917457286
41,216.19,1.3712752074910506
42,220.20999999999998,1.3481251272725543
43,222.76000000000002,1.3334402363391795
44,226.89999999999998,1.3095997437108775
45,230.05,1.2915158036284735
46,233.79,1.2700971203995242
47,239.79,1.235612489609231
48,239.88329199999998,1.2350750022209336
49,245.94000000000003,1.2081835860320382
50,252.25,1.1802026148690232
51,256.94,1.1593285978215528
52,259.91,1.1462020715597214
53,264.14,1.1274498741746894
54,269.05,1.1056620095930092
55,274.05,1.0834727457882432
56,275.42287,1.0773804225361985
57,279.14,1.064722220682669
58,283.68,1.049262727671152
59,290.29,1.0267322035574682
60,295.69,1.00835130476051
61,301.18,0.9896448089069357
62,308.2,0.9657442139908905
63,316.227766,0.9384131719201285
64,318.29,0.9331703345715511
65,327.96999999999997,0.9085495885112521
66,337.92999999999995,0.8832130405740022
67,348.2,0.8570877710015568
68,357.13,0.8343809771973757
69,363.078055,0.819264993326173
70,366.29,0.8131546481371177
71,374.83000000000004,0.7968941657402443
72,385.33,0.7768734390637609
73,395.21,0.7581101026910317
74,405.35,0.738843928700599
75,413.84,0.7226947387378995
76,416.86938299999997,0.7169259295936569
77,421.53000000000003,0.7101497598541914
78,430.35999999999996,0.697318835652501
79,441.4,0.6813408305486882
80,450.64,0.6679503771683234
81,460.08,0.65422124675202
82,469.71,0.6402697310065747
83,478.630092,0.6273935575319357
84,479.53999999999996,0.6263858547639476
85,489.59000000000003,0.6151254364032727
86,499.84000000000003,0.6038461648413903
87,505.63,0.5973429160664343
88,511.48,0.5912900909311161
89,519.79,0.5820380020209461
90,529.46,0.5712525009425652
91,540.54,0.5587619853956719
92,549.5408739999999,0.5487761790161789
93,550.5899999999999,0.5478907108184136
94,559.54,0.5407540885521077
95,569.94,0.5322078316281321
96,580.54,0.5232639626479266
97,589.97,0.5154522024466681
98,599.5600000000001,0.5071090846004251
99,610.7,0.4976243695683977
100,620.63,0.4899681937265635
101,630.71,0.48141352409255644
102,630.957344,0.4812152706588584
103,639.48,0.4758922355696349
104,649.87,0.46897806282859833
105,657.4000000000001,0.463802315100975
106,665.01,0.45918145991143805
107,674.26,0.45332204025267114
108,685.22,0.44556926397049956
109,694.75,0.43995394469503474
110,704.4200000000001,0.432802467111221
111,715.86,0.42634457205756765
112,724.43596,0.4207983501890358
113,725.8199999999999,0.42014467782995135
114,734.23,0.4161853218245889
115,744.4399999999999,0.4111682722604094
116,754.8000000000001,0.406177127732995
117,765.3,0.40052782430656164
118,774.16,0.39698742641149504
119,784.93,0.391416750251239
120,795.85,0.38657064712774825
121,805.06,0.38233358298513387
122,814.38,0.37795543313614727
123,825.71,0.3726424643798148
124,831.763771,0.36875594121265154
125,835.2800000000001,0.366944626309148
126,844.95,0.36502223599158523
127,854.7299999999999,0.36148479971177516
128,864.63,0.35830267010951333
129,874.64,0.3548592045450043
130,884.77,0.3513549646580435
131,895.01,0.34779189580883524
132,905.3799999999999,0.3439493872769712
133,915.86,0.3404393397828598
134,924.34,0.35722722432960924
135,935.0400000000001,0.376370098911003
136,945.87,0.40262788380974096
137,954.62,0.42215198363097417
138,954.992586,0.42251344353778186
139,965.67,0.43295862455599604
140,974.61,0.3462679727821606
141,985.89,0.41266840853061
142,995.0100000000001,0.40881320041233493
143,1004.22,0.4376541241218401
144,1015.8499999999999,0.429517081422768
145,1025.25,0.3642968145464757
146,1034.74,0.3975429394979637
147,1044.31,0.4567754905185897
148,1053.97,0.4504200733669957
149,1066.18,0.41885842466917356
150,1076.04,0.4345334226904245
151,1086.0,0.4059829782980979
152,1096.05,0.43337436573355137
153,1096.4782,0.43297157983695533
154,1106.19,0.42448294301072037
155,1113.86,0.41915378408657356
156,1124.16,0.4010884447229862
157,1134.57,0.42574481416231225
158,1145.06,0.41089441727648424
159,1155.66,0.41306252919356923
160,1163.67,0.41339658838751747
161,1174.44,0.36372805936365016
162,1185.3,0.4003023557239845
163,1196.27,0.3618587608872319
164,1204.56,0.3355424879431409
165,1215.71,0.3003522338747917
166,1224.1399999999999,0.34734255486168114
167,1235.46,0.38483486985237947
168,1244.03,0.39402776477024914
169,1255.54,0.38655262223870657
170,1258.92541,0.3796305433415703
171,1264.24,0.3692229466306042
172,1275.94,0.39635031105180696
173,1284.7800000000002,0.4005765197256046
174,1293.69,0.370318416477136
175,1305.6599999999999,0.36624147776959737
176,1314.71,0.39152185067659606
177,1323.82,0.3826702562216523
178,1336.07,0.3662338698250484
179,1345.3300000000002,0.3840698069652482
180,1354.66,0.37690413218318175
181,1364.05,0.36101549003917266
182,1373.5,0.36336268053322107
183,1386.21,0.3614410443617243
184,1395.8200000000002,0.3328961218905926
185,1405.5,0.33185158749719457
186,1415.24,0.345011785741854
187,1425.05,0.34252557206424716
188,1434.93,0.34193484646437394
189,1441.55,0.346368647530046
190,1445.43977,0.3464683001529012
191,1448.2,0.34671777621383637
192,1454.89,0.3409717310962963
193,1464.9699999999998,0.32999832724206557
194,1475.13,0.32847574796042023
195,1485.35,0.328423287108214
196,1495.65,0.3280012508285932
197,1506.0200000000002,0.3198539360499848
198,1512.9699999999998,0.3060896707933476
199,1516.45,0.31196903970081546
200,1523.45,0.3078557898020441
201,1534.01,0.2897524333833262
202,1544.6499999999999,0.2905755015371937
203,1555.3500000000001,0.2841878881205002
204,1566.14,0.28858130234796553
205,1573.3600000000001,0.29508852002380426
206,1584.2700000000002,0.29807907111014764
207,1595.25,0.29880234369750347
208,1606.31,0.29277954085744473
209,1613.7299999999998,0.2906777199647471
210,1624.9099999999999,0.28416015398356653
211,1636.17,0.28864181257497135
212,1643.73,0.28850663468429827
213,1655.12,0.2796377332061546
214,1659.58691,0.2822819815652473
215,1666.59,0.2867416470563401
216,1670.43,0.2731506517299027
217,1678.1499999999999,0.28825016737571085
218,1685.8899999999999,0.28986308617086054
219,1693.6699999999998,0.2815622112646931
220,1705.41,0.2760828599281371
221,1713.28,0.26989014919400633
222,1725.16,0.26741291990284066
223,1733.12,0.27350007334074655
224,1745.14,0.26936526609497113
225,1753.19,0.27432888370491365
226,1765.34,0.26381444692985784
227,1773.49,0.2648228802865077
228,1785.79,0.26541941713151296
229,1794.03,0.2703775146601993
230,1806.46,0.2677610219759242
231,1814.8,0.258937135251318
232,1823.18,0.25930025482539476
233,1835.82,0.253980945209205
234,1844.2900000000002,0.24404362895531836
235,1857.0700000000002,0.24383644138451896
236,1865.65,0.24581109245201044
237,1874.26,0.2508633982435141
238,1882.9099999999999,0.24140941033370075
239,1895.9599999999998,0.23639321527901122
240,1904.71,0.2405574431159052
241,1905.46072,0.24018738975279486
242,1913.5,0.23644977480838408
243,1926.77,0.23183853569239876
244,1935.6599999999999,0.23335341363202883
245,1944.6,0.23833905005275913
246,1953.57,0.23032448156214963
247,1967.11,0.23777709824410584
248,1976.1899999999998,0.23944527841191693
249,1985.32,0.23319401706082835
250,1994.4799999999998,0.22938925079839995
251,2003.6799999999998,0.2306473113208517
252,2012.93,0.22741693032440374
253,2026.89,0.22886377824760235
254,2036.24,0.22397371421335496
255,2045.6399999999999,0.2262965086602079
256,2055.08,0.21692222989194104
257,2064.57,0.2182957096047744
258,2074.1,0.22666131610248808
259,2078.88,0.22346286689567496
260,2083.67,0.22650064938508196
261,2093.29,0.2198644411487761
262,2102.9500000000003,0.21939715969735044
263,2112.6600000000003,0.22003153672702508
264,2127.3,0.2191848399931875
265,2137.1200000000003,0.21166596568128276
266,2146.9900000000002,0.21356624985047834
267,2156.9,0.21552596080455413
268,2166.85,0.21070329854351016
269,2176.85,0.20940459476356643
270,2186.9,0.208103749464723
271,2187.7616199999998,0.20838062919047498
272,2197.0,0.2115789446511886
273,2207.14,0.20782317268578737
274,2217.32,0.2016029215410354
275,2227.56,0.19931865162725743
276,2232.69,0.20543999687553077
277,2243.0,0.20077258839788908
278,2253.35,0.19528360074089668
279,2263.75,0.19571541410971593
280,2274.2000000000003,0.19739302850434676
281,2284.7000000000003,0.19962404392478927
282,2295.25,0.19264776037104342
283,2305.84,0.19423949763794685
284,2316.48,0.18977783593066191
285,2327.1800000000003,0.17326499545435092
286,2332.54,0.18212203542135777
287,2343.31,0.17740909638118307
288,2354.12,0.1849759281616577
289,2364.99,0.17620110117310628
290,2375.91,0.17860155521036647
291,2386.87,0.17045545006827595
292,2392.38,0.1747843031127177
293,2403.42,0.17187865961192578
294,2414.5099999999998,0.17313828713694557
295,2425.66,0.17927392589293925
296,2436.85,0.17576291546958225
297,2442.47,0.18004884077080957
298,2453.75,0.17873671219391352
299,2465.07,0.17675268443766676
300,2476.45,0.17281215791239396
301,2482.16,0.17152636506008223
302,2493.62,0.16467496017610803
303,2505.1299999999997,0.17646690631794548
304,2510.8999999999996,0.1638293346966077
305,2511.88643,0.1638951833779066
306,2516.6899999999996,0.16427949250946794
307,2522.4900000000002,0.16214146358206405
308,2534.13,0.1640628265622398
309,2545.83,0.16317447579489064
310,2557.58,0.1700491185712708
311,2563.48,0.1660494767313255
312,2575.31,0.17052347117767253
313,2587.2000000000003,0.16871059187649462
314,2593.16,0.16662594628902447
315,2605.13,0.16297569865781342
316,2617.1499999999996,0.16064031457033168
317,2623.19,0.16549533065282834
318,2635.2999999999997,0.1707347109440593
319,2647.46,0.1800097647790195
320,2653.56,0.18526131711399135
321,2665.81,0.17189348532766424
322,2671.96,0.17628190120636533
323,2684.2899999999995,0.17773847109000512
324,2696.6800000000003,0.16958189722612
325,2702.8999999999996,0.1736770220660421
326,2715.37,0.16598022987212382
327,2727.91,0.16391640663942653
328,2734.19,0.16850638773182375
329,2746.8199999999997,0.15384476887783918
330,2753.1499999999996,0.1573387435139657
331,2765.86,0.16171348632994792
332,2772.23,0.16535214180105784
333,2785.03,0.15594297899575282
334,2797.8799999999997,0.13779087973417709
335,2804.33,0.1418921668752538
336,2817.2799999999997,0.16161053470113662
337,2823.77,0.1695828326771968
338,2836.7999999999997,0.16596069217304643
339,2843.3399999999997,0.1612265836928359
340,2856.47,0.1527505602761441
341,2863.0499999999997,0.167267552630917
342,2876.2700000000004,0.17014375359293785
343,2882.9,0.16779287949144
344,2884.0315,0.16791370731323113
345,2896.21,0.16935275034598354
346,2909.57,0.18095802673954037
347,2929.7400000000002,0.17460893556125
348,2950.05,0.1715652150936706
349,2970.5,0.1736926653368021
350,2991.09,0.17349368629064454
351,3011.82,0.1743514779551979
352,3032.7,0.1746887668097987
353,3046.7,0.17563573788089115
354,3067.82,0.1768077622395678
355,3089.0800000000004,0.17661455730895537
356,3110.4900000000002,0.17865774956839037
357,3132.06,0.1753951654972093
358,3146.51,0.175262628138444
359,3168.32,0.17730117957133879
360,3190.29,0.1691538546736175
361,3212.4,0.1741007004866071
362,3227.23,0.16588496934262864
363,3249.6000000000004,0.17831150361836712
364,3272.12,0.185606635084153
365,3287.2200000000003,0.18395951888225986
366,3310.0099999999998,0.18195596529013114
367,3311.31121,0.18181735069517882
368,3325.29,0.18043975026333758
369,3332.9500000000003,0.18532554587975664
370,3340.6400000000003,0.17514576027796325
371,3348.34,0.19106258093676567
372,3356.06,0.1850256141167598
373,3363.8,0.16408055981794561
374,3371.5499999999997,0.1683596117797273
375,3379.32,0.18534927626270067
376,3387.1099999999997,0.18255885326686572
377,3394.92,0.17743364279222248
378,3402.7400000000002,0.1944502385781751
379,3410.59,0.1768319531459152
380,3418.4500000000003,0.17594557397425123
381,3426.3300000000004,0.1819473073237789
382,3434.2299999999996,0.1921679531944983
383,3442.15,0.17504381158640936
384,3450.08,0.1804126762389163
385,3458.03,0.1819473534126149
386,3466.0099999999998,0.17828764936810107
387,3474.0,0.18603125158418307
388,3482.0099999999998,0.17559256632145678
389,3490.03,0.1857229873193263
390,3498.08,0.1726530270989834
391,3506.14,0.18701557313923636
392,3514.2200000000003,0.17586133170068097
393,3522.3300000000004,0.18638210904391314
394,3530.44,0.17407178638714532
395,3538.58,0.18801578251216505
396,3546.74,0.19099529115837646
397,3554.9199999999996,0.19100451232577959
398,3563.1099999999997,0.18608563975377854
399,3571.32,0.17197267970296914
400,3579.56,0.17401723843394737
401,3587.81,0.16027540342552138
402,3596.08,0.17791318093828712
403,3603.29,0.312538094827893
404,3606.04,0.20971271649175105
405,3608.7799999999997,0.2709615318950132
406,3611.5199999999995,0.17665884729827536
407,3614.27,0.1478634689621334
408,3617.0099999999998,0.10376657436539556
409,3619.75,0.05811981976865772
410,3622.49,0.10749881517191989
411,3625.2400000000002,0.04134025383577789
412,3627.98,0.10995412223904005
413,3630.7200000000003,0.028147787642302222
414,3633.46,0.1320073930455644
415,3636.2100000000005,0.1971115047094224
416,3638.9500000000003,-0.03341756988731544
417,3641.69,0.07121055551594674
418,3644.4300000000003,0.16034155091920888
419,3647.18,0.12115993258306693
420,3649.9199999999996,0.1254380679863291
421,3652.66,0.20570460338959123
422,3655.3999999999996,0.29556881879285346
423,3658.15,0.16211544045671142
424,3660.89,0.2096161558599736
425,3663.63,0.31037567126323573
426,3666.37,0.0810628566664979
427,3669.1200000000003,0.07919682833035593
428,3671.86,0.2217379237336181
429,3674.6,0.16273223913688026
430,3677.34,0.20030525454014242
431,3680.0899999999997,0.16229697620400044
432,3682.8300000000004,0.2287433916072626
433,3685.57,0.16981350701052475
434,3688.3199999999997,0.1370733886743828
435,3691.06,0.17120164407764496
436,3693.7999999999997,0.1963229594809071
437,3696.54,0.1554828748841693
438,3699.29,0.2852571965480273
439,3702.03,0.21695761195128946
440,3704.77,0.2395839273545516
441,3707.5099999999998,0.2719738427578138
442,3710.26,0.07203762442167179
443,3713.0,0.09017916982493396
444,3715.7400000000002,0.20207589522819613
445,3718.48,0.14444761063145828
446,3721.23,0.1589218322953163
447,3723.97,0.12922638769857847
448,3726.7099999999996,0.36526476310184064
449,3729.4500000000003,0.2302597785051028
450,3732.2,0.2876348001689608
451,3734.94,0.10957536557222296
452,3737.68,0.2990656309754851
453,3740.42,0.1599605463787473
454,3743.17,0.12262216804260531
455,3745.91,0.17234888344586746
456,3748.65,0.19199989884912963
457,3751.3999999999996,0.18772512051298768
458,3754.1400000000003,0.2489178359162498
459,3756.88,0.15113265131951198
460,3759.6200000000003,0.031459826722774135
461,3762.37,0.10789919838663217
462,3765.1099999999997,0.18647210378989434
463,3767.85,0.20670631919315646
464,3770.5899999999997,0.24899683459641866
465,3773.34,0.12985124626027666
466,3776.08,0.14578667166353884
467,3778.82,0.201675287066801
468,3781.56,0.13204838247006317
469,3784.3100000000004,0.27893422413392116
470,3787.05,0.20883283953718335
471,3789.79,0.21925835494044552
472,3792.53,0.22923627034370767
473,3795.2799999999997,0.13237982200756568
474,3798.0199999999995,0.15562520741082786
475,3800.76,0.22044862281409
476,3801.8939600000003,0.22078016763988684
477,3803.5,0.22125876258799804
478,3806.25,0.26264643655645376
479,3808.99,0.1495833480741151
480,3811.73,0.22303385959177646
481,3814.47,0.15939277110943778
482,3817.2200000000003,0.18220324507789354
483,3819.96,0.16961115659555487
484,3822.7,0.2170425681132162
485,3825.4500000000003,0.17792674208167195
486,3828.19,0.1387522735993333
487,3830.9300000000003,0.13188497511699462
488,3833.67,0.11027852663465597
489,3836.4199999999996,0.1389567206031117
490,3839.16,0.18780516212077303
491,3841.8999999999996,0.1356265036384344
492,3844.64,0.14721378515609573
493,3847.39,0.16095595912455146
494,3850.13,0.1879232706422128
495,3852.87,0.11971827215987416
496,3855.6099999999997,0.1309841836775355
497,3858.36,0.27019816764599125
498,3861.1,0.19355867916365257
499,3863.84,0.17718249068131392
500,3866.58,0.21257020219897527
501,3869.3300000000004,0.14043587616743097
502,3872.07,0.13940352768509232
503,3874.8100000000004,0.19855179920275365
504,3877.55,0.21514541072041501
505,3880.2999999999997,0.18869968468887074
506,3883.04,0.1473154962065321
507,3885.7799999999997,0.11215064772419343
508,3888.5199999999995,0.1482568192418548
509,3891.27,0.2292510932103105
510,3894.0099999999998,0.19131690472797186
511,3896.75,0.1838232162456332
512,3899.5,0.2599373902140889
513,3902.2400000000002,0.26630900173175026
514,3904.98,0.21830091324941162
515,3907.7200000000003,0.16542362476707295
516,3910.47,0.1802272987355287
517,3913.2099999999996,0.18200961025319
518,3915.9500000000003,0.14940122177085136
519,3918.69,0.18248883328851273
520,3921.44,0.17881080725696843
521,3924.18,0.2228408187746298
522,3926.92,0.19680763029229115
523,3929.66,0.2090901418099525
524,3932.41,0.1409529157784082
525,3935.15,0.14438892729606956
526,3937.89,0.2458877388137309
527,3940.63,0.18028785033139222
528,3943.38,0.19362732429984797
529,3946.1200000000003,0.21850763581750932
530,3948.86,0.18816504733517064
531,3951.6,0.266028058852832
532,3954.35,0.24123763282128774
533,3957.0899999999997,0.21520824433894908
534,3959.83,0.2013270558566104
535,3962.58,0.22359402982506615
536,3965.32,0.1547519413427275
537,3968.06,0.14867725286038883
538,3970.7999999999997,0.17591896437805019
539,3973.55,0.09715728834650592
540,3976.29,0.08145802986416725
541,3979.03,0.2219240613818286
542,3981.77,0.1898211728994899
543,3984.5199999999995,0.2447763468679457
544,3987.26,0.240026858385607
545,3990.0,0.24576666990326837
546,3992.7400000000002,0.2552977814209297
547,3995.49,0.23920935538938543
548,3998.23,0.1881031669070468
549,4000.97,0.21673337842470813
550,4003.7099999999996,0.26043668994236946
551,4006.46,0.18621516391082518
552,4009.2,0.13836037542848656
553,4011.94,0.28451528694614786
554,4014.68,0.2348118984638092
555,4017.4300000000003,0.26300937243226497
556,4020.17,0.3133420839499263
557,4022.9100000000003,0.26555239546758763
558,4025.65,0.192153306985249
559,4028.3999999999996,0.23563348095370473
560,4031.14,0.26628749247136607
561,4033.88,0.2955334039890274
562,4036.63,0.2850233779574831
563,4039.37,0.22414488947514447
564,4042.1099999999997,0.29428250099280584
565,4044.85,0.2540392125104671
566,4047.6,0.2506968864789229
567,4050.34,0.20931449799658422
568,4053.08,0.29427610951424554
569,4055.82,0.20961142103190694
570,4058.57,0.20273969500036265
571,4061.3100000000004,0.213608506518024
572,4064.05,0.1920202180356853
573,4066.79,0.21694212955334666
574,4069.54,0.2403392035218024
575,4072.2799999999997,0.2929285150394637
576,4075.0199999999995,0.16446912655712512
577,4077.76,0.12990363807478644
578,4080.5099999999998,0.28519631204324214
579,4083.25,0.26094882356090354
