,lambda (Angstroms),Total Flux (erg/s/cm^2/Angstrom)
0,100.09,7.879891132373781
1,101.94999999999999,7.857975279716069
2,104.09,7.832757726614616
3,104.712855,7.825418746501452
4,106.02000000000001,7.744498081026938
5,107.99,7.622544212582552
6,110.0,7.4981250001737605
7,114.13,7.2424585683015685
8,117.87,7.0109371739048125
9,120.22644299999999,6.865228554596478
10,120.89000000000001,6.830836889556787
11,125.14000000000001,6.6103042991158105
12,126.88,6.5200166326804485
13,128.06,6.4587880383507175
14,131.04,6.304149398367165
15,131.95,6.256987025020508
16,134.09,6.145938417695405
17,136.9,6.000206133697488
18,138.038426,5.941134968639684
19,140.09,5.865053554334447
20,143.02,5.757298020220655
21,147.03,5.610331974673109
22,151.15,5.457693594033237
23,155.02,5.314381314512288
24,158.489319,5.185933140104057
25,159.0,5.171648282502732
26,161.95999999999998,5.08883631064462
27,166.11,4.97277875140098
28,169.98,4.864517517130408
29,173.14,4.776125319862963
30,177.17,4.663382167464924
31,180.05,4.582827541170543
32,181.970086,4.529123218319125
33,182.14000000000001,4.525500732161915
34,185.95000000000002,4.444273515846612
35,191.16,4.333179448625424
36,193.82,4.276528917804241
37,197.88,4.189948740077174
38,202.02,4.101704095498339
39,204.83,4.041825299830098
40,208.929613,3.9541567425566346
41,210.09,3.935504918715583
42,215.97000000000003,3.841700479463535
43,219.99,3.7773993191483597
44,223.04999999999998,3.728319964445764
45,227.19,3.6621111355540155
46,229.83,3.624516808869423
47,234.1,3.565545060519722
48,239.88329199999998,3.4784368091025537
49,240.1,3.4759724751436907
50,246.26,3.3979001967498625
51,252.0,3.3283017405192505
52,257.27,3.2575248521855698
53,260.25,3.2248629844560877
54,263.87,3.1814281553350394
55,268.78,3.1202769202841156
56,273.78,3.058010086912502
57,275.42287,3.0375099800997645
58,278.87,3.004433734889051
59,284.05,2.955082785029972
60,290.0,2.8968824778945432
61,296.07,2.8391950344303325
62,300.88,2.792417367418331
63,307.89,2.7258458510453294
64,316.227766,2.6466207741025016
65,317.98,2.634190631834253
66,327.64,2.5649845913851586
67,338.37,2.4879471452652013
68,347.85,2.4197001312841016
69,356.78000000000003,2.3557816698440996
70,363.078055,2.310909665837539
71,365.93,2.2956794184945495
72,375.32000000000005,2.244986535814318
73,384.94,2.1922614617265848
74,394.82000000000005,2.1398851199608036
75,404.95000000000005,2.0856677592738233
76,414.38000000000005,2.0348322815662008
77,416.86938299999997,2.021333837358664
78,422.08000000000004,1.99963346572167
79,429.93,1.9671210395401761
80,440.96000000000004,1.9218836662685994
81,451.23,1.879435620729244
82,459.62,1.8446539922116985
83,470.32,1.8005902070343758
84,478.630092,1.766511779285928
85,480.16999999999996,1.7616419574161626
86,490.22999999999996,1.7293811675240631
87,500.49,1.6970865620476272
88,506.29,1.6784785001018838
89,512.15,1.6607535874808401
90,520.47,1.634265857172463
91,530.15,1.6033292348906019
92,540.0,1.5716595073620552
93,549.5408739999999,1.5413159299412158
94,550.04,1.5400985018540947
95,560.27,1.5158010796031747
96,569.37,1.4939759425764518
97,579.96,1.4681674089266723
98,589.38,1.4454364373231858
99,600.3399999999999,1.4185534180690236
100,610.09,1.3938108476832487
101,620.01,1.3713473358035686
102,630.0799999999999,1.3468295408410305
103,630.957344,1.344730922301698
104,640.32,1.3269622752652372
105,650.72,1.3068964796385918
106,658.26,1.2922277173092738
107,664.3499999999999,1.2807638661971323
108,675.1500000000001,1.2601578892002308
109,684.54,1.2417663822834808
110,695.6600000000001,1.2208137811903748
111,705.34,1.2018470550301892
112,716.8,1.1803743852723663
113,724.43596,1.165779706450698
114,726.7700000000001,1.1624556064425078
115,735.19,1.1504562370356637
116,745.41,1.1357967412663115
117,755.7800000000001,1.1210144831334168
118,764.53,1.1079039379267794
119,775.1700000000001,1.0933988791395084
120,784.15,1.0803924993754397
121,795.06,1.0650502019337924
122,804.26,1.052039705636528
123,815.45,1.0361716195162682
124,824.8900000000001,1.0227795946373361
125,831.763771,1.0126794251366409
126,834.44,1.0096952714156695
127,844.11,0.9998241002181008
128,855.8499999999999,0.9873146984425627
129,865.76,0.9768325322359541
130,875.7800000000001,0.9662077358585355
131,885.9300000000001,0.955405824642887
132,894.12,0.9466913118343984
133,904.48,0.9356626061108398
134,914.95,0.9251125032164713
135,925.54,0.9176815973175831
136,934.1099999999999,0.9124669518281145
137,944.9200000000001,0.9044782035876059
138,954.992586,0.8957867872181378
139,955.87,0.89504956311828
140,964.71,0.8871556645803153
141,975.88,0.8665439659525926
142,984.91,0.8637736629437892
143,994.0200000000001,0.8538279996314746
144,1005.5400000000001,0.8447066059258915
145,1014.84,0.8350733981427385
146,1024.23,0.8185760387681354
147,1036.0900000000001,0.8108954112726304
148,1045.6799999999998,0.8060242561392502
149,1055.3500000000001,0.7953975607023587
150,1065.12,0.7826401023860786
151,1074.97,0.7739217837662872
152,1084.92,0.7604357322671074
153,1094.96,0.7535488991764775
154,1096.4782,0.7518608009541347
155,1105.09,0.7438869340785366
156,1115.31,0.7347714273384258
157,1125.6299999999999,0.7242794161488033
158,1136.05,0.7178316205096689
159,1143.9199999999998,0.7102196133330866
160,1154.51,0.7014070031297819
161,1165.19,0.6922230499219167
162,1175.97,0.6787574022645396
163,1184.1200000000001,0.675457034629324
164,1195.08,0.6638302709628259
165,1206.14,0.6524260028468155
166,1214.5,0.6420077258676252
167,1225.74,0.6375293807424935
168,1234.23,0.632805343978938
169,1245.6499999999999,0.6236431338446851
170,1254.2900000000002,0.6158747454068613
171,1258.92541,0.6116345855713478
172,1265.89,0.6069438439702526
173,1274.67,0.6032598722474409
174,1286.46,0.5963607161982439
175,1295.3799999999999,0.5886711249718795
176,1304.36,0.5832575182439923
177,1316.43,0.5778116231876895
178,1325.55,0.5716577069562497
179,1334.74,0.5649572559730334
180,1343.99,0.5606891594882943
181,1356.43,0.5527906721726022
182,1365.8300000000002,0.5460257669340566
183,1375.3000000000002,0.5403883569437347
184,1384.83,0.5345780314518902
185,1394.43,0.5262578612082691
186,1404.1000000000001,0.5203820662128716
187,1413.8300000000002,0.5161913657159516
188,1423.6299999999999,0.5100704404672554
189,1433.5,0.5043471604667824
190,1443.43,0.49859038496478697
191,1445.43977,0.49738668341653475
192,1446.76,0.4968347523677095
193,1453.44,0.4936324133496957
194,1463.5200000000002,0.4886940614183215
195,1473.66,0.48442568608259395
196,1483.87,0.4801867367751208
197,1494.1599999999999,0.4757389229285098
198,1504.52,0.4708402751101529
199,1511.46,0.46700721133994094
200,1518.44,0.46445306530016
201,1525.4499999999998,0.46136502755820247
202,1536.02,0.4556924478246087
203,1546.67,0.45094376855187707
204,1553.81,0.4477146964338204
205,1564.5800000000002,0.44372982735238187
206,1575.4199999999998,0.43964671229919794
207,1586.34,0.43527664270687594
208,1593.67,0.4322617068083667
209,1604.71,0.4273540404073379
210,1615.8400000000001,0.42258117889977886
211,1623.29,0.4191396021925629
212,1634.55,0.4148071473089049
213,1645.88,0.4100705844535012
214,1653.47,0.4064768358027939
215,1659.58691,0.40415686572256687
216,1664.93,0.40279963934944146
217,1672.62,0.3996994771073645
218,1676.48,0.399957424480002
219,1684.2099999999998,0.39777030722106116
220,1695.8899999999999,0.3937344682968141
221,1703.72,0.3912288409957135
222,1715.5300000000002,0.3876314280166589
223,1723.44,0.3853154066818306
224,1735.39,0.38246002164375253
225,1743.3999999999999,0.37984770026676473
226,1755.49,0.377001203169663
227,1763.59,0.3736755797547315
228,1775.81,0.37040593860282234
229,1784.01,0.368199505145731
230,1796.3799999999999,0.36560546393058246
231,1804.6699999999998,0.36280781843554755
232,1813.0,0.3598347709236487
233,1825.56,0.3562570276283968
234,1833.99,0.35341906007433826
235,1846.7,0.3485763037158468
236,1855.23,0.3467501091196287
237,1863.79,0.3450880875107628
238,1876.71,0.3414821860637361
239,1885.3700000000001,0.33849683441271045
240,1894.08,0.33626943274060506
241,1902.8200000000002,0.33383720705585157
242,1905.46072,0.33305892789893665
243,1916.01,0.3307751036981778
244,1924.85,0.3280927929269913
245,1933.74,0.32486041670121657
246,1947.1399999999999,0.3247505378715899
247,1956.13,0.3225550317366388
248,1965.1599999999999,0.32204324283801733
249,1974.2299999999998,0.31968909117572525
250,1983.3400000000001,0.31808350674976255
251,1997.09,0.31507427173801883
252,2006.31,0.3127484347119623
253,2015.57,0.3107900849222352
254,2024.87,0.3079645823688376
255,2034.22,0.3072844613608518
256,2043.61,0.30629057758919553
257,2053.04,0.3034261410538687
258,2067.27,0.3000747928780786
259,2072.04,0.3007804083103682
260,2076.81,0.3055671237426578
261,2086.4,0.30647047615264883
262,2096.03,0.30274818579896934
263,2105.7000000000003,0.29969895268161933
264,2115.42,0.29955604110968126
265,2125.19,0.2956599710831549
266,2135.0,0.2920315182929581
267,2144.85,0.29425314273909076
268,2154.75,0.29212891873063523
269,2164.7,0.28732673626759153
270,2174.69,0.2853774110408773
271,2184.73,0.2874445773595749
272,2187.7616199999998,0.2868648623078777
273,2194.81,0.2860062273455797
274,2204.94,0.2836659415503238
275,2215.12,0.27732549743426216
276,2225.34,0.27826826666155585
277,2235.62,0.28327386590388265
278,2245.94,0.2802896084895648
279,2256.3,0.2729670444186022
280,2266.7200000000003,0.2702980103626727
281,2277.18,0.27079433965009864
282,2282.43,0.27654508596548927
283,2292.96,0.270321673603787
284,2303.55,0.2734691812571177
285,2314.1800000000003,0.26796565225380387
286,2324.86,0.26115246492968425
287,2335.5899999999997,0.2581954992847588
288,2346.3700000000003,0.2515394953190274
289,2357.2000000000003,0.25993170303249036
290,2362.64,0.250375617728819
291,2373.54,0.25263085379315375
292,2384.5,0.2444573398725216
293,2395.5099999999998,0.24546335763108365
294,2406.56,0.24385603873300102
295,2417.67,0.24441971984995142
296,2423.25,0.2540401312480237
297,2434.43,0.25253500071584606
298,2445.67,0.25589969019870135
299,2456.95,0.2560687730249121
300,2462.62,0.25082171944553394
301,2473.9900000000002,0.24573812729429412
302,2485.4100000000003,0.23537494682224852
303,2496.88,0.23656972802939719
304,2502.63,0.2464413111367298
305,2511.88643,0.23218088088599156
306,2514.19,0.22871725125070627
307,2519.98,0.22521977734619394
308,2525.79,0.22575177021575935
309,2537.45,0.23170229950304544
310,2543.3,0.23235725592076611
311,2555.04,0.24781868230436296
312,2566.83,0.23680392062315397
313,2572.7499999999995,0.24417373575014661
314,2584.6200000000003,0.23877536116524825
315,2596.55,0.23416675690258298
316,2602.54,0.2296043807388475
317,2614.5499999999997,0.225782613572493
318,2626.62,0.23303854672837143
319,2632.68,0.2549445592739078
320,2644.8300000000004,0.27266838952609695
321,2657.04,0.29989721010051923
322,2663.16,0.2617192129682886
323,2675.45,0.26948003063902154
324,2687.8,0.2796830986319875
325,2693.9999999999995,0.2557581485960676
326,2706.4300000000003,0.26933460368534423
327,2712.6699999999996,0.24732760719757976
328,2725.19,0.2348144377702059
329,2737.77,0.2454714086650652
330,2744.08,0.22011893088657253
331,2756.75,0.23018645726478132
332,2763.1,0.24296057303444402
333,2775.86,0.24569365489600237
334,2782.2599999999998,0.22069960260085927
335,2795.1,0.19929132155872833
336,2808.0,0.20134347083883045
337,2814.4700000000003,0.23447258725295916
338,2827.4700000000003,0.25800469040344964
339,2833.98,0.25277465036573377
340,2847.06,0.23116038061253497
341,2853.6299999999997,0.2085587708970521
342,2866.7999999999997,0.2495106466272029
343,2873.4100000000003,0.2751368104598753
344,2884.0315,0.26642525898847214
345,2886.67,0.26434504588880237
346,2893.33,0.28439152275189056
347,2906.68,0.3234476448423151
348,2926.8300000000004,0.3020604294956524
349,2947.12,0.29030031984881455
350,2967.54,0.29468637978038525
351,2988.11,0.2954218815331966
352,3008.83,0.29438162510724875
353,3029.6800000000003,0.3016910382597095
354,3050.68,0.306564193233411
355,3071.83,0.3181603900283533
356,3093.12,0.31286229252312014
357,3107.4,0.3366973739052372
358,3128.94,0.32107177943540527
359,3150.6299999999997,0.3197215267868141
360,3172.47,0.33524721595946366
361,3187.11,0.3089859977125584
362,3209.2,0.3248767899206092
363,3231.4500000000003,0.29525736007131664
364,3246.3599999999997,0.3545054171026448
365,3268.87,0.3885024264101695
366,3291.5299999999997,0.3816634775389351
367,3306.7200000000003,0.36553064596991247
368,3311.31121,0.3612492437446201
369,3321.98,0.35153807878072274
370,3329.64,0.3767907204033219
371,3337.3199999999997,0.35904927988916546
372,3345.0099999999998,0.36318479830663114
373,3352.7200000000003,0.3425959345873413
374,3360.45,0.3701302887312958
375,3368.2000000000003,0.36702776073849464
376,3375.96,0.31789239167731576
377,3383.7400000000002,0.3207879404793812
378,3391.54,0.369372607144691
379,3399.36,0.37651719167324527
380,3407.2000000000003,0.36685239406504383
381,3415.05,0.35551045538846465
382,3422.92,0.39405293457512985
383,3430.82,0.3752158905566616
384,3438.7200000000003,0.37978144653819335
385,3446.65,0.2961257793145917
386,3454.6,0.3732623299542345
387,3462.56,0.32931313952549934
388,3470.54,0.3584038669600087
389,3478.54,0.30991361225776237
390,3486.5600000000004,0.34831287541876044
391,3494.6,0.32520765644300287
392,3502.65,0.37941039639886753
393,3510.73,0.37835861314959873
394,3518.8199999999997,0.34692258883195215
395,3526.93,0.32647668237755
396,3535.06,0.37465069378639215
397,3543.21,0.40536782305847874
398,3551.38,0.39796647019380965
399,3559.57,0.380654935192385
400,3567.77,0.3590073591225825
401,3575.9999999999995,0.32636035984764666
402,3584.2400000000002,0.2798983195043329
403,3592.5,0.3190858970242636
404,3600.79,0.4057678513390609
405,3609.0899999999997,0.34770136458548034
406,3610.5,0.3558153739442094
407,3613.23,0.34165936227706784
408,3615.9599999999996,0.34631255060992633
409,3618.7000000000003,0.3694173978744069
410,3621.43,0.3486331862072654
411,3624.17,0.37907363347174605
412,3626.9,0.37357392180460447
413,3629.6299999999997,0.3764566101374629
414,3632.37,0.3846489574019436
415,3635.1,0.400097045734802
416,3637.8300000000004,0.3952557340676604
417,3640.57,0.39349138133214107
418,3643.2999999999997,0.37217976966499955
419,3646.03,0.403578957997858
420,3648.77,0.4117425052623386
421,3651.4999999999995,0.4218668935951971
422,3654.23,0.4256165819280555
423,3656.97,0.4462105291925361
424,3659.7000000000003,0.45148131752539455
425,3662.44,0.4525790647898752
426,3665.1699999999996,0.4493366531227337
427,3667.9,0.43555294145559215
428,3670.64,0.4339437887200727
429,3673.3700000000003,0.4295072770529312
430,3676.1,0.4037427653857896
431,3678.8399999999997,0.3993124126502703
432,3681.57,0.38758940098312866
433,3684.2999999999997,0.3967241893159872
434,3687.04,0.4128408365804678
435,3689.77,0.42871432491332623
436,3692.5,0.43692911324618466
437,3695.2400000000002,0.4468631605106653
438,3697.97,0.4278618488435238
439,3700.71,0.4149957961080044
440,3703.44,0.39546288444086286
441,3706.1699999999996,0.40780757277372137
442,3708.9100000000003,0.4196389200382019
443,3711.64,0.4145728083710604
444,3714.3700000000003,0.4226648967039188
445,3717.11,0.39627674396839946
446,3719.8399999999997,0.3933818323012579
447,3722.57,0.38954632063411637
448,3725.31,0.379187067898597
449,3728.0400000000004,0.3718677562314554
450,3730.77,0.3655952445643139
451,3733.5099999999998,0.34601949182879455
452,3736.2400000000002,0.35509288016165297
453,3738.97,0.3729534684945114
454,3741.7099999999996,0.3533286157589921
455,3744.44,0.3502331040918505
456,3747.18,0.36332005135633116
457,3749.9100000000003,0.3871627396891896
458,3752.64,0.39260932802204807
459,3755.3799999999997,0.4203917752865287
460,3758.11,0.42108286361938707
461,3760.8399999999997,0.40471885195224555
462,3763.5800000000004,0.3983788992167262
463,3766.31,0.4223607875495846
464,3769.04,0.4179733758824431
465,3771.78,0.44465582314692376
466,3774.5099999999998,0.4432044114797822
467,3777.2400000000002,0.45731149981264063
468,3779.98,0.47617164707712123
469,3782.71,0.4449198354099797
470,3785.4500000000003,0.4307248826744603
471,3788.18,0.4294205710073188
472,3790.9100000000003,0.40225355934017726
473,3793.65,0.38331560660465785
474,3796.3799999999997,0.3990989949375163
475,3799.11,0.41692278327037474
476,3801.85,0.4071194305348554
477,3801.8939600000003,0.40746438269570573
478,3804.5800000000004,0.4285837698049251
479,3807.31,0.43193059892146013
480,3810.0499999999997,0.40904464389556494
481,3812.78,0.3774879730120999
482,3815.5099999999998,0.367316502128635
483,3818.2500000000005,0.34397694710273974
484,3820.98,0.33380137621927475
485,3823.72,0.31847222119337953
486,3826.4500000000003,0.3218555503099146
487,3829.18,0.3072556794264496
488,3831.9199999999996,0.29101472440055437
489,3834.65,0.3115472535170894
490,3837.38,0.33650408263362447
491,3840.1200000000003,0.35896092760772924
492,3842.85,0.36007905672426427
493,3845.58,0.3869210858407993
494,3848.32,0.39280933081490405
495,3851.0499999999997,0.3629822599314391
496,3853.78,0.3681198890479741
497,3856.52,0.3612751340220789
498,3859.25,0.38051156313861395
499,3861.9900000000002,0.3817753081127187
500,3864.72,0.3868720372292538
501,3867.4500000000003,0.3834515663457888
502,3870.19,0.3857660113198935
503,3872.92,0.3866757404364286
504,3875.65,0.39137586955296366
505,3878.39,0.3696596145270684
506,3881.1200000000003,0.38013334364360346
507,3883.85,0.3969041727601385
508,3886.5899999999997,0.4042439177342433
509,3889.32,0.4278474468507783
510,3892.05,0.42960777596731337
511,3894.7900000000004,0.4489690209414181
512,3897.52,0.44361045005795313
513,3900.2599999999998,0.4438311950320579
514,3902.9900000000002,0.45548682414859293
515,3905.72,0.46716695326512797
516,3908.4600000000005,0.4684016982392327
517,3911.19,0.4715973273557678
518,3913.92,0.45307225647230287
519,3916.6600000000003,0.43807800144640757
520,3919.39,0.4160895305629426
521,3922.12,0.3734802596794777
522,3924.86,0.34034760465358244
523,3927.59,0.2914781337701175
524,3930.3199999999997,0.27973226288665254
525,3933.06,0.2815033078607573
526,3935.79,0.31680923697729235
527,3938.53,0.35821848195139705
528,3941.2599999999998,0.39688971106793214
529,3943.99,0.4175451401844672
530,3946.73,0.45105828515857194
531,3949.46,0.460174614275107
532,3952.19,0.46053244339164207
533,3954.93,0.4318032883657468
534,3957.66,0.3906417174822818
535,3960.39,0.33974824659881686
536,3963.13,0.3147771915729216
537,3965.86,0.30857602068945666
538,3968.59,0.3316192498059917
539,3971.33,0.38506639478009647
540,3974.06,0.44920382389663155
541,3976.7999999999997,0.4905717688707363
542,3979.53,0.5154306979872713
543,3982.26,0.5453928271038063
544,3985.0,0.550356472077911
545,3987.73,0.5555681011944462
546,3990.46,0.5773809303109813
547,3993.2000000000003,0.5725718752850859
548,3995.93,0.581954204401621
549,3998.66,0.583199533518156
550,4001.4,0.6093030784922607
551,4004.13,0.5909214076087959
552,4006.8599999999997,0.6099536367253309
553,4009.6,0.6145082816994357
554,4012.33,0.6219688108159707
555,4015.07,0.6241108557900755
556,4017.8,0.6208174849066105
557,4020.5299999999997,0.6216540140231456
558,4023.27,0.6045779589972503
559,4026.0,0.6000987881137854
560,4028.73,0.5849065172303204
561,4031.47,0.5903606622044252
562,4034.2,0.6114783913209602
563,4036.9300000000003,0.6090437204374953
564,4039.67,0.5940939654116
565,4042.4,0.5745673945281351
566,4045.13,0.5778163236446701
567,4047.87,0.6060050686187749
568,4050.6,0.5959648977353099
569,4053.34,0.5858401427094146
570,4056.07,0.5837325718259497
571,4058.8,0.5744692009424848
572,4061.54,0.5757118459165895
573,4064.27,0.5811688750331245
574,4067.0,0.5835999041496596
575,4069.7400000000002,0.5777686491237644
576,4072.4700000000003,0.5972098782402994
577,4075.2,0.6234798073568345
578,4077.94,0.6158492523309391
579,4080.67,0.6301384814474743
580,4083.3999999999996,0.6438961105640093
581,4086.14,0.6446478555381141
582,4088.87,0.634607684654649
583,4091.61,0.6128701296287539
584,4094.34,0.5827940587452889
585,4097.07,0.569727987861824
586,4099.8099999999995,0.5722381328359287
