,lambda (Angstroms),Total Flux (erg/s/cm^2/Angstrom)
0,100.08,1.4287520713102426
1,101.94,1.4247773550636629
2,104.07,1.4202256636626447
3,104.712855,1.4188519185983193
4,106.00999999999999,1.404291389286026
5,107.98,1.3821780238503425
6,109.98,1.3597279100679938
7,114.11,1.3133684231235578
8,118.11999999999999,1.2683559476566888
9,120.22644299999999,1.2447111098908197
10,120.87,1.2386546068863395
11,125.12,1.1986577839391546
12,126.86,1.1822826222432166
13,128.03,1.1712717375833666
14,131.02,1.1431328088116506
15,131.92000000000002,1.1346629607563585
16,134.07,1.1144292925985888
17,136.88,1.0879844750373109
18,138.038426,1.0770825321130675
19,140.06,1.063483776890771
20,143.0,1.0437085341237753
21,147.0,1.0168055748675502
22,151.12,0.9890920329911781
23,155.0,0.9629931707720996
24,158.489319,0.9395223725506642
25,158.97000000000003,0.9370779939899454
26,161.92999999999998,0.9220257405153435
27,166.08,0.9009223943922691
28,169.95,0.8812429388153062
29,173.11,0.8651739952763388
30,177.14000000000001,0.8446811335758837
31,180.02,0.8300363531930274
32,181.970086,0.8201201480494308
33,182.11,0.8195773893868206
34,185.92000000000002,0.8047978661885522
35,191.13000000000002,0.7845874728184005
36,193.79,0.7742696133588222
37,197.85,0.7585205882673604
38,201.99,0.7424616679220766
39,204.8,0.7315621612265821
40,208.929613,0.715542072223611
41,210.04999999999998,0.7122745784213006
42,215.94,0.6951022346430242
43,219.95000000000002,0.6834100484684422
44,223.01000000000002,0.6744871031351952
45,227.16,0.6623872074177853
46,229.79,0.6547525614225107
47,234.06,0.6423765092612477
48,239.88329199999998,0.6254396566550259
49,240.06,0.62504394551979
50,246.22000000000003,0.6111963675781173
51,251.96,0.5983186035347405
52,257.23,0.5864417096585044
53,260.21,0.5797807719753576
54,263.83,0.5716631085709979
55,268.74,0.5606349217504438
56,273.73,0.5494265244397382
57,275.42287,0.5456238206315374
58,278.82,0.5397685599986791
59,284.01,0.5308231884060728
60,289.95,0.520571126383899
61,296.02,0.5101143806139334
62,300.83,0.5018211961456412
63,307.84,0.48974139488395124
64,316.227766,0.47528852246521824
65,317.93,0.4730986456688041
66,328.34000000000003,0.4596983352569583
67,338.32,0.446848061299396
68,347.8,0.4346404498142568
69,356.72,0.42315449677423134
70,363.078055,0.41496744713298767
71,365.87,0.4122756713817125
72,375.26,0.4032196422723473
73,384.88,0.39392954966679944
74,394.75000000000006,0.3844207685480097
75,404.88000000000005,0.3746508334074484
76,414.31,0.3655524994639645
77,416.86938299999997,0.3630825536482435
78,422.01000000000005,0.35929389029254033
79,429.86,0.3535093680267189
80,440.89000000000004,0.3453835010048067
81,451.16,0.3378118563283753
82,459.54,0.3316358366032054
83,470.25,0.32374190277939036
84,478.630092,0.31756677714455606
85,480.09000000000003,0.31673940567244196
86,490.15000000000003,0.3110314355712803
87,500.41,0.3052177438032963
88,506.21,0.30192693286544975
89,512.07,0.29861634716755625
90,520.39,0.29389828070774865
91,530.06,0.2884123204468905
92,539.92,0.2828141291125511
93,549.5408739999999,0.27735821067760213
94,549.95,0.2771811853806096
95,560.18,0.27276118666326943
96,570.59,0.2682615687338938
97,579.86,0.26424568611407523
98,590.65,0.259580847681514
99,600.24,0.25542417019585484
100,610.0,0.251166427187718
101,619.91,0.24692025903621828
102,629.98,0.24255977615179825
103,630.957344,0.24213715953929055
104,640.2199999999999,0.23896183406693333
105,650.62,0.23539238829560621
106,658.15,0.23280579191117423
107,664.24,0.2307211063950798
108,675.04,0.22701633203254787
109,684.4300000000001,0.22378590718901306
110,695.5500000000001,0.2199812861335172
111,705.22,0.21665351829613905
112,716.68,0.21273383204811908
113,724.43596,0.2100731861199081
114,726.65,0.20950922020735901
115,735.07,0.20736476948448712
116,745.29,0.20476163092323407
117,755.66,0.20212035163378256
118,764.41,0.19987038478887412
119,775.0500000000001,0.19718363430866545
120,785.83,0.1944358508221382
121,794.93,0.19212154651143346
122,804.13,0.18978029208192973
123,815.3199999999999,0.18693126599832682
124,824.76,0.1845312200437056
125,831.763771,0.18272983643176208
126,834.3100000000001,0.18223851879835815
127,845.92,0.18005079110077446
128,855.7099999999999,0.17818619878222627
129,865.62,0.1763024476639614
130,875.64,0.17439926363762298
131,885.7800000000001,0.17247327781156796
132,893.98,0.17091470506426504
133,904.33,0.16894212231370592
134,914.8000000000001,0.16703750926343014
135,925.39,0.16592733081343777
136,933.96,0.16555291077534193
137,944.7700000000001,0.1655246502092024
138,954.992586,0.16525386637360004
139,955.71,0.1652378097965769
140,964.55,0.16435513790807743
141,975.72,0.15658134785892142
142,984.7499999999999,0.15950582717191344
143,993.86,0.15818411935921772
144,1005.37,0.15894834477588862
145,1014.6700000000001,0.15690122316468438
146,1024.06,0.15011971891208145
147,1035.92,0.15030019927886834
148,1045.51,0.15425327071204592
149,1055.18,0.15223351201953575
150,1064.94,0.14790826268562682
151,1074.8,0.1478664201946082
152,1084.74,0.14361892757790173
153,1094.78,0.14472966980408555
154,1096.4782,0.1443380306157817
155,1104.91,0.14267782089841896
156,1115.13,0.14066276825765756
157,1125.45,0.13797889361649734
158,1135.87,0.13908057397493828
159,1143.74,0.13673734684354963
160,1154.3200000000002,0.13587611540135242
161,1165.0,0.1346149109587564
162,1175.78,0.12913534351576153
163,1183.93,0.13136570398325612
164,1194.8899999999999,0.12589623013954335
165,1205.94,0.12190636659547159
166,1214.3,0.11869843276212863
167,1225.54,0.1211520245172991
168,1234.03,0.12409963078343764
169,1245.45,0.1236490721378902
170,1254.08,0.12168854420347039
171,1258.92541,0.12016229374682943
172,1265.6899999999998,0.11832738221144139
173,1274.46,0.12078674700480957
174,1286.25,0.12022726935530113
175,1295.1699999999998,0.11597786512004966
176,1304.15,0.11481083527335023
177,1316.2099999999998,0.11662623737232637
178,1325.3400000000001,0.11496233849700725
179,1334.53,0.1122691140102403
180,1343.78,0.11376992391202545
181,1356.2099999999998,0.11194268640707299
182,1365.61,0.10930544728023843
183,1375.08,0.10898270660671469
184,1384.61,0.10807422032174306
185,1394.2099999999998,0.10525050249008226
186,1403.8700000000001,0.10465294904697353
187,1413.6000000000001,0.10385756405717564
188,1423.3999999999999,0.1031798975206886
189,1436.5700000000002,0.10162978080787888
190,1443.2,0.10167984574288816
191,1445.43977,0.10160880774786704
192,1446.53,0.10160998226885669
193,1456.5600000000002,0.10040462266191763
194,1466.6499999999999,0.09855944508125819
195,1473.42,0.09798891204646483
196,1483.6299999999999,0.09747580851836442
197,1493.92,0.09693213102530332
198,1504.27,0.09542339555852179
199,1511.22,0.09351798860256705
200,1518.19,0.09379171565537213
201,1525.1999999999998,0.09286518072569692
202,1535.77,0.09056783635527364
203,1546.42,0.09080009401988974
204,1553.56,0.08963193514715352
205,1564.32,0.08898151185994875
206,1575.1699999999998,0.08887225661216328
207,1586.09,0.08861819539503724
208,1593.41,0.08830609260113956
209,1604.45,0.0872265354365726
210,1615.5700000000002,0.08641033430704498
211,1626.77,0.08488522921255677
212,1634.28,0.08504602450187759
213,1645.6100000000001,0.08437715546432832
214,1653.21,0.08283053879306847
215,1659.58691,0.0829487733960524
216,1664.66,0.08315804738880053
217,1672.35,0.08134744427591471
218,1676.1999999999998,0.08260091227531517
219,1683.9399999999998,0.08275780472086312
220,1695.61,0.08129638805930559
221,1703.44,0.08040208251003432
222,1715.25,0.07919281341209132
223,1723.17,0.07872306986800086
224,1735.11,0.07882563922198568
225,1743.12,0.07811529768307601
226,1755.2,0.0782689646006754
227,1763.3,0.0767410350669465
228,1775.53,0.0764201786598472
229,1783.72,0.07619233113129911
230,1796.09,0.07637565228781436
231,1804.3799999999999,0.07576805587613383
232,1816.8799999999999,0.0741740454845769
233,1825.27,0.07396036018976387
234,1833.69,0.07302904223001112
235,1846.4,0.07142315218387603
236,1854.9299999999998,0.0710622904526776
237,1863.4899999999998,0.07095904505653942
238,1876.41,0.07111618735582617
239,1885.0700000000002,0.06978959807655552
240,1893.77,0.0689540702440319
241,1905.46072,0.06881569471931505
242,1906.9,0.06881907426886391
243,1915.6999999999998,0.06812044562105146
244,1924.54,0.06756858179756715
245,1933.42,0.06736096979841094
246,1946.82,0.06748570094833291
247,1955.81,0.06648985046607905
248,1964.84,0.06713579380815331
249,1973.91,0.0670140709745557
250,1983.02,0.06612665196528623
251,1996.77,0.06529840657807928
252,2005.98,0.06518409712963011
253,2015.24,0.0644600224615911
254,2024.54,0.06446204161788022
255,2033.8899999999999,0.0637106055545795
256,2043.2800000000002,0.06383206331560688
257,2052.71,0.06295468490096241
258,2066.94,0.06242480540569296
259,2071.7,0.06300390050073987
260,2076.48,0.06318125750795084
261,2086.06,0.06362791343453682
262,2095.69,0.06251328414153297
263,2105.36,0.062083828672857236
264,2115.08,0.062054427984591674
265,2124.84,0.061566421120654226
266,2134.65,0.06032717903712694
267,2144.5,0.06077491077792778
268,2154.4,0.06071706729913877
269,2164.35,0.05968385860075992
270,2174.3399999999997,0.05924252372670921
271,2184.37,0.05933154267698661
272,2187.7616199999998,0.05932013240907198
273,2194.46,0.059381887637206726
274,2204.5899999999997,0.058783868831259724
275,2214.76,0.05740143719685881
276,2224.98,0.057231559526890546
277,2235.25,0.05844913582135493
278,2245.57,0.05759686608025194
279,2255.94,0.056146000303581606
280,2266.35,0.05587195169845738
281,2276.81,0.05609380705776578
282,2287.3199999999997,0.05702240638150685
283,2292.5899999999997,0.05572950623270717
284,2303.17,0.0561562231066539
285,2313.81,0.054879410737919826
286,2324.49,0.05231139354073187
287,2335.21,0.05284342051509
288,2345.9900000000002,0.05163487724676731
289,2356.82,0.05327641694287726
290,2367.7000000000003,0.05116656560341985
291,2373.16,0.05173265151946422
292,2384.11,0.0500845667302125
293,2395.12,0.05056535069827996
294,2406.17,0.04997503883789353
295,2417.28,0.05014841773482626
296,2422.85,0.05187334037262244
297,2434.04,0.0513516216126474
298,2445.27,0.05218592002421847
299,2456.56,0.05209389919310872
300,2462.22,0.05112911396688364
301,2473.59,0.0501136174788661
302,2485.0,0.04860821216239469
303,2496.4700000000003,0.048403093603242436
304,2502.2299999999996,0.05053200230588265
305,2511.88643,0.047642583403226406
306,2513.7799999999997,0.047088690089215554
307,2519.5699999999997,0.0467839404552289
308,2525.3799999999997,0.0465193585979815
309,2537.04,0.047455264436965204
310,2542.89,0.04742108613319631
311,2554.6200000000003,0.050348973190767386
312,2566.4199999999996,0.04834678146692586
313,2572.33,0.04984455949337471
314,2584.21,0.04886811887649018
315,2596.1299999999997,0.048010423813084166
316,2602.12,0.047052720946490025
317,2614.13,0.04636062387841063
318,2626.2000000000003,0.047672706140549
319,2632.25,0.05150625860417262
320,2644.4,0.054875442973267984
321,2656.6,0.059649316784211495
322,2662.73,0.05243125035479211
323,2675.02,0.05401945916106224
324,2687.37,0.055715421297550125
325,2693.56,0.05148770819834851
326,2706.0,0.053925155330163024
327,2712.23,0.049915807784439915
328,2724.75,0.04772516602321143
329,2737.33,0.04977864759220072
330,2743.64,0.044802881153434615
331,2756.2999999999997,0.0464899438293809
332,2762.6600000000003,0.04880098683246291
333,2775.41,0.049415444503735834
334,2781.81,0.04505904306029636
335,2794.65,0.04066151772689591
336,2807.5499999999997,0.041277655723713225
337,2814.02,0.04739860749886113
338,2827.0099999999998,0.051682418491005064
339,2833.52,0.05069096981963146
340,2846.6000000000004,0.04685769580710202
341,2853.17,0.0428345004659462
342,2866.3300000000004,0.05046584756037376
343,2872.94,0.05496692777269644
344,2884.0315,0.05318879635764064
345,2886.2,0.052853646415975813
346,2892.8599999999997,0.05636173413560008
347,2912.9100000000003,0.06343873778101548
348,2933.1000000000004,0.05947281239951609
349,2946.64,0.05747228079646993
350,2967.0600000000004,0.058471859870753345
351,2987.63,0.05853168141619948
352,3008.3399999999997,0.058593613934730816
353,3029.19,0.05981938742634733
354,3050.19,0.06054072338912656
355,3071.33,0.06266136032499098
356,3092.62,0.061848999732018115
357,3106.9,0.06608777898670798
358,3128.43,0.06338225434759547
359,3150.1200000000003,0.06310261367772314
360,3171.9599999999996,0.06577800547901355
361,3186.6,0.06076161866449392
362,3208.68,0.06386638641964466
363,3230.9300000000003,0.05809826964211312
364,3253.32,0.06903825383766679
365,3268.34,0.0754198539500927
366,3290.99,0.07412186709566172
367,3311.31121,0.0714585298598105
368,3313.8,0.07114239857902886
369,3321.44,0.06919325765719093
370,3329.1,0.07351961052875133
371,3336.77,0.0735262952970109
372,3344.47,0.07041803575536795
373,3352.1800000000003,0.06730677811042417
374,3359.9,0.07200915236217956
375,3367.6499999999996,0.07201158230403244
376,3375.41,0.06001876414258449
377,3383.1899999999996,0.06285628977453486
378,3390.99,0.07245656919988357
379,3398.81,0.07137450241863061
380,3406.65,0.07257224943077598
381,3414.4999999999995,0.0715924483396205
382,3422.3700000000003,0.07696951104186336
383,3430.2599999999998,0.07302617753750455
384,3438.1699999999996,0.07404824782654408
385,3446.09,0.05817928001228276
386,3454.04,0.07236680788811894
387,3462.0,0.06407628766065428
388,3469.9799999999996,0.06904466122658796
389,3477.98,0.06332144858591997
390,3486.0,0.0686231597386503
391,3494.03,0.06329447278807981
392,3502.09,0.0740840415276068
393,3510.16,0.07351114216383298
394,3518.25,0.06798603659345745
395,3526.36,0.06360538481648027
396,3534.4900000000002,0.07271859683290142
397,3542.6400000000003,0.0793812326427209
398,3550.81,0.07736401224593872
399,3558.9900000000002,0.07329469374585569
400,3567.2,0.06973353093587016
401,3575.42,0.0639884500225838
402,3583.6600000000003,0.05676529290269576
403,3591.92,0.05833380957620607
404,3600.2000000000003,0.07855556004311469
405,3608.5,0.06790662430342165
406,3610.04,0.06420577639509306
407,3612.79,0.05524873798736343
408,3615.53,0.07140625768293465
409,3618.2799999999997,0.06449163927520503
410,3621.02,0.07357450897077625
411,3623.77,0.07631065056304662
412,3626.5199999999995,0.089700492155317
413,3629.26,0.0748140918508882
414,3632.0099999999998,0.0664144234431586
415,3634.75,0.07533911313872979
416,3637.5,0.07452980473100017
417,3640.2400000000002,0.07636417442657138
418,3642.99,0.07876308601884177
419,3645.7400000000002,0.07530815761111215
420,3648.48,0.07079964730668335
421,3651.2299999999996,0.06480166889895372
422,3653.9700000000003,0.06716733859452494
423,3656.72,0.07239731018679532
424,3659.46,0.07878647988236653
425,3662.21,0.08799470147463691
426,3664.96,0.08106673306690729
427,3667.7,0.07026750276247849
428,3670.4500000000003,0.08457053435474887
429,3673.19,0.08102098405032009
430,3675.9399999999996,0.07926605564259045
431,3678.68,0.08727124533816169
432,3681.43,0.07568532693043206
433,3684.1800000000003,0.06940690852270243
434,3686.92,0.08273459821827364
435,3689.67,0.07731078981054403
436,3692.41,0.06965140950611523
437,3695.1600000000003,0.08580569109838561
438,3697.9,0.07721579079395682
439,3700.6499999999996,0.0789570623862272
440,3703.4,0.06416469397849757
441,3706.14,0.07718933367406879
442,3708.8900000000003,0.06679356526633916
443,3711.63,0.07304598496191037
444,3714.38,0.08150907655418076
445,3717.12,0.06856539624975197
446,3719.8700000000003,0.07136065784202233
447,3722.62,0.08888522943429272
448,3725.3599999999997,0.09423554912986393
449,3728.11,0.1154845707221343
450,3730.85,0.10926980041770552
451,3733.6000000000004,0.0850230020099759
452,3736.34,0.0921057817055471
453,3739.0899999999997,0.07661805329781748
454,3741.84,0.08167995489008786
455,3744.58,0.06453726458565907
456,3747.33,0.07767162617792946
457,3750.0699999999997,0.07590087587350067
458,3752.82,0.06499232746577104
459,3755.5699999999997,0.08637174905804142
460,3758.3100000000004,0.08460681875361263
461,3761.06,0.084011870345883
462,3763.7999999999997,0.07745630004145422
463,3766.55,0.0735262516337246
464,3769.29,0.07802188132929581
465,3772.04,0.07834995292156618
466,3774.79,0.07749660451383657
467,3777.53,0.09532869420940777
468,3780.2799999999997,0.08426946580167816
469,3783.0200000000004,0.08379662549724937
470,3785.77,0.08617988708951974
471,3788.5099999999998,0.09354658678509095
472,3791.26,0.09255180837736134
473,3794.0099999999998,0.08491114996963171
474,3796.75,0.08265370966520291
475,3799.5,0.0680224112574733
476,3801.8939600000003,0.08214092114769656
477,3802.2400000000002,0.08418269553649214
478,3804.99,0.08948244167066804
479,3807.7299999999996,0.08669973745526512
480,3810.48,0.10158884358944102
481,3813.23,0.09313320972361692
482,3815.9700000000003,0.084967735508214
483,3818.72,0.0953141916423899
484,3821.46,0.09721320742698698
485,3824.21,0.08882131356116288
486,3826.9500000000003,0.07977509934575995
487,3829.7,0.06908642547993586
488,3832.45,0.06971205161411176
489,3835.19,0.07096030739870884
490,3837.94,0.06347177353288473
491,3840.6800000000003,0.06758349931748181
492,3843.43,0.07734478545165771
493,3846.17,0.08578886123625479
494,3848.92,0.0853871473704307
495,3851.6699999999996,0.08685115350460659
496,3854.41,0.08712197928920366
497,3857.16,0.08645372542337956
498,3859.9,0.09642981120797665
499,3862.65,0.10623739734215255
500,3865.3900000000003,0.09815305312674963
501,3868.14,0.10333689926092553
502,3870.8900000000003,0.10243105539510143
503,3873.63,0.09604442117969851
504,3876.3799999999997,0.09548044731387441
505,3879.12,0.09650453309847148
506,3881.87,0.09091120923264738
507,3884.61,0.08226480501724447
508,3887.36,0.08960990115142037
509,3890.11,0.08723816728559626
510,3892.85,0.09604961307019334
511,3895.6000000000004,0.09306367920436924
512,3898.34,0.08737809498896631
513,3901.0899999999997,0.09211580112314222
514,3903.84,0.09791961725731813
515,3906.58,0.0988162530419152
516,3909.33,0.0897754191760911
517,3912.07,0.10186636496068818
518,3914.82,0.11302398109486407
519,3917.56,0.11066431687946116
520,3920.3100000000004,0.10581262301363706
521,3923.06,0.09777417914781296
522,3925.7999999999997,0.08647986493241003
523,3928.55,0.08041145106658593
524,3931.29,0.073336406851183
525,3934.04,0.06279666298535891
526,3936.7799999999997,0.06914087876995599
527,3939.53,0.07805796490413189
528,3942.28,0.08928514103830779
529,3945.02,0.08532622682290487
530,3947.77,0.08820401295708077
531,3950.5099999999998,0.09800625874167784
532,3953.26,0.09664267487585375
533,3956.0,0.09963100066045083
534,3958.7499999999995,0.09446645679462673
535,3961.5,0.08759844292880263
536,3964.24,0.07670563871339971
537,3966.9900000000002,0.07123173484757561
538,3969.73,0.07522875063217269
539,3972.48,0.06623662676634857
540,3975.22,0.08139612255094567
541,3977.9700000000003,0.09434418868512157
542,3980.72,0.10347964481929746
543,3983.4599999999996,0.10444001060389455
544,3986.21,0.10677890673807044
545,3988.95,0.11227034252266752
546,3991.7000000000003,0.12115083865684342
547,3994.44,0.1177598244414405
548,3997.19,0.1231406005756164
549,3999.94,0.1176631567097923
550,4002.6800000000003,0.11886692249438938
551,4005.43,0.11546955862856528
552,4008.1699999999996,0.12052642441316236
553,4010.92,0.12290587054733826
554,4013.66,0.12144428633193534
555,4016.4100000000003,0.12059643246611124
556,4019.16,0.12170107860028713
557,4021.9,0.1257903943848842
558,4024.65,0.1272948405190601
559,4027.3900000000003,0.1253350563036572
560,4030.14,0.1229922024378331
561,4032.8799999999997,0.11270610822243017
562,4035.63,0.11525358435660607
563,4038.3799999999997,0.11657267049078197
564,4041.1200000000003,0.11912066627537905
565,4043.87,0.11955907240955495
566,4046.61,0.12267488819415202
567,4049.36,0.11858222432832793
568,4052.1099999999997,0.12335468046250382
569,4054.85,0.12153969624710091
570,4057.6,0.12528644238127679
571,4060.34,0.12032525816587389
572,4063.0899999999997,0.11583860430004979
573,4065.8300000000004,0.12258162008464686
574,4068.58,0.11301922621882277
575,4071.3300000000004,0.11330117235299866
576,4074.07,0.11364159813759574
