,lambda (Angstroms),Total Flux (erg/s/cm^2/Angstrom)
0,102.07000000000001,8.652471257012582
1,103.97,8.627809454266949
2,104.712855,8.618167273542067
3,105.9,8.537225949981078
4,108.12,8.385863026141688
5,109.88,8.26586359218889
6,114.0,7.984955824720143
7,118.01,7.711548022452989
8,120.22644299999999,7.560427631753762
9,121.04,7.51392225483963
10,125.0,7.287556675200031
11,127.03,7.171515734934841
12,127.91,7.121212274078326
13,130.89,6.950866462253036
14,132.1,6.881699206678271
15,133.94,6.77651924490054
16,137.06,6.598170620193892
17,138.038426,6.542240834697424
18,139.93,6.464952652436076
19,142.86,6.345235273145705
20,146.85999999999999,6.181798581870034
21,150.98,6.01345876243126
22,154.85,5.855333759047597
23,158.489319,5.706634206235653
24,158.82,5.696419379293675
25,162.15,5.593554768536461
26,165.92,5.4770984760789725
27,170.17999999999998,5.345505957301892
28,172.95000000000002,5.259939966673855
29,176.97,5.135761172189878
30,179.85000000000002,5.046797289745222
31,181.93,4.98254559718125
32,181.970086,4.981307331367172
33,186.17000000000002,4.882330979962617
34,190.95000000000002,4.769684246113432
35,194.04999999999998,4.696628849255137
36,198.10999999999999,4.600949890000902
37,201.8,4.513990523631894
38,205.07000000000002,4.4369289467053585
39,208.929613,4.345972443894388
40,209.85,4.329665585952271
41,216.23,4.216628889131364
42,220.25,4.145405194092585
43,222.8,4.100226071875412
44,226.94,4.0268764061992375
45,230.1,3.970896193427132
46,233.83999999999997,3.9046421705759453
47,239.83,3.7985215851460756
48,239.88329199999998,3.797577402036227
49,245.98999999999998,3.7142029977214785
50,251.72,3.6359738715698633
51,256.99,3.564018134026825
52,259.96,3.5234741670666683
53,264.19,3.465724388664325
54,269.1,3.3986895787319114
55,274.1,3.3304259113743417
56,275.42287,3.3123651132401046
57,279.2,3.2727893184343033
58,283.72999999999996,3.2253256078605057
59,289.67,3.1630860560043343
60,295.74,3.099487441632271
61,301.24,3.0418580481398894
62,308.26,2.9683055189116874
63,316.227766,2.8848225126898
64,318.35,2.868214843049683
65,328.03,2.7924625114921495
66,337.99999999999994,2.7144400118793177
67,348.27,2.6340695470854882
68,357.20000000000005,2.5641858989654485
69,363.078055,2.518185985553421
70,366.36,2.4989521964764148
71,374.90000000000003,2.4489032698323916
72,385.4,2.387364654484823
73,395.29,2.3294059684475408
74,405.43,2.269979963178174
75,413.90999999999997,2.220282050613852
76,416.86938299999997,2.2029382288304995
77,421.60999999999996,2.1817218923986017
78,430.44,2.142203094169707
79,441.48,2.092795202137997
80,450.72,2.05144245853211
81,460.16,2.0091940192789086
82,469.8,1.9660515024783942
83,478.630092,1.9265339868389721
84,479.64,1.9230580721360262
85,489.67999999999995,1.888501624125365
86,499.93,1.853224684382608
87,505.71999999999997,1.8333703946262605
88,511.58000000000004,1.8135154701925476
89,519.89,1.7849213294510542
90,529.5500000000001,1.7516870070746606
91,539.4,1.7177639377311338
92,549.43,1.6833739417029532
93,549.5408739999999,1.6829936016627332
94,559.64,1.656594212206925
95,570.05,1.6293441863872546
96,580.65,1.6014899104947944
97,590.0799999999999,1.5768671831768797
98,599.67,1.5517033069239843
99,609.41,1.5262746419820443
100,619.31,1.5004529525051244
101,629.38,1.4741013716472873
102,630.957344,1.4699689284540853
103,639.6,1.452030093213536
104,650.0,1.4305283967839408
105,657.5200000000001,1.4149532397963873
106,665.14,1.399212179189319
107,674.39,1.3800496688841504
108,685.35,1.357233960785269
109,694.88,1.3377792471454577
110,704.5500000000001,1.317579219838325
111,716.0,1.2941758129038188
112,724.43596,1.276717792806585
113,725.9599999999999,1.2743814395070892
114,734.36,1.261542491306848
115,744.5799999999999,1.246015826496555
116,754.94,1.2301920097162575
117,765.44,1.2141539569659563
118,774.3,1.2007404858642734
119,785.0699999999999,1.1843966866718219
120,794.17,1.1705328606215606
121,805.2099999999999,1.153670312986958
122,814.54,1.139447623485976
123,825.8699999999999,1.122318314413508
124,831.763771,1.1129439671151815
125,835.4300000000001,1.1085432575613734
126,845.11,1.0981781756481197
127,854.89,1.0871303652440267
128,864.79,1.0760676656509265
129,874.8000000000001,1.0648868402179024
130,884.9300000000001,1.0536067055958713
131,895.18,1.0421132007848335
132,905.55,1.030340493784788
133,916.0300000000001,1.0215884019448187
134,924.5100000000001,1.0652707859216382
135,935.21,1.1239476024018225
136,946.04,1.237023974343916
137,954.8,1.3052255685463845
138,954.992586,1.3062983800008288
139,965.85,1.3670511219989074
140,974.79,1.060712660209682
141,986.08,1.3567536981738475
142,995.1999999999999,1.333883321046584
143,1004.4100000000001,1.401431636250301
144,1016.04,1.355479545242617
145,1025.44,1.0953058442561827
146,1034.93,1.2622700356007295
147,1044.51,1.4407625192762574
148,1054.17,1.419341696134879
149,1063.92,1.343333265324482
150,1073.77,1.3868488259929526
151,1086.2,1.3124151668162103
152,1096.25,1.3783338104424163
153,1096.4782,1.3773404874419293
154,1103.85,1.3467620009337273
155,1114.0700000000002,1.3360327542763821
156,1124.37,1.2795706869015633
157,1134.78,1.3360851410402168
158,1145.28,1.2910428218717118
159,1155.8799999999999,1.2986193768063639
160,1163.89,1.3001023524692472
161,1174.66,1.1655751133792662
162,1185.53,1.2649060483924428
163,1193.74,1.1874356722616402
164,1204.79,1.089834560660499
165,1215.9399999999998,0.9069241231625154
166,1224.3700000000001,1.1087871900586583
167,1235.69,1.2001151585360414
168,1244.26,1.2168442891766047
169,1255.77,1.1974317584499863
170,1258.92541,1.1865837756372788
171,1264.48,1.168963269949574
172,1276.18,1.2059416298657069
173,1285.02,1.2040129506912296
174,1293.93,1.140104499396592
175,1305.9,1.1380795668492514
176,1314.96,1.1803564752971287
177,1324.07,1.1552738036591776
178,1336.32,1.1227680826311972
179,1345.5800000000002,1.1448528707357601
180,1354.91,1.136189586720164
181,1364.3,1.1043125266015732
182,1373.76,1.1004683943628226
183,1386.47,1.0956996565452197
184,1396.0800000000002,1.0269975840489838
185,1405.76,1.0346403394325878
186,1415.5,1.0564248187131975
187,1425.32,1.043027429856482
188,1435.2,1.042262864896772
189,1441.82,1.0484266015330796
190,1445.43977,1.044117636329744
191,1448.48,1.041104143383539
192,1455.16,1.0310386060124843
193,1465.2499999999998,1.0081930712708762
194,1475.4,1.0035248119421027
195,1485.63,0.9965899198304424
196,1495.93,0.9896223990337562
197,1506.3,0.967477449552044
198,1513.2499999999998,0.935367701538746
199,1516.74,0.9469547713853057
200,1523.74,0.9437319028827033
201,1534.3000000000002,0.9013948755416346
202,1544.9399999999998,0.9031548154176792
203,1555.65,0.8840768266086974
204,1566.43,0.8932587091146899
205,1573.66,0.9075537463612878
206,1584.57,0.9055363755950891
207,1595.55,0.9055507761438641
208,1606.61,0.8893934439097525
209,1614.03,0.8830077032969941
210,1625.22,0.8719809177906912
211,1636.4799999999998,0.8786317035993623
212,1644.04,0.8731458056165518
213,1655.43,0.8580740381530316
214,1659.58691,0.861531441463421
215,1666.91,0.8686324244220296
216,1670.75,0.8477191632947525
217,1678.46,0.8689546671251411
218,1686.21,0.8674788724021207
219,1693.99,0.8509387037640435
220,1705.73,0.8374093783384616
221,1713.6100000000001,0.8234697633168615
222,1725.48,0.8168355175926999
223,1733.45,0.8265492808259292
224,1745.46,0.8150692901648355
225,1753.52,0.8219982316528944
226,1765.68,0.7992401714165166
227,1773.8300000000002,0.7993854911594048
228,1786.12,0.7982081106244474
229,1794.3700000000001,0.8049850839838126
230,1806.8000000000002,0.8009819585119231
231,1815.14,0.7787261101261179
232,1823.5199999999998,0.7805920631869037
233,1836.16,0.7692242203096161
234,1844.6399999999999,0.742839526986879
235,1853.15,0.7400989597490849
236,1865.9999999999998,0.7436737994663996
237,1874.61,0.7523411858450827
238,1883.26,0.7261777736703567
239,1896.32,0.7079765959822732
240,1905.0700000000002,0.7225137374240242
241,1905.46072,0.7219057541181465
242,1913.86,0.7095596361823024
243,1927.1299999999999,0.6982998430616152
244,1936.03,0.7034956112775823
245,1944.96,0.7147495902852886
246,1953.94,0.6911578539458936
247,1967.48,0.7068910579508594
248,1976.56,0.7132809909172617
249,1985.69,0.6950482085365628
250,1994.85,0.6855203369476033
251,2004.06,0.6882431500115422
252,2013.3100000000002,0.6844186107978001
253,2027.27,0.6868847658871149
254,2036.6200000000001,0.6724259959791703
255,2046.02,0.6742362107241243
256,2055.4700000000003,0.6592371101219769
257,2064.96,0.6609404572421487
258,2074.49,0.6757273520846394
259,2079.27,0.6615399049017543
260,2084.06,0.666064894649449
261,2093.68,0.6510041218671573
262,2103.35,0.6534551337377642
263,2113.06,0.6527485933306902
264,2122.81,0.6528631006459351
265,2132.61,0.6402265926140785
266,2147.3900000000003,0.6359659760109317
267,2157.3,0.6391200742154525
268,2167.26,0.6304882570728718
269,2177.26,0.6257949876526102
270,2187.31,0.6226500028852473
271,2187.7616199999998,0.6228216542520102
272,2197.41,0.6272262652531326
273,2202.48,0.6201877084940547
274,2212.64,0.6101990975133385
275,2222.85,0.6040834928762211
276,2233.11,0.6114682945827026
277,2243.42,0.603776002632783
278,2253.7799999999997,0.5939936170264621
279,2264.1800000000003,0.5930653364950202
280,2274.63,0.5943275623071773
281,2285.13,0.5963725944629332
282,2295.68,0.5823024329622881
283,2306.27,0.5850075765365219
284,2316.92,0.5768788277230743
285,2327.61,0.5396526839845057
286,2332.98,0.5625236652870209
287,2343.75,0.5520697316982106
288,2354.57,0.5633336044529991
289,2365.44,0.5480512835513864
290,2376.35,0.5510611677246529
291,2387.32,0.5348685595102377
292,2392.83,0.5418290585748297
293,2403.87,0.5348857592414531
294,2414.97,0.5344647675203951
295,2426.11,0.542689280874216
296,2437.31,0.5342911018403557
297,2442.9300000000003,0.539426214860865
298,2454.21,0.5363379459767628
299,2465.5299999999997,0.5312569821675397
300,2476.91,0.5229419259706352
301,2482.62,0.5214180504096224
302,2494.08,0.507005204362476
303,2505.6,0.5250571659276481
304,2511.37,0.504325697978954
305,2511.88643,0.504300851772506
306,2517.16,0.504262052081402
307,2522.96,0.49929606162490425
308,2534.61,0.4998007247596977
309,2546.31,0.4966231319422801
310,2552.18,0.5071623031526867
311,2563.96,0.5007749808117311
312,2575.79,0.5063777025185643
313,2587.68,0.5031160770827441
314,2593.65,0.49926543638872833
315,2605.6200000000003,0.49168478142937017
316,2617.65,0.48604907932735864
317,2623.68,0.49272149149068956
318,2635.79,0.49826605986514005
319,2647.9599999999996,0.5119356810969372
320,2654.06,0.5173662549271725
321,2666.31,0.49928234663543164
322,2672.46,0.5044748645134556
323,2684.7900000000004,0.5057302266981769
324,2697.19,0.4906206505498026
325,2703.4,0.4957081212851733
326,2715.88,0.48219101561326094
327,2722.1400000000003,0.4783787303964203
328,2734.71,0.48442960401052804
329,2747.33,0.45995202167242444
330,2753.66,0.46509829812248826
331,2766.3700000000003,0.47148649507040447
332,2772.75,0.47694231556825706
333,2785.55,0.46204309180219316
334,2791.97,0.42588344753827684
335,2804.86,0.43383780305823283
336,2817.81,0.4680690114355355
337,2824.3,0.4748448288385234
338,2837.3399999999997,0.4676970165018459
339,2843.8799999999997,0.4595780779526227
340,2857.0099999999998,0.445652944901965
341,2863.5899999999997,0.4653157415909729
342,2876.8100000000004,0.46821038782633495
343,2883.44,0.46492952856313163
344,2884.0315,0.4649464969925754
345,2896.75,0.4657564047116443
346,2910.12,0.4796536312552302
347,2930.29,0.46950599650460384
348,2950.6,0.46213108402144965
349,2971.06,0.4630591525391584
350,2991.65,0.46079018459094845
351,3012.39,0.4591537976436014
352,3033.27,0.4581424329637266
353,3047.2700000000004,0.45832035971093676
354,3068.39,0.45665530463244264
355,3089.6600000000003,0.45368083055481145
356,3111.08,0.4539302374780433
357,3132.64,0.44708546666874716
358,3147.1,0.4446713951519372
359,3168.92,0.44613255141080355
360,3190.8799999999997,0.43370842993714204
361,3212.9999999999995,0.43882194819773424
362,3227.83,0.4270939498163863
363,3250.21,0.4416388951451411
364,3272.7400000000002,0.4490503214747589
365,3287.84,0.4458628088949642
366,3310.63,0.4407694622927445
367,3311.31121,0.44025097609286845
368,3318.26,0.43513258733455573
369,3325.9100000000003,0.43536163634155767
370,3333.58,0.4434656935812577
371,3341.27,0.42438055905365574
372,3348.97,0.44463552864240286
373,3356.69,0.43303730646384797
374,3364.43,0.40216279251799114
375,3372.1800000000003,0.40463298268848336
376,3379.96,0.4298420852080226
377,3387.75,0.43134499184391084
378,3395.5600000000004,0.4264328067124971
379,3403.39,0.43767992981378157
380,3411.23,0.4168407570314149
381,3419.09,0.42642499248174637
382,3426.98,0.43309894028112483
383,3434.88,0.4433385921968524
384,3442.79,0.42513504822892895
385,3450.73,0.4298518166100525
386,3458.6899999999996,0.4236235932238742
387,3466.66,0.4225506739540449
388,3474.65,0.4338003629169136
389,3482.6600000000003,0.42423646011248034
390,3490.69,0.43760726554074514
391,3498.73,0.41701397508535903
392,3506.7999999999997,0.4313838969790199
393,3514.88,0.4186523229890299
394,3522.99,0.43316636134808684
395,3531.11,0.4228752038234928
396,3539.25,0.43495845453159687
397,3547.41,0.44410921347239896
398,3555.58,0.44159517652955005
399,3563.7799999999997,0.43363185193574827
400,3572.0,0.4148932355746445
401,3580.23,0.4125603233298898
402,3588.48,0.38867921931783306
403,3596.7599999999998,0.4167282276548234
404,3605.05,0.4300482401081628
405,3613.36,0.41136676079420026
406,3621.69,0.4084032897129357
407,3630.04,0.44812602686436925
408,3638.4,0.42823236813215176
409,3646.79,0.42709722174898135
410,3648.0099999999998,0.4179376239435621
411,3650.7400000000002,0.30324574770684515
412,3653.47,0.36575247147012824
413,3656.2,0.4263537952334113
414,3658.9300000000003,0.49549261899669433
415,3661.66,0.5411565427599774
416,3664.3900000000003,0.5165784665232604
417,3667.12,0.4430104902865435
418,3669.85,0.44692731404982655
419,3672.59,0.40344004192945865
420,3675.32,0.4671067656927417
421,3678.0499999999997,0.38353608945602474
422,3680.78,0.36938861321930777
423,3683.5099999999998,0.42853633698259086
424,3686.2400000000002,0.42670046074587387
425,3688.97,0.44717928450915695
426,3691.7,0.40986220827244
427,3694.4300000000003,0.391232232035723
428,3697.16,0.4226668557990061
429,3699.8900000000003,0.31728197956228915
430,3702.62,0.29180000332557227
431,3705.35,0.3989605270888553
432,3708.0800000000004,0.4427678508521383
433,3710.81,0.3960703746154214
434,3713.54,0.40174599837870445
435,3716.27,0.4430373221419875
436,3719.0,0.32683074590527056
437,3721.7299999999996,0.40268726966855367
438,3724.46,0.5827526934318367
439,3727.2,0.8913646213114688
440,3729.9300000000003,1.0244427450747517
441,3732.66,0.9956389688380348
442,3735.39,0.677831392601318
443,3738.12,0.48928271636460097
444,3740.85,0.45387104012788404
445,3743.5800000000004,0.40055386389116704
446,3746.31,0.4336616876544501
447,3749.04,0.3688513114177332
448,3751.77,0.3613481351810163
449,3754.5,0.5171808589442993
450,3757.2299999999996,0.40557908270758236
451,3759.96,0.4189372064708654
452,3762.69,0.4162829302341485
453,3765.42,0.4935807539974315
454,3768.15,0.42814717776071454
455,3770.8799999999997,0.38554140152399763
456,3773.61,0.4125913252872807
457,3776.34,0.42420284905056377
458,3779.0800000000004,0.43356487693019574
459,3781.81,0.5372564006934788
460,3784.54,0.5852407244567619
461,3787.27,0.478023948220045
462,3790.0,0.4890858719833281
463,3792.7300000000005,0.47316749574661104
464,3795.46,0.45213151950989416
465,3798.19,0.4085609432731772
466,3800.92,0.39602566703646025
467,3801.8939600000003,0.4075192240666783
468,3803.65,0.42827233938713444
469,3806.3799999999997,0.5062034441050528
470,3809.11,0.47102204882297116
471,3811.84,0.5086840535408895
472,3814.5699999999997,0.48868455825880797
473,3817.3,0.5370459629767264
474,3820.0299999999997,0.4170392676946447
475,3822.76,0.4361362724125631
476,3825.49,0.3872752771304815
477,3828.22,0.4974877818483998
478,3830.9500000000003,0.39254068656631824
479,3833.69,0.45504366822459524
480,3836.4199999999996,0.3847965729425136
481,3839.15,0.428736377660432
482,3841.8799999999997,0.3871183823783504
483,3844.61,0.4390582870962687
484,3847.34,0.4869920918141871
485,3850.0699999999997,0.4236700965321055
486,3852.8,0.44203420125002385
487,3855.5299999999997,0.5272081059679422
488,3858.26,0.5560028106858607
489,3860.9900000000002,0.49367011540377903
490,3863.72,0.4621773201216974
491,3866.4500000000003,0.5502338248396157
492,3869.18,0.5082615295575341
493,3871.91,0.5741742342754526
494,3874.64,0.5464555389933708
495,3877.37,0.4988037437112892
496,3880.1000000000004,0.5168259484292076
497,3882.83,0.5045455531471259
498,3885.56,0.48758725786504437
499,3888.3,0.3671756395233214
500,3891.0299999999997,0.3908038442412398
501,3893.76,0.5133518489591582
502,3896.4900000000002,0.5171082536770765
503,3899.22,0.4212486583949949
504,3901.9500000000003,0.4966513631129133
505,3904.68,0.49818486783083166
506,3907.41,0.49278087254875
507,3910.14,0.4436757772666684
508,3912.87,0.4935515819845868
509,3915.6000000000004,0.5158974867025051
510,3918.33,0.45329599142042354
511,3921.06,0.5217613961383419
512,3923.79,0.4947877008562603
513,3926.52,0.5054938055741787
514,3929.2500000000005,0.500089810292097
515,3931.98,0.41938731501001536
516,3934.71,0.39880141972793376
517,3937.44,0.3895744244458521
518,3940.18,0.4244254061041292
519,3942.91,0.4500079108220476
520,3945.6400000000003,0.4846163155399659
521,3948.37,0.46196642025788437
522,3951.1000000000004,0.4640494249758027
523,3953.83,0.5009419296937211
524,3956.56,0.5091198344116394
525,3959.29,0.47766373912955784
526,3962.02,0.49453774384747623
527,3964.75,0.4456402485653946
528,3967.48,0.36967685328331296
529,3970.21,0.3700866580012313
530,3972.9399999999996,0.3826247627191497
531,3975.67,0.38796886743706804
532,3978.4,0.39364287215498645
533,3981.13,0.4367156768729048
534,3983.86,0.5187506815908232
535,3986.5899999999997,0.5157161863087416
536,3989.32,0.5270940910266599
537,3992.0499999999997,0.5337573957445784
538,3994.7899999999995,0.5117400774028554
539,3997.52,0.5351485821207738
540,4000.25,0.4796678868386921
541,4002.98,0.5269787915566104
542,4005.71,0.5241029962745288
543,4008.4399999999996,0.5269678009924472
544,4011.17,0.5425472057103656
545,4013.9,0.5367768104282841
546,4016.63,0.5737671151462024
547,4019.36,0.6052000198641208
548,4022.0899999999997,0.5718386245820392
549,4024.82,0.5262510292999575
550,4027.5499999999997,0.5447129340178759
551,4030.28,0.5567748387357943
552,4033.01,0.5459600434537126
553,4035.74,0.558730248171631
554,4038.4700000000003,0.5496132528895494
555,4041.2,0.5595621576074677
556,4043.93,0.5233058623253861
557,4046.6600000000003,0.5384822670433045
558,4049.4,0.5202268487015815
559,4052.13,0.5999898534195
560,4054.86,0.5902743581374182
561,4057.5899999999997,0.5399846628553366
562,4060.32,0.5499089675732551
563,4063.05,0.6009695722911734
564,4065.7799999999997,0.5216474770090919
565,4068.51,0.5307168817270101
566,4071.24,0.5507664864449285
567,4073.9700000000003,0.581185791162847
568,4076.7,0.5486059958807653
569,4079.43,0.5592510005986837
570,4082.1600000000003,0.540741505316602
571,4084.89,0.5070502100345204
572,4087.6200000000003,0.5227762147524389
573,4090.35,0.5937822194703571
574,4093.08,0.5710955241882756
575,4095.81,0.529941528906194
576,4098.54,0.5373865336241124
577,4101.27,0.5507064383420306
578,4104.01,0.5579046200003077
579,4106.74,0.4972330247182261
580,4109.47,0.49808252943614445
581,4112.2,0.5084832341540628
582,4114.93,0.5331375388719812
583,4117.66,0.5192815435898995
584,4120.39,0.477211548307818
585,4123.12,0.5234355530257363
586,4125.849999999999,0.5097627577436548
587,4128.58,0.5095008624615731
588,4131.31,0.5130251671794914
589,4134.04,0.5267846718974099
590,4136.77,0.5269257766153282
591,4139.5,0.5281294813332466
592,4142.2300000000005,0.5455897860511649
593,4144.96,0.5338468907690833
594,4147.69,0.5215175954870017
595,4150.42,0.5351916002049201
596,4153.15,0.49601630492283844
597,4155.889999999999,0.5477828865811156
598,4158.62,0.5373712912990339
