,lambda (Angstroms),Total Flux (erg/s/cm^2/Angstrom)
0,102.00000000000001,90.44689609535007
1,103.9,90.18912588531991
2,104.712855,90.07884704107045
3,106.07000000000001,89.11168178599196
4,108.05,87.70064081022676
5,110.05,86.27534689531329
6,113.91999999999999,83.51740316995713
7,117.92,80.66681534013559
8,120.22644299999999,79.02313575368937
9,120.95,78.5908251647182
10,124.91,76.22480571864563
11,126.94,75.01192201271405
12,128.12,74.30689601616734
13,131.1,72.52640663507793
14,132.01,71.9827001462851
15,133.85,70.88333757545392
16,136.96,69.02517583902481
17,138.038426,68.38083824134404
18,140.15,67.47905109654322
19,143.09,66.22346914665711
20,147.10000000000002,64.51092370382003
21,150.87,62.90087474248871
22,155.1,61.09437418519632
23,158.489319,59.646902163609965
24,159.07999999999998,59.4561879499926
25,162.02999999999997,58.50371626211452
26,166.19,57.160569749674224
27,170.06,55.91105605138698
28,172.82,55.01993000772678
29,176.85,53.71875683730369
30,180.14,52.656508767651154
31,181.8,52.12054166379139
32,181.970086,52.06562569921292
33,186.04,51.06312318724549
34,190.81,49.88817528959228
35,193.91,49.12458232423496
36,197.97,48.12452186867821
37,202.12,47.10229260247738
38,204.93,46.41013256294851
39,208.929613,45.4249466726082
40,210.19,45.19153922397616
41,216.07999999999998,44.10078717440818
42,220.09,43.35818689558348
43,223.15,42.79151436029006
44,226.78,42.119285263322666
45,229.94,41.53409500826043
46,234.21,40.74334832257019
47,239.88329199999998,39.692729798897005
48,240.22000000000003,39.64467939325889
49,245.80999999999997,38.84694894522107
50,252.11999999999998,37.94647074980961
51,256.81,37.27717516543235
52,259.78000000000003,36.8533381982218
53,264.0,36.25111717801743
54,268.91,35.55042825640605
55,273.90999999999997,34.83689580223073
56,275.42287,34.62099948471852
57,279.0,34.229229532475635
58,284.19,33.660816936538176
59,290.14000000000004,33.009167712711125
60,296.21000000000004,32.34437770880362
61,301.03000000000003,31.81648808568675
62,308.04,31.048749069033956
63,316.227766,30.15202105774321
64,318.13,29.996416629106587
65,327.79999999999995,29.205402266769127
66,337.76,28.390665685929154
67,348.02,27.551388939074194
68,356.95,26.82090831329172
69,363.078055,26.31962932341821
70,366.09999999999997,26.134505563368066
71,374.63000000000005,25.61195959535163
72,385.13,24.96872844092875
73,395.01,24.363485173859523
74,405.14,23.742925480572367
75,413.62,23.223443469567528
76,416.86938299999997,23.02438660266209
77,422.28000000000003,22.771268851178736
78,430.14,22.403566221550882
79,441.17,21.887568218099705
80,451.45,21.406653798776755
81,459.84,21.01415702859295
82,469.47,20.563652375674465
83,478.630092,20.135130694657764
84,480.4,20.071451324707528
85,490.46,19.709499252814517
86,499.58000000000004,19.381375942563203
87,506.53,19.131317231995375
88,512.4,18.920132083052042
89,519.52,18.663963035197945
90,530.4,18.27250910537708
91,540.26,17.917749872773793
92,549.5408739999999,17.583835140900582
93,550.31,17.56272562637398
94,560.54,17.281958834423847
95,569.65,17.03193313512241
96,580.24,16.741271903063772
97,589.67,16.482462483576995
98,600.63,16.18164310632906
99,610.39,15.91374110537615
100,620.3100000000001,15.641520373630566
101,630.38,15.365137584473112
102,630.957344,15.349291924571903
103,640.63,15.138843116624797
104,649.54,14.944991380538427
105,658.58,14.748302757814882
106,664.67,14.615813014727236
107,675.4699999999999,14.380831692461939
108,684.8700000000001,14.17629803556622
109,694.39,13.969212444613111
110,705.6800000000001,13.723547277038463
111,715.49,13.510150846471657
112,724.43596,13.31551723819726
113,725.4499999999999,13.299141271418314
114,735.54,13.13619464211724
115,745.7700000000001,12.971007740761541
116,754.41,12.831492003447641
117,764.9,12.662061156719073
118,775.54,12.49028857346769
119,784.52,12.345280964235416
120,795.44,12.168949948674788
121,804.65,12.020234349174206
122,815.84,11.839536251672518
123,825.2900000000001,11.686975806135436
124,831.763771,11.582330497238436
125,834.84,11.545151500883534
126,844.51,11.428594241769526
127,854.2900000000001,11.310553146133639
128,864.18,11.19123041377588
129,874.1899999999999,11.070461607085162
130,884.31,10.948388114672568
131,894.5500000000001,10.824839144927019
132,904.91,10.699764233848516
133,915.39,10.574033517437055
134,925.99,10.458685356692637
135,934.56,10.373281770997389
136,945.38,10.275232967809222
137,954.13,10.204010283114538
138,954.992586,10.19385559345304
139,965.1700000000001,10.076697273756716
140,974.0999999999999,9.882518929540959
141,985.38,9.808298643163159
142,994.5,9.718431151410897
143,1006.02,9.649403503408038
144,1015.3299999999999,9.54328808411927
145,1024.72,9.343016614288814
146,1034.2,9.26096127509896
147,1046.18,9.250511031481405
148,1055.86,9.136366115937339
149,1065.63,8.95543783103387
150,1075.49,8.887704276771007
151,1085.44,8.710059953148745
152,1095.48,8.674518660167088
153,1096.4782,8.662044420445914
154,1105.62,8.567373328676954
155,1115.8500000000001,8.45348993973858
156,1126.1699999999998,8.328263261161453
157,1133.98,8.336497982509574
158,1144.47,8.206200634614799
159,1155.06,8.132852387121408
160,1165.75,8.040603740029404
161,1173.83,7.856843092461266
162,1184.69,7.854560976051612
163,1195.65,7.633319660043343
164,1203.94,7.491333603318112
165,1215.0800000000002,7.368157598032335
166,1226.32,7.366669713147946
167,1234.82,7.42203954726562
168,1246.25,7.350869463143859
169,1254.8899999999999,7.242533257823473
170,1258.92541,7.175231169881208
171,1263.59,7.110387878141456
172,1275.28,7.153565504036817
173,1284.12,7.124750762284467
174,1296.0,6.912188472689678
175,1304.99,6.847571387129312
176,1314.03,6.908895786966275
177,1326.1899999999998,6.804205995596525
178,1335.3799999999999,6.671824851625472
179,1344.64,6.720957407210677
180,1353.9599999999998,6.642380505272679
181,1366.49,6.491941025843158
182,1375.96,6.460835080097143
183,1385.5,6.40203063390739
184,1395.1,6.2788861301944285
185,1404.77,6.229611126037727
186,1414.51,6.167042121437286
187,1424.31,6.124499559313638
188,1434.1899999999998,6.0517776538257175
189,1440.81,6.039124140431988
190,1445.43977,6.016350307263492
191,1447.46,6.010618906629846
192,1454.1399999999999,5.961756060971573
193,1464.22,5.87017330464891
194,1474.3700000000001,5.825030587518451
195,1484.5900000000001,5.792736109580195
196,1494.88,5.756833170834143
197,1505.24,5.677381471280296
198,1512.1899999999998,5.587336605363381
199,1515.67,5.60742921091865
200,1526.18,5.538869466776668
201,1536.76,5.4284115618268896
202,1543.85,5.446017474294383
203,1554.5500000000002,5.3730852936740945
204,1565.3300000000002,5.324935029273468
205,1576.18,5.299962404065047
206,1583.45,5.294167403026777
207,1594.43,5.251215279175305
208,1605.48,5.193219094516038
209,1616.61,5.14586852607643
210,1624.07,5.081681688559857
211,1635.3300000000002,5.061556121477198
212,1646.67,5.015267370614204
213,1654.27,4.940541911482037
214,1659.58691,4.935834253239084
215,1665.73,4.939252433492089
216,1673.4199999999998,4.851254311771615
217,1677.28,4.902877244041961
218,1685.0200000000002,4.908808799423433
219,1696.6999999999998,4.835403550438369
220,1704.53,4.788330564603346
221,1716.3500000000001,4.719324351503734
222,1724.27,4.692899724452218
223,1736.22,4.686487351817669
224,1744.24,4.650392878970049
225,1756.3300000000002,4.646702742220952
226,1764.4299999999998,4.5729429327364475
227,1776.6599999999999,4.543927731872805
228,1784.8700000000001,4.527777472012583
229,1793.1,4.540289102993142
230,1805.53,4.4955685105372885
231,1813.87,4.422161491142131
232,1826.44,4.392393734571732
233,1834.8700000000001,4.344297173960079
234,1843.34,4.276472595029986
235,1856.12,4.231034542287766
236,1864.69,4.219131817561566
237,1873.29,4.2359988790965355
238,1886.28,4.149942130182496
239,1894.98,4.105272545921359
240,1903.7299999999998,4.102680838762172
241,1905.46072,4.0942054314531555
242,1916.93,4.048368318314588
243,1925.77,4.022271250452622
244,1934.66,4.014030686166099
245,1943.5900000000001,4.010709724739928
246,1957.07,3.9481524886789225
247,1966.1000000000001,3.972727334403634
248,1975.17,3.963824482988699
249,1984.29,3.913423335149206
250,1993.45,3.877910790170066
251,2007.27,3.8581001784220623
252,2016.53,3.8151314405938037
253,2025.84,3.8174491063409874
254,2035.19,3.7668746749485242
255,2044.59,3.7659721471315026
256,2054.02,3.7216311214597453
257,2063.5,3.6970712993634303
258,2073.0299999999997,3.7071057808425567
259,2077.81,3.674663022654751
260,2087.4,3.671099808424406
261,2097.03,3.620223697054415
262,2106.71,3.5968521892598653
263,2116.44,3.577835985040757
264,2126.21,3.5596741836820005
265,2136.02,3.4991451851835986
266,2145.88,3.4905543902606366
267,2155.79,3.4834230989131174
268,2165.74,3.443203910425951
269,2175.73,3.413706424799137
270,2185.7799999999997,3.382378843462854
271,2187.7616199999998,3.381316164510819
272,2195.86,3.3834430750955446
273,2206.0,3.3527814650288157
274,2216.1800000000003,3.311067613896734
275,2226.41,3.2808393114329633
276,2236.69,3.2940928576375024
277,2247.01,3.259160262776689
278,2257.38,3.221707216584186
279,2262.5899999999997,3.22466986782209
280,2273.03,3.2218177497652203
281,2283.52,3.2203708803766613
282,2294.06,3.1797571596564125
283,2304.65,3.163864887604473
284,2315.29,3.124401564220844
285,2325.98,3.0189280895055246
286,2336.71,3.0593464737248537
287,2347.5,3.031301696346155
288,2352.91,3.0568819422572986
289,2363.77,3.0043580930142335
290,2374.6800000000003,2.9992355924394776
291,2385.64,2.9550954405330336
292,2396.66,2.9628205270285606
293,2407.7200000000003,2.930209672458735
294,2413.27,2.933239974641147
295,2424.41,2.943080437940618
296,2435.6,2.9119079499083993
297,2446.84,2.9183427105444903
298,2452.48,2.90587252032986
299,2463.7999999999997,2.8832527988352474
300,2475.17,2.850075226008944
301,2486.6,2.838648591584613
302,2492.33,2.8121887089729407
303,2503.8300000000004,2.8393858026842436
304,2511.88643,2.7893489133807288
305,2515.3900000000003,2.7690813505788148
306,2527.0,2.7498993432870495
307,2532.83,2.7533348632258097
308,2544.52,2.7332510514049018
309,2556.26,2.7577879867532795
310,2562.16,2.733482652729041
311,2573.98,2.7473452835482766
312,2585.8599999999997,2.7254423109706565
313,2597.8,2.704384734996178
314,2603.7900000000004,2.6822861458766543
315,2615.81,2.662251565373034
316,2627.88,2.6713935320387012
317,2633.94,2.692328788956177
318,2646.1,2.7263308005265587
319,2652.2000000000003,2.7482631551794636
320,2664.44,2.6627850622207028
321,2676.7400000000002,2.6762188658650854
322,2682.91,2.6734347665549913
323,2695.29,2.6302955656702314
324,2707.73,2.638221061388615
325,2713.97,2.595830708115522
326,2726.5,2.5743578487386203
327,2732.79,2.595250842634812
328,2745.4,2.505875678728769
329,2758.07,2.505791811425868
330,2764.43,2.5209448513590615
331,2777.19,2.527984428960876
332,2783.59,2.485737066629498
333,2796.44,2.3875822891360277
334,2802.8900000000003,2.404742473973935
335,2815.82,2.4769906919513227
336,2822.31,2.5113771745246596
337,2835.34,2.4798264868406195
338,2841.88,2.4522170165832424
339,2854.9999999999995,2.405450773803918
340,2868.17,2.466215678193878
341,2874.79,2.4779021034073585
342,2884.0315,2.4570743336454233
343,2888.0499999999997,2.4494875092218096
344,2894.7099999999996,2.4531593108373104
345,2908.0699999999997,2.5108492417056425
346,2928.23,2.4640528709201317
347,2948.5299999999997,2.4375279968652777
348,2968.9700000000003,2.4407519195410794
349,2989.55,2.427847338947538
350,3010.27,2.424563755084652
351,3031.14,2.412838574861755
352,3052.15,2.3998224913695143
353,3073.2999999999997,2.39438060460793
354,3087.49,2.392599608950867
355,3108.8900000000003,2.3875231949225966
356,3130.44,2.3597799845343155
357,3152.14,2.3438658777860235
358,3166.6899999999996,2.344837430864933
359,3188.64,2.2829241968499554
360,3210.7400000000002,2.301741066474966
361,3232.9999999999995,2.234901646649299
362,3247.92,2.298969855373514
363,3270.44,2.3252365151904932
364,3293.1,2.2983457717381293
365,3308.3,2.283858673923657
366,3311.31121,2.280696776799161
367,3323.58,2.2709607218931223
368,3331.24,2.2815398457788807
369,3338.92,2.2240092130690403
370,3346.6099999999997,2.287877252061401
371,3354.33,2.254100406160364
372,3362.06,2.1934437319615276
373,3369.81,2.2433620011670925
374,3377.58,2.2209555137770587
375,3385.36,2.2325827980892257
376,3393.1699999999996,2.2712312975079954
377,3400.99,2.3248082686289657
378,3408.83,2.239867783154337
379,3416.69,2.22291044108411
380,3424.57,2.283563342418284
381,3432.46,2.3078388154546596
382,3440.37,2.2592779318954364
383,3448.3,2.178714291740614
384,3456.25,2.207166594990194
385,3464.2200000000003,2.156468541644175
386,3472.21,2.2425889317025574
387,3480.21,2.1632234934631405
388,3488.23,2.2027935986281255
389,3496.2700000000004,2.184141847197511
390,3504.33,2.237521639171299
391,3512.4100000000003,2.201667974549488
392,3520.51,2.246981953332078
393,3528.6299999999997,2.1249766755190707
394,3536.7599999999998,2.2172976694082633
395,3544.91,2.2523228067018572
396,3553.08,2.260173487399853
397,3560.59,2.2744254357526
398,3563.25,2.374488108537994
399,3565.91,2.2917242813233885
400,3568.5699999999997,2.2708444541087824
401,3571.23,2.540869826894176
402,3573.8900000000003,2.44811669967957
403,3576.55,2.303541372464964
404,3579.21,2.2354200452503576
405,3581.87,2.030958118035752
406,3584.53,2.2018224908211455
407,3587.19,1.9216374636065394
408,3589.85,2.0175340363919334
409,3592.5099999999998,2.1722452091773277
410,3595.1699999999996,2.1573345819627217
411,3597.8300000000004,2.368886954748115
412,3600.4900000000002,2.311168927533509
413,3603.15,2.2869757003189033
414,3605.81,2.008788173104297
415,3608.47,2.2043334458896906
416,3611.13,2.1948074186750848
417,3613.7999999999997,2.1015079631626796
418,3616.46,2.3159830359480735
419,3619.12,2.1605662087334676
420,3621.78,1.944458981518861
421,3624.44,2.123850154304255
422,3627.1,2.197794627089649
423,3629.76,2.1649035998750428
424,3632.42,2.083260372660437
425,3635.08,2.092202045445831
426,3637.74,2.120659318231225
427,3640.3999999999996,2.317958291016619
428,3643.0600000000004,2.0652560638020123
429,3645.7200000000003,2.2252783365874063
430,3648.38,2.0200857093728004
431,3651.04,2.1081856821581946
432,3653.7,2.179328554943588
433,3656.36,2.324976027728982
434,3659.02,2.084821100514376
435,3661.68,2.1084299732997698
436,3664.3399999999997,2.245257846085164
437,3667.0000000000005,2.0877209188705574
438,3669.6600000000003,2.1180785916559515
439,3672.32,2.1801335644413458
440,3674.98,2.1143268372267396
441,3677.64,2.1908785100121335
442,3680.3,2.2035235827975272
443,3682.96,2.2660660555829213
444,3685.62,2.3525826283683156
445,3688.2799999999997,2.4173176011537096
446,3690.9500000000003,2.417696645641304
447,3693.61,2.2503654184266977
448,3696.27,2.0884190912120917
449,3698.9300000000003,2.1768357639974854
450,3701.59,2.0113808367828794
451,3704.25,1.9754686095682734
452,3706.91,2.1448951823536673
453,3709.5699999999997,2.0850089551390614
454,3712.2300000000005,2.258552927924455
455,3714.8900000000003,2.192478300709849
456,3717.55,2.610367373495243
457,3720.21,2.6482296462806367
458,3722.87,3.4798189190660307
459,3725.53,4.029541191851425
460,3728.19,4.1019514646368185
461,3730.85,3.7782537374222125
462,3733.5099999999998,3.1934220102076067
463,3736.1699999999996,2.6936452829930007
464,3738.8300000000004,2.407808555778394
465,3741.4900000000002,2.181735528563788
466,3744.15,2.2364328013491823
467,3746.81,2.154350774134576
468,3749.47,2.27439204691997
469,3752.13,2.3174923197053636
470,3754.79,2.201300692490758
471,3757.45,2.257825165276152
472,3760.1099999999997,2.369217738061546
473,3762.7699999999995,2.4410670108469397
474,3765.4300000000003,2.3393719836323332
475,3768.1,2.4592063281199286
476,3770.76,2.434623600905322
477,3773.42,2.397029873690716
478,3776.08,2.3044479464761096
479,3778.74,2.2215621192615043
480,3781.3999999999996,2.3732766920468977
481,3784.0600000000004,2.6098499648322915
482,3786.7200000000003,2.5270372376176855
483,3789.38,2.3503995104030793
484,3792.04,2.1855776831884732
485,3794.7,2.2955320559738674
486,3797.36,2.280913828759261
487,3800.02,2.217421801544655
488,3801.8939600000003,2.3099715239495335
489,3802.68,2.348933863958761
490,3805.3399999999997,2.512433636988892
491,3808.0000000000005,2.442234410019023
492,3810.6600000000003,2.495658183049154
493,3813.32,2.5015229560792855
494,3815.98,2.4633387291094166
495,3818.64,2.486721502139548
496,3821.3,2.393498275169679
497,3823.96,2.1989215481998103
498,3826.62,2.0734892212299414
499,3829.2799999999997,2.110954394260073
500,3831.9399999999996,2.033153767290204
501,3834.6000000000004,2.0728602403203347
502,3837.26,2.136979713350466
503,3839.92,2.1685975863805975
504,3842.58,2.2926765594107286
505,3845.25,2.477630810534958
506,3847.91,2.422586583565089
507,3850.5699999999997,2.5449593565952204
508,3853.2300000000005,2.6780281296253516
509,3855.8900000000003,2.732450902655483
510,3858.55,2.6476826756856138
511,3861.21,2.616758448715745
512,3863.87,2.728459221745876
513,3866.53,2.7808839947760076
514,3869.19,2.8079467678061385
515,3871.85,2.7237865408362696
516,3874.5099999999998,2.513958313866401
517,3877.1699999999996,2.3851400868965325
518,3879.8300000000004,2.369150859926663
519,3882.4900000000002,2.3774526329567944
520,3885.15,2.2506070059869256
521,3887.81,2.1776792790170565
522,3890.47,2.205350052047188
523,3893.13,2.369044725077319
524,3895.79,2.38446049810745
525,3898.45,2.4232652711375815
526,3901.1099999999997,2.480904044167713
527,3903.7699999999995,2.423471817197844
528,3906.4300000000003,2.4239765902279746
529,3909.09,2.579071363258106
530,3911.75,2.709826136288237
531,3914.41,2.6052499093183688
532,3917.07,2.4004636823484997
533,3919.74,2.3790800334727296
534,3922.3999999999996,2.417421806502861
535,3925.0600000000004,2.4687255795329914
536,3927.7200000000003,2.3872953525631226
537,3930.38,2.195252925593254
538,3933.04,2.0417538986233854
539,3935.7,2.0365089716535163
540,3938.36,2.1155387446836476
541,3941.02,2.301867217713779
542,3943.68,2.42869899074391
543,3946.3399999999997,2.4621437637740415
544,3948.9999999999995,2.5314775368041724
545,3951.6600000000003,2.485106309834303
546,3954.32,2.4447770828644346
547,3956.98,2.3986738558945655
548,3959.64,2.500679628924697
549,3962.3,2.5711084019548283
550,3964.96,2.3754601749849593
551,3967.62,2.2561189480150903
552,3970.2799999999997,2.141723721045222
553,3972.9399999999996,2.177605194075353
554,3975.6000000000004,2.283460267105484
555,3978.26,2.3064040401356154
556,3980.92,2.3504478131657462
557,3983.58,2.461686586195878
558,3986.24,2.5521923592260087
559,3988.9,2.5866851322561395
560,3991.56,2.645468905286271
561,3994.22,2.6987956783164027
562,3996.8900000000003,2.7522070294406316
563,3999.55,2.717798802470763
564,4002.21,2.641362575500894
565,4004.87,2.5989383485310253
566,4007.53,2.673924121561156
567,4010.19,2.7631628945912876
568,4012.85,2.776458667621419
569,4015.5099999999998,2.61984144065155
570,4018.1699999999996,2.6195182136816815
571,4020.8300000000004,2.7971969867118123
572,4023.4900000000002,2.6926447597419436
573,4026.15,2.5842435327720743
574,4028.81,2.690342305802206
575,4031.47,2.645067078832337
576,4034.13,2.721197851862468
577,4036.79,2.6230776248925993
578,4039.45,2.733903397922731
579,4042.1099999999997,2.733653170952862
580,4044.7699999999995,2.696490943982993
581,4047.4300000000003,2.5895517170131237
582,4050.09,2.740455490043255
583,4052.75,2.6619242630733866
584,4055.41,2.7039940361035177
585,4058.0699999999997,2.7202868091336487
586,4060.73,2.57092958216378
587,4063.39,2.535936355193911
588,4066.0499999999997,2.5493051282240424
589,4068.71,2.6034359012541737
590,4071.3700000000003,2.6829526742843046
591,4074.04,2.7007450254085343
592,4076.7,2.6193387984386653
593,4079.36,2.646619571468797
594,4082.02,2.629777344498928
595,4084.68,2.647679117529059
596,4087.3399999999997,2.7259288905591905
597,4089.9999999999995,2.5977196635893214
598,4092.6600000000003,2.5360484366194527
599,4095.32,2.4678712096495836
600,4097.98,2.3338389826797146
