,lambda (Angstroms),Total Flux (erg/s/cm^2/Angstrom)
0,102.05000000000001,1.8755059566378625
1,103.95,1.8701604518920125
2,104.712855,1.8680142202748737
3,105.88,1.850765525972446
4,108.10000000000001,1.817957179820445
5,110.11,1.7882523772482115
6,113.98,1.7310594872561509
7,117.99000000000001,1.671797608393411
8,120.22644299999999,1.638746930393929
9,121.01,1.6290387006822658
10,124.98,1.5798497301532684
11,127.01,1.5546976779888715
12,127.89,1.543794367023867
13,130.87,1.5068716705806244
14,132.07999999999998,1.4918798115473684
15,133.92,1.469081956642541
16,137.03,1.430548972757593
17,138.038426,1.4180544706262121
18,139.9,1.4015680024722588
19,143.16,1.3727008946146164
20,146.83,1.3402070100640375
21,150.95000000000002,1.303721067074821
22,155.18,1.266261417846426
23,158.489319,1.2369554009188761
24,159.16,1.2324653156750394
25,162.12,1.212648841435238
26,165.89,1.1874102653786
27,170.14999999999998,1.1588906929337512
28,172.91,1.140413976989342
29,176.94000000000003,1.1134348294356935
30,179.82000000000002,1.0941548263380494
31,181.9,1.080230304811973
32,181.970086,1.0797611155292683
33,186.14,1.0584654036859595
34,190.91,1.034105997725311
35,194.01000000000002,1.0182752876082857
36,198.07000000000002,0.9975417644203753
37,202.22,0.9763491277511321
38,205.04000000000002,0.9619487287660315
39,208.929613,0.9420840744302035
40,209.81,0.9387039596604856
41,216.19,0.9142154180007002
42,220.20999999999998,0.8987843947150361
43,222.76000000000002,0.8889959204927863
44,226.89999999999998,0.8731049044072516
45,230.05,0.8610694790856489
46,233.79,0.8468322070330161
47,239.79,0.8238685567394873
48,239.88329199999998,0.823510205236607
49,245.94000000000003,0.8055808689880255
50,252.25,0.7869367726460155
51,256.94,0.7730025246810351
52,259.91,0.7642706922731476
53,264.14,0.7517776043164597
54,269.05,0.7372550416953394
55,274.05,0.7224642523921619
56,275.42287,0.7184033578779165
57,279.14,0.7099663282551124
58,283.68,0.6996624585141012
59,290.29,0.684638249338312
60,295.69,0.6723895896736731
61,301.18,0.6599175369379571
62,308.2,0.6439888528939269
63,316.227766,0.6257741406028507
64,318.29,0.6222804525143674
65,327.96999999999997,0.605870105874168
66,337.92999999999995,0.5889814482493347
67,348.2,0.5715670053343711
68,357.13,0.5564344746315837
69,363.078055,0.5463635225085961
70,366.29,0.5422933990914117
71,374.83000000000004,0.5314575095601628
72,385.33,0.5181063642758406
73,395.21,0.5056187863940211
74,405.35,0.4927935224337326
75,413.84,0.4820371654252663
76,416.86938299999997,0.4781926149940264
77,421.53000000000003,0.4736772028694609
78,430.35999999999996,0.4651295076350006
79,441.4,0.4545067514324588
80,450.64,0.4455984085455489
81,460.08,0.4364484040013466
82,469.71,0.4271681787377164
83,478.630092,0.4186189357777727
84,479.53999999999996,0.41795069117596506
85,489.59000000000003,0.410439612935515
86,499.84000000000003,0.40298429522759355
87,505.63,0.3986411140442894
88,511.48,0.39477074062074397
89,519.79,0.38861885234729737
90,529.46,0.3814409252950434
91,540.54,0.3730840105971146
92,549.5408739999999,0.36645614829774986
93,550.5899999999999,0.3658692562122757
94,559.54,0.36127976003473844
95,569.94,0.35569329208542144
96,580.54,0.34976613109861776
97,589.97,0.344638102631112
98,599.5600000000001,0.3390242517336168
99,610.7,0.3327099260455984
100,620.63,0.32787977948437563
101,630.71,0.32219382839503763
102,630.957344,0.3220659678501999
103,639.48,0.31866573137975657
104,649.87,0.3140956492190655
105,657.4000000000001,0.3106187467339833
106,665.01,0.30771478560762533
107,674.26,0.30394226083511405
108,685.22,0.298662172980333
109,694.75,0.29519691946335647
110,704.4200000000001,0.2902270930741473
111,715.86,0.28635017937171175
112,724.43596,0.282738782051151
113,725.8199999999999,0.28231689321996756
114,734.23,0.27976594988305925
115,744.4399999999999,0.27645875684027293
116,754.8000000000001,0.27320258915533
117,765.3,0.2693117082043744
118,774.16,0.2672550839409967
119,784.93,0.26348804683415933
120,795.85,0.26047070308516546
121,805.06,0.25777602665675586
122,814.38,0.2549586860907648
123,825.71,0.2515431389198765
124,831.763771,0.24867043356107474
125,835.2800000000001,0.24729927553943198
126,844.95,0.24658736299439016
127,854.7299999999999,0.2442741741411834
128,864.63,0.2423313134063422
129,874.64,0.24014088636333614
130,884.77,0.2379047064386956
131,895.01,0.23562346720589014
132,905.3799999999999,0.23307906151798077
133,915.86,0.2308808865219065
134,924.34,0.24873028621973947
135,935.0400000000001,0.26921257260733533
136,945.87,0.29682604253982725
137,954.62,0.31744545575398275
138,954.992586,0.3178535554820265
139,965.67,0.32960644970399733
140,974.61,0.24401072185477374
141,985.89,0.31179267235374
142,995.0100000000001,0.30905443360822327
143,1004.22,0.3390233494145601
144,1015.8499999999999,0.3323106876151787
145,1025.25,0.26824168303098384
146,1034.74,0.3026500929986425
147,1044.31,0.36305472701239305
148,1053.97,0.3578824155779971
149,1066.18,0.3278161831127824
150,1076.04,0.3446987817936163
151,1086.0,0.31736818553206525
152,1096.05,0.34599044382236754
153,1096.4782,0.345640101597418
154,1106.19,0.33812532867381356
155,1113.86,0.333565289391049
156,1124.16,0.31653279648199084
157,1134.57,0.3422330427748749
158,1145.06,0.32843454485098944
159,1155.66,0.3316655861290462
160,1163.67,0.3328028589250116
161,1174.44,0.2842143062424334
162,1185.3,0.3218776038159896
163,1196.27,0.2845340405914879
164,1204.56,0.2590490586287606
165,1215.71,0.22497688591652779
166,1224.1399999999999,0.2728125365744541
167,1235.46,0.3114399799015863
168,1244.03,0.3214922431801661
169,1255.54,0.31517128149247103
170,1258.92541,0.3085886791696675
171,1264.24,0.29856099775373607
172,1275.94,0.32652474070120463
173,1284.7800000000002,0.3313828798170697
174,1293.69,0.30176171098475735
175,1305.6599999999999,0.2985404518463982
176,1314.71,0.32446776711773073
177,1323.82,0.3162674041477682
178,1336.07,0.30070671321669895
179,1345.3300000000002,0.31920460464349876
180,1354.66,0.31270588812212113
181,1364.05,0.29748849335944844
182,1373.5,0.3005112203554807
183,1386.21,0.2994981629078162
184,1395.8200000000002,0.2716402145937284
185,1405.5,0.27128765833146307
186,1415.24,0.28514412382790266
187,1425.05,0.2833591813761648
188,1434.93,0.2834747309762493
189,1441.55,0.28838176502003066
190,1445.43977,0.2887594791899041
191,1448.2,0.28914668414255756
192,1454.89,0.2837344540641975
193,1464.9699999999998,0.273264018161377
194,1475.13,0.2722483986402801
195,1485.35,0.27270589140547596
196,1495.65,0.2727978005523955
197,1506.0200000000002,0.2651679240333232
198,1512.9699999999998,0.25175044719556505
199,1516.45,0.25780345980054364
200,1523.45,0.2540394932013627
201,1534.01,0.2364630555888841
202,1544.6499999999999,0.23781703435812912
203,1555.3500000000001,0.23196332541366682
204,1566.14,0.23689513489864367
205,1573.3600000000001,0.2437626133492028
206,1584.2700000000002,0.24729754740676507
207,1595.25,0.24856869579833563
208,1606.31,0.2430977605716298
209,1613.7299999999998,0.24136617997649806
210,1624.9099999999999,0.23540646932237766
211,1636.17,0.24044997504998092
212,1643.73,0.24069202312286553
213,1655.12,0.23239145547076973
214,1659.58691,0.2352585919818301
215,1666.59,0.23996299803756005
216,1670.43,0.22650620115326847
217,1678.1499999999999,0.2418755115838072
218,1685.8899999999999,0.243758924113907
219,1693.6699999999998,0.23572994084312873
220,1705.41,0.23066087328542473
221,1713.28,0.2247431994626709
222,1725.16,0.22268114660189375
223,1733.12,0.22904648222716434
224,1745.14,0.22533174406331408
225,1753.19,0.2305766891366091
226,1765.34,0.22048686461990524
227,1773.49,0.2217801201910051
228,1785.79,0.2228065114210086
229,1794.03,0.22805257644013288
230,1806.46,0.2258704813172828
231,1814.8,0.217338056834212
232,1823.18,0.21799403655026314
233,1835.82,0.21311646347280333
234,1844.2900000000002,0.2034751526368789
235,1857.0700000000002,0.20371459425634597
236,1865.65,0.20598909496800694
237,1874.26,0.21134229882900943
238,1882.9099999999999,0.20219060688913382
239,1895.9599999999998,0.19763047685267415
240,1904.71,0.20210049541060346
241,1905.46072,0.20175667784293264
242,1913.5,0.19822494987225606
243,1926.77,0.19395355712826584
244,1935.6599999999999,0.1956961090880192
245,1944.6,0.20091070003517275
246,1953.57,0.19312585437476643
247,1967.11,0.20092523216273722
248,1976.1899999999998,0.20282595227461128
249,1985.32,0.19680851137388555
250,1994.4799999999998,0.19323833386559996
251,2003.6799999999998,0.19473200754723446
252,2012.93,0.19173852021626914
253,2026.89,0.19354288549840154
254,2036.24,0.18889227614223664
255,2045.6399999999999,0.19145580577347193
256,2055.08,0.18232328659462735
257,2064.57,0.18393980640318291
258,2074.1,0.19254947740165873
259,2078.88,0.18947344459711662
260,2083.67,0.1926338995900546
261,2093.29,0.1862440607658507
262,2102.9500000000003,0.18602417313156694
263,2112.6600000000003,0.1869072244846834
264,2127.3,0.18643545999545832
265,2137.1200000000003,0.1791680771208552
266,2146.9900000000002,0.18132113323365223
267,2156.9,0.18353464053636942
268,2166.85,0.17896679902900675
269,2176.85,0.17792419650904429
270,2186.9,0.176880732976482
271,2187.7616199999998,0.1771796788989965
272,2197.0,0.1805380631007924
273,2207.14,0.1769579817905249
274,2217.32,0.17091411436069026
275,2227.56,0.16880726775150495
276,2232.69,0.1750174979170205
277,2243.0,0.1705287255985927
278,2253.35,0.16521906716059778
279,2263.75,0.16583107607314393
280,2274.2000000000003,0.16768975233623118
281,2284.7000000000003,0.1701026959498595
282,2295.25,0.16330920691402895
283,2305.84,0.16508443175863124
284,2316.48,0.1608071239537746
285,2327.1800000000003,0.14447967696956726
286,2332.54,0.15342958694757186
287,2343.31,0.14890325425412204
288,2354.12,0.15665738544110513
289,2364.99,0.1480708974487375
290,2375.91,0.15066055680691096
291,2386.87,0.1427043500455173
292,2392.38,0.14712867207514513
293,2403.42,0.1444143130746172
294,2414.5099999999998,0.14586609142463036
295,2425.66,0.15219492059529283
296,2436.85,0.14887779364638815
297,2442.47,0.15326109384720638
298,2453.75,0.15214440812927565
299,2465.07,0.15035651629177782
300,2476.45,0.1466131652749293
301,2482.16,0.14542630670672146
302,2493.62,0.13877346345073868
303,2505.1299999999997,0.150764837545297
304,2510.8999999999996,0.1382272397977385
305,2511.88643,0.1383101798530949
306,2516.6899999999996,0.13875650167297862
307,2522.4900000000002,0.13669334905470937
308,2534.13,0.13876498104149318
309,2545.83,0.13802767386326042
310,2557.58,0.14505400571418053
311,2563.48,0.14113053115421698
312,2575.31,0.14575724745178167
313,2587.2000000000003,0.14409786458432974
314,2593.16,0.14209016085934964
315,2605.13,0.13859444243854227
316,2617.1499999999996,0.1364142330468878
317,2623.19,0.14134722376855224
318,2635.2999999999997,0.14674294062937288
319,2647.46,0.15617497651934634
320,2653.56,0.1615052780759942
321,2665.81,0.14829559021844282
322,2671.96,0.15276340080424355
323,2684.2899999999995,0.15437914739333675
324,2696.6800000000003,0.14638252481741332
325,2702.8999999999996,0.15055794804402806
326,2715.37,0.1430221399147492
327,2727.91,0.14112020442628434
328,2734.19,0.1457912584878825
329,2746.8199999999997,0.1312926892518928
330,2753.1499999999996,0.1348683823426438
331,2765.86,0.1394072075532986
332,2772.23,0.1431280978673719
333,2785.03,0.13388417933050187
334,2797.8799999999997,0.1158979698227847
335,2804.33,0.12008252458350255
336,2817.2799999999997,0.13996807313409107
337,2823.77,0.1480241551181312
338,2836.7999999999997,0.1445702281153643
339,2843.3399999999997,0.13992054912855728
340,2856.47,0.13161403018409606
341,2863.0499999999997,0.14621596842061133
342,2876.2700000000004,0.14926283572862523
343,2882.9,0.14699755299429335
344,2884.0315,0.14713298815121995
345,2896.21,0.14868306689732236
346,2909.57,0.16041015115969356
347,2929.7400000000002,0.15424495704083335
348,2950.05,0.15138641006244707
349,2970.5,0.15370031022453473
350,2991.09,0.15368905752709636
351,3011.82,0.15473585197013193
352,3032.7,0.15526351120653248
353,3046.7,0.15633812525392743
354,3067.82,0.15770270815971188
355,3089.0800000000004,0.15770333820597024
356,3110.4900000000002,0.1599417330455936
357,3132.06,0.15687581033147285
358,3146.51,0.15687501875896268
359,3168.32,0.15911241971422585
360,3190.29,0.151165403115745
361,3212.4,0.15631383365773807
362,3227.23,0.14823331289508576
363,3249.6000000000004,0.16086380241224474
364,3272.12,0.16836425672276867
365,3287.2200000000003,0.16685481258817325
366,3310.0099999999998,0.1650590435267541
367,3311.31121,0.1649322925258871
368,3325.29,0.16364496684222507
369,3332.9500000000003,0.16858023058650443
370,3340.6400000000003,0.1584501068519755
371,3348.34,0.17441665395784378
372,3356.06,0.16842954274450656
373,3363.8,0.14753447321196375
374,3371.5499999999997,0.1518635745198182
375,3379.32,0.16890341750846713
376,3387.1099999999997,0.16616330217791048
377,3394.92,0.1610885285281483
378,3402.7400000000002,0.1781556257187834
379,3410.59,0.16058803543061015
380,3418.4500000000003,0.15975241598283416
381,3426.3300000000004,0.16580503821585257
382,3434.2299999999996,0.17607670212966553
383,3442.15,0.1590037077242729
384,3450.08,0.16442378415927753
385,3458.03,0.16600980227507658
386,3466.0099999999998,0.16240163291206738
387,3474.0,0.17019683438945538
388,3482.0099999999998,0.15980987754763787
389,3490.03,0.16999209154621753
390,3498.08,0.15697411806598893
391,3506.14,0.17138871542615758
392,3514.2200000000003,0.16028665446712065
393,3522.3300000000004,0.17085980602927542
394,3530.44,0.15860185759143022
395,3538.58,0.17259842167477668
396,3546.74,0.17563062743891764
397,3554.9199999999996,0.17569267488385304
398,3563.1099999999997,0.1708266931691857
399,3571.32,0.15676675313531277
400,3579.56,0.1588645256226316
401,3587.81,0.1451759689503476
402,3596.08,0.1628671539588581
403,3603.29,0.29753862988526203
404,3606.04,0.1947310109945007
405,3608.7799999999997,0.25599752126334213
406,3611.5199999999995,0.16171253153218357
407,3614.27,0.13293491264142226
408,3617.0099999999998,0.0888557129102637
409,3619.75,0.043226653179105144
410,3622.49,0.09262334344794658
411,3625.2400000000002,0.026482541557185258
412,3627.98,0.0951141048260267
413,3630.7200000000003,0.013325465094868146
414,3633.46,0.11720276536370959
415,3636.2100000000005,0.18232463647294825
416,3638.9500000000003,-0.04818674325821029
417,3641.69,0.056459077010631145
418,3644.4300000000003,0.14560776727947258
419,3647.18,0.10644390838871128
420,3649.9199999999996,0.11073973865755272
421,3652.66,0.19102396892639414
422,3655.3999999999996,0.28090587919523563
423,3658.15,0.14747026030447427
424,3660.89,0.19498867057331573
425,3663.63,0.29576588084215716
426,3666.37,0.0664707611109986
427,3669.1200000000003,0.06462249222023728
428,3671.86,0.20718128248907874
429,3674.6,0.14819329275792015
430,3677.34,0.18578400302676162
431,3680.0899999999997,0.1477934841360003
432,3682.8300000000004,0.21425759440484174
433,3685.57,0.15534540467368319
434,3688.3199999999997,0.12262304578292185
435,3691.06,0.1567689960517633
436,3693.7999999999997,0.18190800632060472
437,3696.54,0.14108561658944618
438,3699.29,0.27087769769868486
439,3702.03,0.2025958079675263
440,3704.77,0.22523981823636774
441,3707.5099999999998,0.25764742850520916
442,3710.26,0.05772896961444786
443,3713.0,0.0758882098832893
444,3715.7400000000002,0.18780263015213075
445,3718.48,0.13019204042097218
446,3721.23,0.14468402153021087
447,3723.97,0.1150062717990523
448,3726.7099999999996,0.3510623420678937
449,3729.4500000000003,0.21607505233673518
450,3732.2,0.27346783344597386
451,3734.94,0.09542609371481531
452,3737.68,0.28493405398365673
453,3740.42,0.1458466642524982
454,3743.17,0.10852604536173686
455,3745.91,0.15827045563057832
456,3748.65,0.17793916589941974
457,3751.3999999999996,0.17368214700865844
458,3754.1400000000003,0.23489255727749986
459,3756.88,0.1371250675463413
460,3759.6200000000003,0.017469937815182756
461,3762.37,0.09392706892442144
462,3765.1099999999997,0.1725176691932629
463,3767.85,0.19276957946210432
464,3770.5899999999997,0.23507778973094579
465,3773.34,0.11594996084018444
466,3776.08,0.13190308110902588
467,3778.82,0.1878093913778673
468,3781.56,0.11820018164670877
469,3784.3100000000004,0.2651037827559475
470,3787.05,0.1950200930247889
471,3789.79,0.20546330329363033
472,3792.53,0.21545891356247177
473,3795.2799999999997,0.11862022467171045
474,3798.0199999999995,0.1418833049405519
475,3800.76,0.20672441520939333
476,3801.8939600000003,0.20706328312634795
477,3803.5,0.207549241725332
478,3806.25,0.24894952437096918
479,3808.99,0.13589899871607675
480,3811.73,0.2093620730611843
481,3814.47,0.14573354740629185
482,3817.2200000000003,0.16855663005192903
483,3819.96,0.15597710439703658
484,3822.7,0.20342107874214416
485,3825.4500000000003,0.1643178613877813
486,3828.19,0.12515595573288885
487,3830.9300000000003,0.11830122007799641
488,3833.67,0.09670733442310397
489,3836.4199999999996,0.12539813706874114
490,3839.16,0.17425914141384868
491,3841.8999999999996,0.12209304575895626
492,3844.64,0.13369289010406382
493,3847.39,0.14744767274970097
494,3850.13,0.1744275470948085
495,3852.87,0.1062351114399161
496,3855.6099999999997,0.11751358578502366
497,3858.36,0.2567401784306608
498,3861.1,0.1801132527757684
499,3863.84,0.16374962712087593
500,3866.58,0.1991499014659835
501,3869.3300000000004,0.12702818411162065
502,3872.07,0.1260083984567282
503,3874.8100000000004,0.18516923280183578
504,3877.55,0.20177540714694336
505,3880.2999999999997,0.17534228979258049
506,3883.04,0.13397066413768804
507,3885.7799999999997,0.09881837848279562
508,3888.5199999999995,0.1349371128279032
509,3891.27,0.21594399547354032
510,3894.0099999999998,0.17802236981864789
511,3896.75,0.17054124416375546
512,3899.5,0.24666802680939262
513,3902.2400000000002,0.25305220115450017
514,3904.98,0.20505667549960774
515,3907.7200000000003,0.1521919498447153
516,3910.47,0.16700823249035246
517,3913.2099999999996,0.16880310683546002
518,3915.9500000000003,0.13620728118056757
519,3918.69,0.16930745552567517
520,3921.44,0.1656420381713123
521,3924.18,0.20968461251641987
522,3926.92,0.18366398686152743
523,3929.66,0.195959061206635
524,3932.41,0.12783444385227213
525,3935.15,0.1312830181973797
526,3937.89,0.23279439254248727
527,3940.63,0.16720706688759482
528,3943.38,0.180559149533232
529,3946.1200000000003,0.20545202387833952
530,3948.86,0.1751219982234471
531,3951.6,0.25299757256855465
532,3954.35,0.22821975521419183
533,3957.0899999999997,0.2022029295592994
534,3959.83,0.18833430390440692
535,3962.58,0.2106138865500441
536,3965.32,0.14178436089515165
537,3968.06,0.13572223524025923
538,3970.7999999999997,0.1629765095853668
539,3973.55,0.08422744223100394
540,3976.29,0.0685407465761115
541,3979.03,0.20901934092121907
542,3981.77,0.17692901526632662
543,3984.5199999999995,0.2318967979119638
544,3987.26,0.22715987225707132
545,3990.0,0.2329122466021789
546,3992.7400000000002,0.24245592094728646
547,3995.49,0.22638010359292363
548,3998.23,0.1752864779380312
549,4000.97,0.20392925228313874
550,4003.7099999999996,0.2476451266282463
551,4006.46,0.17343620927388345
552,4009.2,0.12559398361899102
553,4011.94,0.27176145796409856
554,4014.68,0.22207063230920615
555,4017.4300000000003,0.2502807149548433
556,4020.17,0.3006259892999508
557,4022.9100000000003,0.25284886364505843
558,4025.65,0.17946233799016598
559,4028.3999999999996,0.22295512063580314
560,4031.14,0.2536216949809107
561,4033.88,0.2828801693260183
562,4036.63,0.2723827519716554
563,4039.37,0.211516826316763
564,4042.1099999999997,0.28166700066187056
565,4044.85,0.2414362750069781
566,4047.6,0.23810655765261526
567,4050.34,0.19673673199772282
568,4053.08,0.28171090634283036
569,4055.82,0.19705878068793795
570,4058.57,0.1901996633335751
571,4061.3100000000004,0.20108103767868266
572,4064.05,0.17950531202379022
573,4066.79,0.20443978636889776
574,4069.54,0.22784946901453493
575,4072.2799999999997,0.2804513433596425
576,4075.0199999999995,0.15200451770475007
577,4077.76,0.11745159204985763
578,4080.5099999999998,0.27275687469549476
