,lambda (Angstroms),Total Flux (erg/s/cm^2/Angstrom)
0,102.05000000000001,14.07657032690557
1,103.94,14.036664293971688
2,104.712855,14.020346225259297
3,106.12,13.864268784527965
4,108.08999999999999,13.645762743825008
5,110.10000000000001,13.422827410383455
6,113.96999999999998,12.993583561012565
7,117.97999999999999,12.548811740971617
8,120.22644299999999,12.299780595097095
9,121.0,12.227893519716117
10,124.97,11.858757887485423
11,127.0,11.670000547002976
12,127.88000000000001,11.588182537413049
13,130.86,11.311089232458524
14,132.07,11.198630059909876
15,133.91,11.027542719521845
16,137.03,10.737509812403012
17,138.038426,10.643746523614718
18,139.9,10.520033336977221
19,143.15,10.30498429894206
20,147.16,10.040545765158367
21,150.94,9.789478595419624
22,155.17,9.508557609592938
23,158.489319,9.288150860841423
24,159.14999999999998,9.254995598615103
25,162.10999999999999,9.106445400608424
26,165.88,8.917323277407354
27,170.14000000000001,8.703503043607201
28,172.9,8.565025720722595
29,176.93,8.362775687162829
30,179.81,8.218233328804983
31,181.89000000000001,8.113858652935425
32,181.970086,8.10983922053082
33,186.12,7.951004974795997
34,190.9,7.768092015829747
35,194.0,7.649509732270045
36,198.06,7.494100911620886
37,202.21,7.335317647807092
38,205.01999999999998,7.227798132222331
39,208.929613,7.077909015479171
40,209.79999999999998,7.052821385489556
41,216.17000000000002,6.869982904828706
42,220.19,6.754432040785281
43,223.26,6.666046156906347
44,226.88,6.5620621195637625
45,230.04,6.47571819302714
46,233.78,6.377601223474301
47,239.76999999999998,6.2100123774792495
48,239.88329199999998,6.2067138045229155
49,245.93,6.07063972115718
50,252.23,5.931851039050923
51,256.92,5.822946813705154
52,259.9,5.760159005788227
53,264.12,5.667431605583717
54,269.03,5.557991586767573
55,274.03000000000003,5.446496153349907
56,275.42287,5.415456770761263
57,279.13,5.351993337198709
58,284.32,5.263157430593326
59,290.27,5.160150866720101
60,295.67,5.068155712448603
61,301.16,4.973897990605914
62,308.18,4.854067100052967
63,316.227766,4.716706462384494
64,318.28000000000003,4.690532772185173
65,327.95,4.566768755129072
66,337.91,4.439126497261566
67,348.18,4.3075172985267
68,357.11,4.193192103541076
69,363.078055,4.116899514388398
70,366.27,4.086300218845653
71,374.8,4.004280947189692
72,385.3,3.9029018921970087
73,395.19,3.808475268694376
74,405.32,3.7113927742776256
75,413.81,3.6298015094406852
76,416.86938299999997,3.6004266298954435
77,422.48,3.559199210401295
78,430.33000000000004,3.5015185803572173
79,441.37,3.4205904673652916
80,450.60999999999996,3.3526519498611806
81,460.04999999999995,3.2833820406362
82,469.68,3.212748924276395
83,478.630092,3.147211527547217
84,479.52000000000004,3.1421913869871507
85,489.56,3.0853401003722563
86,499.81,3.0276223306110346
87,505.6,2.9948341924337205
88,511.45000000000005,2.962212427643169
89,519.76,2.915345991709925
90,529.4200000000001,2.8607440169788614
91,540.51,2.7980330946323297
92,549.5408739999999,2.7470919493012493
93,550.5600000000001,2.7426967588511744
94,559.5,2.7043633904120012
95,569.91,2.659707109679137
96,580.5,2.614019272930719
97,589.93,2.573496740393648
98,599.52,2.53205091462053
99,610.6700000000001,2.483339020045944
100,620.59,2.4416635064109764
101,630.67,2.3982607045399615
102,630.957344,2.397027751945472
103,639.45,2.3681065097999325
104,649.84,2.332634320163177
105,657.36,2.3068920237485093
106,664.97,2.2810859784139845
107,675.78,2.2442942388178992
108,685.18,2.2120621412995645
109,694.71,2.1797568180081033
110,704.37,2.1466393979435168
111,715.82,2.1078914736951186
112,724.43596,2.078551484151703
113,725.7800000000001,2.075147636416498
114,734.18,2.0538919684497827
115,744.3900000000001,2.0280221322104777
116,754.75,2.001808106418196
117,765.25,1.974871921709802
118,774.1099999999999,1.9528381064472908
119,784.88,1.9255248415435378
120,795.8,1.8980038670868082
121,805.01,1.8747599265340171
122,814.34,1.851182795338844
123,825.66,1.822616921407509
124,831.763771,1.8070291124048428
125,835.22,1.800396659938411
126,844.9,1.7823377730634922
127,854.6800000000001,1.7638302232725098
128,864.5799999999999,1.745139427582252
129,874.5899999999999,1.7262534584843245
130,884.7099999999999,1.7071435359787275
131,894.96,1.6878004780822482
132,905.32,1.6682168897780993
133,915.81,1.6490538570830686
134,924.28,1.6365151786925145
135,934.98,1.6203687416737507
136,945.81,1.604968339264105
137,954.56,1.592318199108574
138,954.992586,1.5915786151149538
139,965.6099999999999,1.5738571760585447
140,974.55,1.543756257187221
141,985.83,1.5337125215307856
142,994.95,1.5169904448298377
143,1004.1600000000001,1.5055948267140782
144,1015.7900000000001,1.4834215650000409
145,1025.19,1.4546632694530115
146,1034.67,1.443524787092816
147,1044.25,1.436592228716163
148,1053.91,1.4180250235263434
149,1066.11,1.390579239518497
150,1075.98,1.375525607694116
151,1085.93,1.351994729056569
152,1095.98,1.3393834544025645
153,1096.4782,1.3384066298268755
154,1106.1200000000001,1.3227147009623987
155,1113.79,1.3101599446071597
156,1124.1,1.292098939297835
157,1134.5,1.2810453722059847
158,1144.99,1.2630800833316091
159,1155.59,1.2480092978341468
160,1166.28,1.2321595905541582
161,1174.37,1.212646452547133
162,1185.23,1.202392974122374
163,1196.2,1.179787299074528
164,1204.49,1.16320118266189
165,1215.64,1.1417684040489928
166,1224.06,1.1370393461727066
167,1235.3899999999999,1.126432243994759
168,1243.95,1.1151862222345434
169,1255.4599999999998,1.096796146491544
170,1258.92541,1.090468568476524
171,1264.16,1.083172886177535
172,1275.8600000000001,1.0753324309497274
173,1284.7,1.0666704229998283
174,1293.6100000000001,1.0520403007109596
175,1305.5800000000002,1.0388814987471258
176,1314.6299999999999,1.0335434977803177
177,1323.74,1.0225567530943922
178,1335.99,1.0067750637746793
179,1345.25,1.0001951997909617
180,1354.58,0.9892859014682742
181,1363.9699999999998,0.9767505694264698
182,1373.4199999999998,0.9673110636655484
183,1386.1299999999999,0.9536723158326054
184,1395.74,0.9399163201540385
185,1405.41,0.9299176807563548
186,1415.15,0.9206416970197016
187,1424.96,0.9102670189440784
188,1434.84,0.8995633265294855
189,1441.46,0.8933356761869139
190,1445.43977,0.8891906125817275
191,1448.12,0.8872675973906562
192,1454.8,0.8815862410223524
193,1464.88,0.8724026308737742
194,1475.04,0.8646975799303666
195,1485.26,0.8572327483908363
196,1495.56,0.8496137160564758
197,1505.92,0.8407765231259929
198,1512.88,0.8336135039757844
199,1516.36,0.8319355994006803
200,1523.36,0.8264337598530568
201,1533.92,0.8163573349354988
202,1544.5500000000002,0.8095264393224647
203,1555.26,0.8005634329146009
204,1566.04,0.7927962858112606
205,1573.27,0.788754913978501
206,1584.18,0.7813545255835618
207,1595.1599999999999,0.7736633264931467
208,1606.21,0.7647667967072552
209,1613.63,0.7589919829867742
210,1624.81,0.7494108219092841
211,1636.08,0.7420912999376102
212,1643.63,0.7370904449255306
213,1655.0200000000002,0.7265031217616115
214,1659.58691,0.7239011321715202
215,1666.49,0.7215172651289313
216,1670.33,0.7167857707905444
217,1678.0400000000002,0.7176608542673767
218,1685.79,0.7144012639490175
219,1693.5700000000002,0.7082191857842645
220,1705.31,0.7016012118955501
221,1713.18,0.6977013801916163
222,1725.06,0.6915145530197315
223,1733.0200000000002,0.6891178977766165
224,1745.03,0.6821750932703594
225,1753.09,0.6800389485392658
226,1765.2399999999998,0.6705759507498382
227,1773.3899999999999,0.6678896524795637
228,1785.68,0.6616943114069654
229,1793.92,0.6603958795975098
230,1806.36,0.6526896192929437
231,1814.6899999999998,0.6473005739443073
232,1823.07,0.6427997688516813
233,1835.71,0.6349478595711574
234,1844.18,0.6280374109393505
235,1856.96,0.6229766383756563
236,1865.53,0.6203172802558706
237,1874.15,0.6162658823920955
238,1887.1399999999999,0.6086210549036458
239,1895.8500000000001,0.6048288735006897
240,1904.6,0.6001341483025423
241,1905.46072,0.5997084386392035
242,1913.39,0.5968980301579725
243,1926.65,0.5905107620542349
244,1935.54,0.5840658617192253
245,1944.48,0.5864254797850311
246,1953.4499999999998,0.5823631148913264
247,1966.9900000000002,0.5802025358321552
248,1976.07,0.5759161534202446
249,1985.2,0.5728925294091491
250,1994.3600000000001,0.569065952438543
251,2003.5600000000002,0.5646350981885895
252,2012.81,0.5609035023394512
253,2026.76,0.554070856166967
254,2036.12,0.5530731627996227
255,2045.5200000000002,0.5516765921529309
256,2054.96,0.5465078142268915
257,2064.44,0.5420651990215045
258,2073.97,0.5418144122169329
259,2078.76,0.5502497330150548
260,2083.55,0.5537031038131767
261,2093.16,0.54669605244991
262,2102.83,0.5406302651676217
263,2117.4,0.5380582811652493
264,2127.18,0.5314515163647551
265,2136.99,0.5237628186047502
266,2146.8599999999997,0.5278279649257238
267,2156.77,0.5245239439673497
268,2166.7200000000003,0.5157058157296278
269,2176.7200000000003,0.5123161858927217
270,2186.77,0.515077594456631
271,2187.7616199999998,0.5147810264947478
272,2196.86,0.5131912744195604
273,2207.0,0.5085338230928728
274,2217.19,0.4972572474203927
275,2227.43,0.4977536774021204
276,2232.56,0.5073982915238257
277,2242.87,0.501552195421444
278,2253.22,0.4894336158424285
279,2263.62,0.48543519191762047
280,2274.07,0.48645482364702025
281,2284.56,0.4935242218997862
282,2295.11,0.48328317493760115
283,2305.7,0.48767246449878243
284,2316.35,0.47824898884501277
285,2327.04,0.4648522997146092
286,2332.4,0.46212877384566964
287,2343.17,0.45104460776199845
288,2353.98,0.4646383082016934
289,2364.85,0.44716950342643735
290,2375.76,0.45069759517454744
291,2386.73,0.4369138017077068
292,2397.75,0.43849242389507387
293,2403.27,0.4366606141195989
294,2414.3700000000003,0.43757381935369805
295,2425.5099999999998,0.45093654111116366
296,2436.71,0.4479178476536781
297,2442.32,0.45396696005577686
298,2453.6,0.45347060964502367
299,2464.92,0.44451210575763667
300,2476.2999999999997,0.43640128665529887
301,2487.73,0.4217683032071685
302,2493.4700000000003,0.4237860443102071
303,2504.9700000000003,0.43788944477796765
304,2510.75,0.41018994240437257
305,2511.88643,0.4090799617345344
306,2516.54,0.404843231305993
307,2522.34,0.40505644775914584
308,2533.98,0.4125994091927148
309,2545.6800000000003,0.4124346734171784
310,2557.43,0.432396348300721
311,2563.32,0.4181562039402159
312,2575.15,0.4265083458782847
313,2587.04,0.41881527060724816
314,2592.9999999999995,0.41280386116945367
315,2604.97,0.4049212129529434
316,2617.0,0.3988386975273277
317,2623.03,0.4102644630122435
318,2635.1400000000003,0.43618751464115413
319,2647.3,0.46058630692914376
320,2653.4,0.4917986073367701
321,2665.65,0.4425297388111017
322,2677.9500000000003,0.4529803409445121
323,2684.13,0.46437933840666473
324,2696.52,0.4347191497264173
325,2702.73,0.45195720358401725
326,2715.21,0.42275815409011175
327,2727.7400000000002,0.4091582052552852
328,2734.03,0.4227817261674114
329,2746.65,0.38422603651892684
330,2752.98,0.3976682759583161
331,2765.69,0.4122324054961736
332,2772.06,0.41748755346282607
333,2784.86,0.3829725821870256
334,2797.71,0.35196963157030403
335,2804.16,0.3556917265914828
336,2817.1099999999997,0.399960677292919
337,2823.6,0.4328846908413608
338,2836.63,0.42663904859732316
339,2843.17,0.403281292804844
340,2856.2999999999997,0.3698233118789643
341,2862.8799999999997,0.4267553446137481
342,2876.09,0.4512599207423946
343,2882.73,0.43697807626807306
344,2884.0315,0.4387286461524685
345,2896.03,0.455550147452804
346,2909.3999999999996,0.5008226286275748
347,2929.57,0.4747674614843529
348,2949.87,0.46177700253505183
349,2970.32,0.46914301457873625
350,2990.91,0.4686504662158738
351,3011.64,0.4701832574464644
352,3032.5200000000004,0.4747379196700404
353,3046.51,0.4805470476158177
354,3067.63,0.49034136342817053
355,3088.9,0.4869352502335088
356,3110.31,0.5071741766323001
357,3131.87,0.490560574024077
358,3153.5800000000004,0.48754924240883923
359,3168.13,0.503370028728429
360,3190.0899999999997,0.47061568210150034
361,3212.2000000000003,0.48996500646755714
362,3227.03,0.453427771974053
363,3249.4,0.5172573127279513
364,3271.9199999999996,0.5533044244748351
365,3287.03,0.545168469168237
366,3309.8100000000004,0.5290275973029623
367,3311.31121,0.5276017699034306
368,3325.09,0.5150649211558476
369,3332.75,0.5204373582131976
370,3340.44,0.5005626870605895
371,3348.14,0.558061946504662
372,3355.86,0.5347458671420957
373,3363.59,0.45011031837620996
374,3371.3399999999997,0.47500893080368556
375,3379.12,0.540446335021203
376,3386.9100000000003,0.5251758698354009
377,3394.71,0.5168037352462795
378,3402.54,0.5746989924472
379,3410.38,0.511525680244801
380,3418.2400000000002,0.4946203292357634
381,3426.13,0.5245328700167675
382,3434.02,0.5618502107977716
383,3441.94,0.5140181433688176
384,3449.87,0.49558460653654424
385,3457.83,0.5266433614943127
386,3465.8,0.4922465470487617
387,3473.79,0.5441954937965721
388,3481.7999999999997,0.5050855017377436
389,3489.82,0.5308491402755956
390,3497.8700000000003,0.4998262706034895
391,3505.93,0.5554507315280641
392,3514.01,0.5177968536459999
393,3522.11,0.5487174369572969
394,3530.2299999999996,0.49180568146195525
395,3538.3700000000003,0.5507652871599746
396,3546.5299999999997,0.5573967540513554
397,3554.7000000000003,0.5550833515394167
398,3562.9,0.5318656408175199
399,3571.11,0.4766600606923036
400,3579.3399999999997,0.5023271417604487
401,3587.59,0.4395301840219549
402,3595.86,0.5156383874768223
403,3604.1499999999996,0.5562208521250511
404,3612.46,0.47372787796664095
405,3620.79,0.512513665001592
406,3629.1400000000003,0.5848443132299044
407,3637.5,0.5162324920548974
408,3645.89,0.5708844626699323
409,3654.29,0.5543059638816477
410,3662.72,0.6370746568834049
411,3671.16,0.5951217804818429
412,3679.62,0.5891189652736419
413,3688.1000000000004,0.5658929112588023
414,3696.61,0.5934593490340045
415,3705.1299999999997,0.6214606174058873
416,3713.67,0.5341213469711312
417,3722.2300000000005,0.5437465377297365
418,3730.81,0.542894889681703
419,3739.4100000000003,0.4178453028270307
420,3748.0299999999997,0.4920489771657197
421,3756.6699999999996,0.5582774126977699
422,3765.33,0.5304697094231812
423,3774.0099999999998,0.5137552673419539
424,3782.71,0.6155984864540877
425,3791.4300000000003,0.5316019667595827
426,3800.17,0.478613308258439
427,3801.8939600000003,0.5002200970024241
428,3808.93,0.5886022333245335
429,3817.7100000000005,0.5198680520379189
430,3826.51,0.5029919942563462
431,3835.33,0.4436638599798154
432,3844.18,0.44084476096084735
433,3853.04,0.5493438736944003
434,3861.9199999999996,0.508142009932995
435,3870.8199999999997,0.5594397696766317
436,3872.26,0.511113162039647
437,3876.2999999999997,0.5038970100581068
438,3880.3399999999997,0.5175419580765666
439,3884.37,0.5374215943425055
440,3888.41,0.5401377423609652
441,3892.4500000000003,0.566517090379425
442,3896.4900000000002,0.5850940383978848
443,3900.52,0.5896249746638237
444,3904.5600000000004,0.6102580226822834
445,3908.6,0.6075165707007433
446,3912.63,0.6031426069666821
447,3916.67,0.6011397549851418
448,3920.71,0.5620529030036017
449,3924.75,0.5133908510220614
450,3928.78,0.4485598872880002
451,3932.82,0.41944413530646
452,3936.8599999999997,0.4474113833249198
453,3940.9,0.46066063134337965
454,3944.93,0.5449305676093185
455,3948.97,0.5798352156277783
456,3953.01,0.568084263646238
457,3957.04,0.536461299912177
458,3961.0800000000004,0.5273460479306367
459,3965.12,0.4791587959490965
460,3969.16,0.4706248439675563
461,3973.1899999999996,0.5137216802334951
462,3977.23,0.5746637282519549
463,3981.27,0.6492217762704147
464,3985.3100000000004,0.6690796242888744
465,3989.34,0.7121872605548132
466,3993.38,0.7287479085732731
467,3997.42,0.7334699565917329
468,4001.45,0.7488835928576717
469,4005.49,0.7363545408761315
470,4009.53,0.7455921888945912
471,4013.57,0.7604499369130511
472,4017.6,0.7915422731789898
473,4021.6400000000003,0.7881315211974497
474,4025.68,0.7638027692159095
475,4029.72,0.7549103172343693
476,4033.75,0.7457278535003081
477,4037.79,0.750905401518768
478,4041.83,0.7375845495372277
479,4045.86,0.7283465858031666
480,4049.9,0.7273198338216262
481,4053.9399999999996,0.7298325818400861
482,4057.98,0.7263568298585459
483,4062.0099999999998,0.7568938661244847
484,4066.0499999999997,0.7360923141429445
485,4070.09,0.7174807621614042
486,4074.13,0.721699010179864
487,4078.1600000000003,0.7525460464458029
488,4082.2000000000003,0.7659503944642627
489,4086.24,0.7693837424827226
490,4090.2699999999995,0.7729145787486613
491,4094.31,0.7443804267671211
492,4098.35,0.7201388747855809
493,4102.39,0.7053619228040408
494,4106.42,0.7079069590699796
495,4110.46,0.7285111070884394
496,4114.5,0.7537663551068992
497,4118.54,0.7559372031253588
498,4122.57,0.7618158393912978
499,4126.61,0.7531171874097576
500,4130.650000000001,0.7335436354282173
501,4134.68,0.7419415716941561
502,4138.72,0.7489309197126159
503,4142.76,0.7356297677310757
504,4146.8,0.7249129157495355
505,4150.83,0.7430007520154744
506,4154.87,0.7363757000339342
507,4158.91,0.755465348052394
508,4162.95,0.7322801960708537
509,4166.9800000000005,0.7585079323367926
510,4171.0199999999995,0.7284981803552524
511,4175.0599999999995,0.7123866283737122
512,4179.09,0.730862264639651
513,4183.13,0.7323865126581107
514,4187.17,0.7438502606765706
515,4191.21,0.7422737086950304
516,4195.24,0.7217371449609692
517,4199.280000000001,0.7294533929794289
518,4203.32,0.7458203409978889
519,4207.36,0.7426546890163486
520,4211.389999999999,0.7559653252822874
521,4215.43,0.7594540733007472
522,4219.47,0.723061321319207
523,4223.5,0.7286394575851458
524,4227.54,0.7378454056036057
525,4231.58,0.7319955536220655
526,4235.62,0.7504485016405251
527,4239.65,0.7694280379064641
528,4243.69,0.7826454859249238
529,4247.7300000000005,0.7721250339433836
530,4251.77,0.7682811819618434
531,4255.8,0.7543119182277822
532,4259.84,0.7577742662462421
533,4263.88,0.7584167142647018
534,4267.91,0.7654678505306407
535,4271.95,0.7475703985491005
536,4275.99,0.7381354465675602
537,4280.030000000001,0.7270820945860199
538,4284.06,0.7370762308519587
539,4288.1,0.7250053788704187
540,4292.139999999999,0.7018880268888785
541,4296.18,0.6594485749073382
542,4300.21,0.6407408111732771
543,4304.25,0.6396294591917369
544,4308.29,0.6510764072101967
545,4312.32,0.7020595434761355
546,4316.360000000001,0.7360551914945952
547,4320.4,0.7923282395130551
548,4324.44,0.8142084875315149
549,4328.47,0.7992053237974537
550,4332.51,0.8013692718159134
551,4336.55,0.7978158198343732
552,4340.59,0.799579667852833
553,4344.62,0.788122904118772
554,4348.66,0.8053740521372317
555,4352.7,0.8369346001556914
556,4356.73,0.8561955364216303
557,4360.7699999999995,0.8458398844400901
558,4364.81,0.8653683324585499
559,4365.15832,0.8641510702817682
560,4368.85,0.8513249389586324
561,4372.88,0.8422372123591385
562,4376.92,0.8066338008301174
563,4380.96,0.7820452893010963
564,4385.0,0.7712000777720752
565,4389.03,0.7862305511725814
566,4393.07,0.7972267396435604
567,4397.110000000001,0.7975610281145392
568,4401.14,0.8340260015150455
569,4405.18,0.8313687899860244
570,4409.22,0.8241058784570032
571,4413.26,0.8352377669279821
572,4417.29,0.8507142403284884
573,4421.33,0.8748016287994673
574,4425.37,0.8686238172704461
575,4429.4,0.8582279906709523
576,4433.4400000000005,0.8665497791419312
577,4437.48,0.8691025676129102
578,4441.5199999999995,0.8998180560838891
579,4445.55,0.8996453294843952
580,4449.59,0.8712773179553741
581,4453.63,0.8680581064263531
582,4457.67,0.8740154948973319
583,4461.7,0.8743366682978381
584,4465.740000000001,0.878091256768817
585,4469.78,0.8967231452397959
586,4473.82,0.9109462337107749
587,4477.849999999999,0.9531772071112811
588,4481.89,0.9471152955822599
589,4485.93,0.9215702840532388
590,4489.96,0.922861057453745
591,4494.0,0.9504722459247239
592,4498.04,0.9510127343957029
593,4502.08,0.9564467228666818
594,4506.11,0.9811452962671878
595,4510.15,0.9911530847381669
596,4514.1900000000005,0.9664413732091457
597,4518.23,0.9587549616801245
598,4522.26,0.9078711350806308
599,4526.3,0.9052140235516097
600,4530.34,0.9080511120225886
