,lambda (Angstroms),Total Flux (erg/s/cm^2/Angstrom)
0,102.08999999999999,25.34468554504426
1,103.99000000000001,25.272444403837223
2,104.712855,25.24496026166501
3,105.92,25.00386662507812
4,107.89,24.610413921321598
5,109.89999999999999,24.20897233017916
6,114.02000000000001,23.386116929429498
7,118.02999999999999,22.58523096899115
8,120.22644299999999,22.14655257457677
9,121.06,22.00697671878408
10,125.03,21.342215763627987
11,127.06,21.002300212251047
12,127.94,20.854947657959677
13,130.92,20.35595832638206
14,132.13,20.153348564231923
15,133.97,19.84524776889587
16,137.09,19.322815985501457
17,138.038426,19.164005765438244
18,139.96,18.93401694771816
19,142.89,18.583331917701635
20,146.89000000000001,18.104581023542973
21,151.01,17.61146760252111
22,154.88,17.148276112421375
23,158.489319,16.716284937819854
24,158.85,16.68364831585851
25,162.18,16.382329557384477
26,165.96,16.040292047861808
27,169.82,15.691015649307612
28,172.98000000000002,15.405079530340172
29,177.01000000000002,15.040420492652277
30,179.89000000000001,14.77982048568183
31,181.97000000000003,14.591609369567639
32,181.970086,14.591601587761879
33,186.20999999999998,14.298910717683913
34,190.98,13.969626810411963
35,194.09,13.754936464359718
36,198.15,13.474665466203698
37,201.84,13.219936406926605
38,205.11999999999998,12.993510576456615
39,208.929613,12.73052436106031
40,209.89000000000001,12.68068080771627
41,215.76999999999998,12.375512067494904
42,219.78,12.167395291089667
43,222.84,12.008582987989062
44,226.99,11.793200290867057
45,230.14,11.629717059888778
46,233.88,11.435613181033913
47,239.88,11.124216562300518
48,239.88329199999998,11.124045709336167
49,246.04000000000002,10.877813295062781
50,251.77,10.648646747622852
51,257.04,10.437877455583463
52,260.01,10.319094832564089
53,264.24,10.149919543327108
54,269.15000000000003,9.953548217092992
55,274.15999999999997,9.753177476933708
56,275.42287,9.70267005376678
57,279.25,9.585201159669618
58,283.79,9.445851646555283
59,289.72999999999996,9.263530881389434
60,295.8,9.07721998158183
61,301.3,8.908404477937093
62,308.32,8.692934571675222
63,316.227766,8.450215868572865
64,317.69,8.416693880103889
65,328.09,8.178271918845493
66,338.06,7.949707818741184
67,348.34,7.714036927667161
68,357.27000000000004,7.509315114978092
69,363.078055,7.376164509279897
70,365.59000000000003,7.333038174132549
71,374.97,7.1719975140786465
72,384.59,7.0068363506184665
73,395.36,6.821931704369167
74,404.57,6.663809965389167
75,414.0,6.501911018474998
76,416.86938299999997,6.452648013352985
77,421.69,6.389445278148793
78,429.53,6.286655701274378
79,440.54999999999995,6.142173608024547
80,450.81,6.0076556606422535
81,460.25000000000006,5.883888592343753
82,469.89000000000004,5.7574995455937445
83,478.630092,5.642909212098585
84,479.73,5.631818342843231
85,489.78000000000003,5.530479320437265
86,500.03,5.4271241046782945
87,505.82,5.368741143698318
88,511.68,5.3096573095082915
89,519.99,5.225864477556462
90,529.66,5.128358374202204
91,539.51,5.029036086489241
92,549.5400000000001,4.927904611587574
93,549.5408739999999,4.92789579907288
94,559.75,4.849370811216182
95,570.16,4.769300583737112
96,579.4300000000001,4.697994573193213
97,590.2,4.615159632424091
98,599.79,4.541395784006813
99,609.53,4.466483391107011
100,619.4399999999999,4.390267408236351
101,629.5000000000001,4.312894193813167
102,630.957344,4.30168475823796
103,639.73,4.248194304148707
104,650.13,4.184793492809628
105,657.6500000000001,4.1389494111545995
106,665.27,4.092494305273044
107,674.52,4.0360953323690545
108,685.48,3.9692670458814097
109,695.02,3.911143973930484
110,704.69,3.852176578055071
111,716.14,3.782403874867431
112,724.43596,3.7318327298552676
113,726.0999999999999,3.724303962918068
114,734.51,3.6862568881273994
115,744.73,3.6400484388355276
116,755.09,3.593192030268426
117,765.59,3.545701182826093
118,774.46,3.5056073675025217
119,785.2299999999999,3.4569129904865297
120,794.32,3.4158085571733094
121,805.37,3.365836377706855
122,814.7,3.323647631850381
123,824.13,3.281052705725886
124,831.763771,3.246420765583228
125,835.5999999999999,3.233402025410042
126,845.2700000000001,3.200887824695674
127,855.06,3.1678162960441054
128,864.96,3.134415683875104
129,874.98,3.1006191584689025
130,885.11,3.0664812281452676
131,895.36,3.0319045293844322
132,905.73,2.9968469031863973
133,914.11,2.969364375821929
134,924.6899999999999,2.948421676108795
135,935.4,2.9346938938386926
136,944.0600000000001,2.9450584661207575
137,954.99,2.9460628232157897
138,954.992586,2.946057994299042
139,966.04,2.9262362151728687
140,974.98,2.782626517184113
141,984.01,2.8478009297189604
142,995.4000000000001,2.822055499317179
143,1004.6099999999999,2.8600656828992332
144,1013.91,2.8262855370048903
145,1025.65,2.6768215319726756
146,1035.1399999999999,2.6985789838503846
147,1044.71,2.8071368495268505
148,1054.38,2.7746376824517647
149,1064.1399999999999,2.683892785900283
150,1073.98,2.701272463147558
151,1083.92,2.6112381076432816
152,1093.95,2.659036022662608
153,1096.4782,2.6485478113295686
154,1104.0700000000002,2.6216083265416485
155,1114.29,2.585025496321758
156,1124.6000000000001,2.531976135894451
157,1135.0,2.5826642452597284
158,1145.51,2.526138117704831
159,1156.1100000000001,2.5232047599425176
160,1164.1200000000001,2.517938771482505
161,1174.8899999999999,2.3815282566617406
162,1185.76,2.457627008277179
163,1193.98,2.3241417493331964
164,1205.03,2.226462340533804
165,1216.18,2.1458093981706154
166,1224.61,2.2497267687426628
167,1235.94,2.3563499659646427
168,1244.51,2.3780864895473766
169,1256.02,2.3296663263545248
170,1258.92541,2.3024551691447983
171,1264.73,2.252608233180121
172,1276.43,2.3464113412130985
173,1285.28,2.3579790857508636
174,1294.19,2.2324926010990533
175,1306.16,2.208174327778946
176,1315.22,2.3013289201532
177,1324.33,2.2662135048694756
178,1333.51,2.1924341388645803
179,1345.8500000000001,2.2615614688754295
180,1355.18,2.2309354798965986
181,1364.58,2.158845840196598
182,1374.03,2.170174792838618
183,1383.5600000000002,2.161709373227872
184,1396.3600000000001,2.0760816127853166
185,1406.04,2.079303670200635
186,1415.7900000000002,2.0707878768947823
187,1425.6,2.069915754399356
188,1435.48,2.0496955811827586
189,1442.1100000000001,2.068952905734779
190,1445.43,2.0734295572449915
191,1445.43977,2.0733980647180044
192,1455.45,2.0469720260750868
193,1465.54,1.9944755889772003
194,1475.7,1.9827675452790312
195,1485.93,1.9817997949805795
196,1496.23,1.9799349380818452
197,1506.6,1.940531374582828
198,1513.55,1.8774925478404783
199,1517.04,1.9063993044835283
200,1524.0400000000002,1.884391944455262
201,1534.61,1.8126222478125804
202,1545.24,1.844507031226799
203,1555.96,1.8072120347263687
204,1566.74,1.8006715182828388
205,1573.97,1.8212809651393584
206,1584.8799999999999,1.8319219221524468
207,1595.8700000000001,1.8295537859080686
208,1603.24,1.8135461195640228
209,1614.35,1.8023923434334463
210,1625.54,1.7615245740454037
211,1636.81,1.7786690113998953
212,1644.36,1.7799529852265512
213,1655.76,1.7251627960376603
214,1659.58691,1.7435709814448332
215,1663.3999999999999,1.763453488231138
216,1671.0800000000002,1.7004950797317513
217,1678.79,1.7518250336991643
218,1686.54,1.769514404288976
219,1694.33,1.7308329915011869
220,1706.0700000000002,1.7000980701753017
221,1713.9499999999998,1.6674274447879105
222,1725.83,1.654424381640422
223,1733.79,1.6812039894978288
224,1745.81,1.6580749845287366
225,1753.87,1.686428933942141
226,1766.0300000000002,1.6307247871514456
227,1774.1799999999998,1.637116223965248
228,1786.48,1.6344454353529492
229,1794.72,1.663691059567149
230,1803.01,1.653513154559348
231,1815.51,1.5994221490590443
232,1823.8799999999999,1.603729677296041
233,1836.5300000000002,1.5708605841297338
234,1845.0,1.524675853922728
235,1853.52,1.5185551944937212
236,1866.37,1.5204019844394092
237,1874.98,1.5528284124108
238,1883.64,1.5048943111601898
239,1896.7,1.4742712383734726
240,1905.4499999999998,1.4932401245232603
241,1905.46072,1.4932097304606562
242,1914.24,1.4705338157903785
243,1923.0800000000002,1.457224602167948
244,1936.41,1.460741577214668
245,1945.3500000000001,1.4741148428499022
246,1954.33,1.4387367201882024
247,1967.87,1.4718474316760186
248,1976.96,1.4796749661977502
249,1986.0800000000002,1.4445141344967811
250,1995.25,1.4252170924246448
251,2004.46,1.433139862055574
252,2013.71,1.4095908433895694
253,2023.01,1.425874814352397
254,2037.03,1.389294766277004
255,2046.4299999999998,1.4009776164974965
256,2055.88,1.3742605563468215
257,2065.37,1.3691987078992125
258,2074.9,1.3935705711546693
259,2079.68,1.3656264196710475
260,2084.48,1.3798656240389584
261,2094.1,1.3466073886263135
262,2103.77,1.343358042842501
263,2113.48,1.3400847087617545
264,2123.23,1.340935586384074
265,2133.0299999999997,1.3003589536352258
266,2142.88,1.3035929105152098
267,2152.77,1.3131408790982602
268,2162.71,1.2923628373101426
269,2172.69,1.280730607225091
270,2182.72,1.264261066768872
271,2187.7616199999998,1.2707055144031845
272,2192.79,1.2782588695106183
273,2202.91,1.2607648525255117
274,2213.08,1.2351298199426526
275,2223.3,1.2158289717620407
276,2233.56,1.2369917911032275
277,2243.87,1.2125980948466615
278,2254.23,1.1917466829923429
279,2264.63,1.1956349386598222
280,2275.08,1.2041578787295493
281,2285.59,1.211188720081973
282,2296.1400000000003,1.185591928956195
283,2306.73,1.1822165053522151
284,2317.38,1.161861283030932
285,2322.7200000000003,1.0802391971909646
286,2333.44,1.133244993032828
287,2344.22,1.1198525901573888
288,2355.04,1.143938154803747
289,2365.91,1.111730603852353
290,2376.83,1.1187971373032064
291,2382.31,1.0930164877895319
292,2393.2999999999997,1.112892939403532
293,2404.35,1.094304292300229
294,2415.4500000000003,1.0987964295991732
295,2426.6,1.1157247513003652
296,2437.8,1.0964097574038045
297,2443.42,1.1169688442164234
298,2454.7,1.1069944853634588
299,2466.02,1.1015155940322923
300,2477.41,1.0845364208642723
301,2483.12,1.0963648596009363
302,2494.58,1.0697942045960627
303,2506.09,1.1055814339934364
304,2511.87,1.0635897908932472
305,2511.88643,1.0636176798216082
306,2517.66,1.0741072123997084
307,2523.47,1.0559594166737778
308,2535.1099999999997,1.0568664465791422
309,2546.81,1.0475058405561837
310,2552.69,1.071252019580543
311,2564.47,1.0606812989864876
312,2576.31,1.0802898424641092
313,2582.2400000000002,1.0757830748815327
314,2594.16,1.069578303788057
315,2606.1400000000003,1.0541586967662584
316,2612.1499999999996,1.0488187146125851
317,2624.2,1.0620011823410767
318,2636.3199999999997,1.0681224248198582
319,2642.39,1.0985563067378616
320,2654.59,1.100436634645546
321,2666.8399999999997,1.0624538159462948
322,2672.9900000000002,1.079740583293201
323,2685.3300000000004,1.0742596607014656
324,2697.7200000000003,1.055735691502794
325,2703.94,1.0639986335999905
326,2716.42,1.043608560508835
327,2722.69,1.0438002559990958
328,2735.25,1.0614024683368428
329,2747.8799999999997,1.0063398554248804
330,2754.2100000000005,1.0119219149868177
331,2766.92,1.0225659875037578
332,2773.3,1.0395705004587599
333,2786.1000000000004,1.0191054690832155
334,2792.5299999999997,0.9443896354312824
335,2805.42,0.9657395001632536
336,2811.8900000000003,1.0308293092257714
337,2824.86,1.0428557593866457
338,2837.9,1.02255658429781
339,2844.4399999999996,1.013611468110618
340,2857.5699999999997,1.000938689129298
341,2864.16,1.0298709263351702
342,2877.38,1.0230329434613656
343,2884.01,1.0233179233816891
344,2884.0315,1.0233051431875537
345,2897.3300000000004,1.0167632731414742
346,2910.7,1.046151805203456
347,2930.88,1.0293047495572918
348,2951.19,1.021417958022426
349,2971.65,1.0267879020005966
350,2992.25,1.0255376457909346
351,3012.99,1.02771638939344
352,3026.9,1.0265130493023529
353,3047.88,1.0229828497257163
354,3069.0,1.0217536499612474
355,3090.28,1.0217012214106838
356,3111.7,1.0169494926722877
357,3133.2700000000004,1.009802299446928
358,3147.7300000000005,1.010930922903641
359,3169.5499999999997,1.0072893222000088
360,3191.52,0.984894157009413
361,3213.64,0.9963653273318536
362,3228.48,0.9797946074215922
363,3250.85,0.9937542702657602
364,3273.39,1.002222940024703
365,3288.4999999999995,0.9985107840379072
366,3311.29,0.9960175463185772
367,3311.31121,0.9960349416869093
368,3318.92,1.0028222009974639
369,3326.58,1.0021285437207157
370,3334.24,1.0155260864439675
371,3341.9300000000003,0.9869928926504694
372,3349.64,1.0128591078458051
373,3357.3599999999997,0.9905341775355576
374,3365.1,0.9689835562141436
375,3372.85,0.9575338893871461
376,3380.63,0.9909113860433993
377,3388.4199999999996,1.0081384371940691
378,3396.23,0.9882383973335725
379,3404.06,0.9951276664619095
380,3411.9100000000003,0.9755674445790801
381,3419.7699999999995,0.9873488771906673
382,3427.6600000000003,0.9942992732855048
383,3435.56,1.0000509238747592
384,3443.48,0.9726310834528473
385,3451.42,1.0052166520197687
386,3459.37,0.9774321750811071
387,3467.3500000000004,0.9766955616256956
388,3475.34,0.986155802664701
389,3483.35,0.9775308526925401
390,3491.38,0.9903824117092126
391,3499.43,0.9586875797147186
392,3507.5,0.9761986567090583
393,3515.58,0.9635401881978147
394,3523.69,0.9813192831698214
395,3531.8100000000004,0.9761447326362449
396,3539.95,0.986534991091502
397,3548.1099999999997,0.9998534585355927
398,3556.2899999999995,0.9905155349685169
399,3564.4900000000002,0.9918721203902745
400,3572.71,0.9657379148008659
401,3580.94,0.9492947637058738
402,3589.2000000000003,0.9177444760941322
403,3597.47,0.9541532429768075
404,3605.76,0.9604386188483162
405,3614.08,0.9502227582030753
406,3622.41,0.9539400520522512
407,3630.76,1.0185245548902606
408,3639.1299999999997,0.9853178667171036
409,3639.3599999999997,0.9333532200886894
410,3642.0400000000004,0.9732149245923858
411,3644.73,0.977064583590499
412,3647.42,0.9401321425886122
413,3650.1099999999997,0.9500606015867255
414,3652.7900000000004,0.9535201060904218
415,3655.48,0.963520565088535
416,3658.17,0.9254752240866484
417,3660.86,0.9386945830847615
418,3663.54,0.9621501875884579
419,3666.2299999999996,0.9564504465865713
420,3668.92,0.9617002055846844
421,3671.61,0.9809984645827975
422,3674.29,0.9335403690864941
423,3676.9800000000005,0.9650207280846071
424,3679.67,0.9584833870827204
425,3682.35,0.935041991586417
426,3685.04,0.96013225058453
427,3687.73,0.9371050095826433
428,3690.4199999999996,0.9099134685807565
429,3693.1000000000004,0.9681317730844528
430,3695.79,0.9778210320825661
431,3698.48,0.9718939910806793
432,3701.1699999999996,0.9307852500787925
433,3703.8500000000004,0.9456248545824888
434,3706.54,0.9755496135806021
435,3709.23,0.9749116725787155
436,3711.92,0.9365194315768286
437,3714.6,0.982137036080525
438,3717.29,0.9901988950786381
439,3719.98,1.0258314540767515
440,3722.67,1.1618153130748645
441,3725.35,1.441571817578561
442,3728.0400000000004,1.650300276576674
443,3730.73,1.5891587355747876
444,3733.42,1.3723923945729006
445,3736.1,1.1490749990765972
446,3738.79,0.9999559580747104
447,3741.48,1.0371921170728235
448,3744.1600000000003,1.0102448215765198
449,3746.85,1.0072254805746332
450,3749.54,0.9762882395727464
451,3752.2299999999996,0.9645693985708597
452,3754.9100000000003,1.039074503074556
453,3757.6,1.0532510620726694
454,3760.29,1.1275715210707824
455,3762.98,1.1011335800688955
456,3765.6600000000003,1.058295084572592
457,3768.35,0.9949521435707054
458,3771.04,0.9770585025688184
459,3773.73,1.0410039615669318
460,3776.41,1.1469934660706282
461,3779.1000000000004,1.2061281250687412
462,3781.79,1.2371773840668545
463,3784.48,1.2878755430649678
464,3787.16,1.2400715475686641
465,3789.8500000000004,1.2078295065667772
466,3792.54,1.1128591655648905
467,3795.2200000000003,1.041576070068587
468,3797.91,0.9800760290667003
469,3800.6,0.9935346880648135
470,3801.8939600000003,1.0337343016414864
471,3803.2899999999995,1.077175921394752
472,3805.9700000000003,1.1848570005276085
473,3808.66,1.254838040403498
474,3811.35,1.2835102802793874
475,3814.0400000000004,1.2897573201552768
476,3816.7200000000003,1.2844506992881333
477,3819.41,1.2990862391640228
478,3822.1,1.285360979039912
479,3824.79,1.2722103189158014
480,3827.4700000000003,1.1841427980486579
481,3830.1600000000003,1.0800103379245471
482,3832.85,1.0035687778004365
483,3835.54,0.956864217676326
484,3838.22,0.9427368968091825
485,3840.9100000000003,1.0308954366850718
486,3843.6,1.1190896765609613
487,3846.29,1.2164261164368506
488,3848.97,1.287094895569707
489,3851.6600000000003,1.3666607354455964
490,3854.3500000000004,1.3574230753214858
491,3857.03,1.364203254454342
492,3859.72,1.3648728943302317
493,3862.41,1.388435534206121
494,3865.1000000000004,1.3586155740820103
495,3867.78,1.4058070532148668
496,3870.47,1.4066566930907562
497,3873.16,1.3799953329666457
498,3875.85,1.330908772842535
499,3878.53,1.2349196519753913
500,3881.2200000000003,1.1708990918512807
501,3883.91,1.12881343172717
502,3886.6,1.0606406716030596
503,3889.2799999999997,1.016489650735916
504,3891.9700000000003,1.0514687906118054
505,3894.66,1.0784182304876948
506,3897.35,1.1576611703635844
507,3900.0299999999997,1.2061677494964407
508,3902.7200000000003,1.25545858937233
509,3905.4100000000003,1.2935845292482195
510,3908.1,1.3259782691241089
511,3910.7799999999997,1.3573252482569653
512,3913.47,1.3577448881328547
513,3916.1600000000003,1.423345528008744
514,3918.84,1.4163394071416004
515,3921.5299999999997,1.4022320470174898
516,3924.22,1.3380194868933792
517,3926.9100000000003,1.2834526267692685
518,3929.59,1.252872305902125
519,3932.28,1.1816119457780143
520,3934.97,1.154388785653904
521,3937.66,1.1902291255297932
522,3940.34,1.2414161046626497
523,3943.03,1.280643144538539
524,3945.72,1.3211145844144285
525,3948.41,1.344904424290318
526,3951.0899999999997,1.3737748034231743
527,3953.78,1.3476038432990638
528,3956.4700000000003,1.285617583174953
529,3959.16,1.2542059230508427
530,3961.8399999999997,1.1801391021836989
531,3964.53,1.0587270420595882
532,3967.2200000000003,0.9453329819354777
533,3969.91,0.8770529218113671
534,3972.5899999999997,0.9184980009442235
535,3975.2799999999997,1.0187188408201129
536,3977.9700000000003,1.1202437806960024
537,3980.65,1.2230784598288587
538,3983.34,1.261730899704748
539,3986.0299999999997,1.3377549395806376
540,3988.7200000000003,1.401860479456527
541,3991.4,1.4228323585893834
542,3994.09,1.4218509984652727
543,3996.7799999999997,1.4709986383411622
544,3999.47,1.4902292782170514
545,4002.15,1.489901157349908
546,4004.84,1.4863227972257973
547,4007.53,1.4605234371016866
548,4010.22,1.462737076977576
549,4012.8999999999996,1.4940489561104324
550,4015.59,1.4957605959863218
551,4018.28,1.5032522358622114
552,4020.97,1.5156248757381008
553,4023.6499999999996,1.496940754870957
554,4026.34,1.5026853947468464
555,4029.03,1.508070034622736
556,4031.71,1.4767249137555922
557,4034.4,1.4766175536314816
558,4037.0899999999997,1.4876151935073711
559,4039.78,1.4978708333832604
560,4042.46,1.494802712516117
561,4045.15,1.4940123523920061
562,4047.8399999999997,1.4971479922678959
563,4050.5299999999997,1.450861632143785
564,4053.21,1.4675025112766416
565,4055.9,1.477506151152531
566,4058.59,1.4545907910284204
567,4061.2799999999997,1.4644874309043097
568,4063.9599999999996,1.4453483100371662
569,4066.65,1.4211879499130553
570,4069.34,1.429157589788945
571,4072.0299999999997,1.4241322296648342
572,4074.7100000000005,1.3848411087976906
573,4077.4,1.3816457486735803
574,4080.09,1.4139203885494696
575,4082.7799999999997,1.4095410284253589
576,4085.46,1.3898989075582153
577,4088.1499999999996,1.3628545474341047
578,4090.84,1.2901939873099941
579,4093.52,1.2514885664428506
580,4096.21,1.18941850631874
581,4098.9,1.1200968461946292
582,4101.59,1.0634001860705187
583,4104.2699999999995,1.0452044652033752
584,4106.96,1.1141088050792645
585,4109.650000000001,1.207448544955154
586,4112.34,1.2588215848310433
587,4115.0199999999995,1.2899528639638997
588,4117.71,1.3187688038397891
589,4120.400000000001,1.3497149437156786
590,4123.09,1.3909995835915678
591,4125.77,1.4025784627244242
592,4128.46,1.3950871026003138
593,4131.150000000001,1.3889007424762032
