,lambda (Angstroms),Total Flux (erg/s/cm^2/Angstrom)
0,102.05000000000001,0.9221156316146409
1,103.95,0.9194878610009044
2,104.712855,0.9184328578375534
3,105.88,0.9099526750031318
4,108.10000000000001,0.8938228334594132
5,110.11,0.8792196966859788
6,113.98,0.8511020960684555
7,117.99000000000001,0.8219673611007431
8,120.22644299999999,0.8057353636584571
9,121.01,0.8009684185168465
10,124.98,0.776790727273404
11,127.01,0.7644268790787722
12,127.89,0.759068235175188
13,130.87,0.7409184674757777
14,132.07999999999998,0.7335556113508496
15,133.92,0.7223492628851734
16,137.04,0.7033568393033747
17,138.038426,0.6972764124021812
18,139.9,0.6891738578598696
19,143.16,0.6751052749271506
20,146.84,0.6593726864440813
21,150.95000000000002,0.6415011073806534
22,154.82,0.6246833355574257
23,158.489319,0.6087394986146749
24,159.16,0.606537786810727
25,162.12,0.5968201666205644
26,165.89,0.58445558508681
27,170.14999999999998,0.5704633319056975
28,172.91,0.561408845775681
29,176.94000000000003,0.5481749406637362
30,179.82000000000002,0.5387190590976321
31,181.9,0.5318901982721125
32,181.970086,0.5316600424703286
33,186.14,0.5212210839037023
34,190.91,0.509283205103097
35,194.01000000000002,0.5015308554396009
36,198.07999999999998,0.4913391594952689
37,202.22,0.48097960608530965
38,205.04000000000002,0.4739248021843228
39,208.929613,0.4641525304098477
40,209.81,0.4624893933412569
41,216.19,0.4505375217621682
42,220.20999999999998,0.442985805243683
43,222.76000000000002,0.43818164169091234
44,226.89999999999998,0.430407932440532
45,230.05999999999997,0.4250789238339614
46,233.79,0.41912037675088926
47,239.79,0.40841362715613494
48,239.88329199999998,0.4082336654696473
49,245.94000000000003,0.3991734801391215
50,252.25,0.3901471762764268
51,256.94,0.3827509258491624
52,259.92,0.3788248323815189
53,264.14,0.3728155049139165
54,269.05,0.365624466760853
55,274.05,0.3582882100835988
56,275.42287,0.35627441400914217
57,279.15,0.3520683667540494
58,283.68,0.346973058227178
59,290.29,0.33939858564823333
60,295.69,0.3333617003976583
61,301.18,0.32714289369290683
62,308.2,0.31927709726715925
63,316.227766,0.31028642292724123
64,318.29999999999995,0.3085512944873431
65,327.96999999999997,0.30039568032323855
66,337.92999999999995,0.29198260271781135
67,348.2,0.28330914095097026
68,357.13,0.27579184043024085
69,363.078055,0.2708050805259891
70,366.3,0.2687786268712345
71,374.83000000000004,0.26336796299342147
72,385.33,0.2566421671367935
73,395.21,0.2504761241059854
74,405.35,0.24409252789015615
75,413.84,0.23871206119465413
76,416.86938299999997,0.23678686030914378
77,421.53000000000003,0.2345129844754207
78,430.35999999999996,0.2302337410815932
79,441.4,0.22491554062203978
80,450.64,0.2204325945961092
81,460.08,0.215853208188665
82,469.71,0.21119787926878278
83,478.630092,0.2069056505036188
84,479.54999999999995,0.20656432193161578
85,489.59000000000003,0.20279469379339046
86,499.84000000000003,0.19901020884251305
87,505.63,0.19684527929367596
88,511.48,0.19484357194122395
89,519.8,0.19175122517329227
90,529.46,0.18815108479129458
91,540.55,0.18398878558980872
92,549.5408739999999,0.18071695947957964
93,550.6,0.18042367986597796
94,559.54,0.17796559656740246
95,569.94,0.17507928717979782
96,580.54,0.1720383940539701
97,589.97,0.16945661689674782
98,599.5600000000001,0.16672558594894699
99,609.3,0.16394441169747886
100,620.63,0.16093596302713653
101,630.71,0.15811510222068895
102,630.957344,0.15804548318091105
103,639.49,0.15613873016425256
104,649.88,0.15388771671403761
105,657.4000000000001,0.15223414084439213
106,665.0200000000001,0.15058110021584178
107,674.27,0.1485027470171423
108,685.22,0.14601511191706013
109,694.76,0.14412948491753655
110,704.4200000000001,0.14188245720732703
111,715.87,0.13953477931272062
112,724.43596,0.1376494098078941
113,725.8299999999999,0.1374222810779787
114,734.23,0.13605664330601808
115,744.4399999999999,0.13451675732486126
116,754.8000000000001,0.1328730719727765
117,765.3,0.13116361200782578
118,774.16,0.12986259336501974
119,784.93,0.12818066793239888
120,795.85,0.1264379251288501
121,805.0699999999999,0.1249764991958172
122,814.39,0.12348222168216569
123,825.72,0.12179180079808075
124,831.763771,0.12051117458723615
125,835.2800000000001,0.11991233587584463
126,844.95,0.11922393813528628
127,854.7399999999999,0.1180572354775752
128,864.63,0.1169923157222368
129,874.65,0.11591964113998293
130,884.77,0.11488919946010179
131,895.02,0.11376047295330517
132,905.3799999999999,0.11244558643911856
133,915.87,0.11291288609801647
134,924.34,0.1418095745289855
135,935.0400000000001,0.1834569710828661
136,945.87,0.25489660580983126
137,954.62,0.3175301597674439
138,954.992586,0.31836646757652065
139,965.6800000000001,0.34238388996716945
140,974.61,0.13741403121874873
141,985.9,0.29944575268911044
142,995.02,0.3097202118396594
143,1004.23,0.4064214321002468
144,1015.86,0.3897348066529754
145,1025.26,0.21566744481253253
146,1034.74,0.2917325484032348
147,1044.32,0.4790341087828685
148,1053.98,0.46733493459364744
149,1066.18,0.3823226628432854
150,1076.05,0.43633589791082034
151,1086.01,0.3572662940883936
152,1096.06,0.4461475513760052
153,1096.4782,0.445363472501636
154,1106.2,0.4273483785726398
155,1113.87,0.4096684861076466
156,1124.17,0.37326786519637806
157,1134.57,0.45073998388791275
158,1145.07,0.4118862421822507
159,1155.67,0.4304471400793918
160,1163.68,0.4394696222639296
161,1174.44,0.3239928435255558
162,1185.31,0.42112461835026566
163,1196.28,0.3070090327777787
164,1204.57,0.23724200585016547
165,1215.72,0.17993827156272424
166,1224.1399999999999,0.2959118261187552
167,1235.47,0.4138134431163598
168,1244.03,0.44592769311631525
169,1255.55,0.42465257535924605
170,1258.92541,0.4033125138119727
171,1264.25,0.36980006442789837
172,1275.9499999999998,0.45821323480412746
173,1284.7900000000002,0.4750248435328339
174,1293.7,0.3833248317424237
175,1305.6699999999998,0.37672242297348896
176,1314.72,0.45549137014484564
177,1323.83,0.43476319972838806
178,1336.0800000000002,0.3877086088829869
179,1345.34,0.4488788944969939
180,1354.67,0.4334470595918843
181,1364.06,0.39024050709896047
182,1373.51,0.4050237370182224
183,1386.22,0.40650691133291234
184,1395.8300000000002,0.35916679435133636
185,1405.5,0.36899545978194626
186,1415.2500000000002,0.3726167017621371
187,1425.06,0.37923082615451387
188,1434.94,0.37413263002777397
189,1441.5600000000002,0.39088408950560616
190,1445.43977,0.3933252820283087
191,1448.21,0.39512714578810443
192,1454.9,0.3832966980289138
193,1464.9799999999998,0.3554157184455593
194,1475.14,0.3521622136274163
195,1485.3600000000001,0.3557897648831818
196,1495.66,0.35947729090415886
197,1506.03,0.34056538234469597
198,1512.9799999999998,0.3072758775724426
199,1516.46,0.32464482985914167
200,1523.46,0.31508567181514546
201,1534.0300000000002,0.27863595016871123
202,1544.6599999999999,0.30051768459618555
203,1555.3700000000001,0.2844695937888714
204,1566.15,0.2871835684011173
205,1573.38,0.30198622530710406
206,1584.2800000000002,0.3127081120671672
207,1595.26,0.31643627359244175
208,1606.32,0.30921630988292775
209,1613.74,0.3088489443562918
210,1624.92,0.292612892794595
211,1636.18,0.30715361599810975
212,1643.74,0.3097874813105939
213,1655.1299999999999,0.28777012600757723
214,1659.58691,0.2958906080471806
215,1666.6000000000001,0.3087715432881984
216,1670.45,0.2795163393259462
217,1678.1599999999999,0.30897888775478655
218,1685.8999999999999,0.31922230524366124
219,1693.6799999999998,0.3006720481459152
220,1705.42,0.28877240697270967
221,1713.3000000000002,0.2753678134084116
222,1725.17,0.2728501048286885
223,1733.1399999999999,0.2872503184444936
224,1745.15,0.2796610988115977
225,1753.2,0.29512796325416113
226,1765.36,0.27198948892143726
227,1773.51,0.27705281689744876
228,1785.8,0.2798962751582072
229,1794.0400000000002,0.2954632103143219
230,1806.48,0.29155741387525236
231,1814.82,0.27135571256481505
232,1823.19,0.2748139803144121
233,1835.83,0.26435191094223853
234,1844.3000000000002,0.24433984222528365
235,1857.0900000000001,0.24483801815328207
236,1865.66,0.2507828129697751
237,1874.2700000000002,0.26666983319964743
238,1882.9199999999998,0.2477691788428989
239,1895.9699999999998,0.23883111995786213
240,1904.73,0.2494390854879064
241,1905.46072,0.24873929303235032
242,1913.52,0.2410951176347878
243,1926.78,0.23567409096184472
244,1935.6799999999998,0.23867046219946214
245,1944.61,0.24940997794686925
246,1953.5900000000001,0.23544443454392588
247,1967.1299999999999,0.25329075662902023
248,1976.2099999999998,0.25760729492537593
249,1985.33,0.2454620259014513
250,1994.4899999999998,0.2385871495572463
251,2003.6999999999998,0.2430795140626908
252,2012.95,0.23533837124785495
253,2026.9,0.2424968683000755
254,2036.26,0.2324574553544686
255,2045.66,0.23964363508858136
256,2055.1,0.22881490750241376
257,2064.58,0.22902497259596577
258,2074.11,0.2427484785391673
259,2078.89,0.23552360376566295
260,2083.69,0.24298612533201838
261,2093.2999999999997,0.23056351663465918
262,2102.9700000000003,0.23031889695687946
263,2112.67,0.23189942178888942
264,2127.32,0.23291529073620343
265,2137.14,0.21798079360737233
266,2147.0,0.22338638915826078
267,2156.91,0.22942012555879882
268,2166.87,0.22156270280898638
269,2176.87,0.21957277273889356
270,2186.92,0.21715488351845028
271,2187.7616199999998,0.21779212110273113
272,2197.01,0.2248699194643643
273,2207.15,0.21853055893206458
274,2217.3399999999997,0.20782944652337287
275,2222.45,0.20250608475610943
276,2232.71,0.21508737972046887
277,2243.02,0.20616382280843634
278,2253.37,0.1972746843952902
279,2263.77,0.19982699410575203
280,2274.2200000000003,0.20442785193982185
281,2284.7200000000003,0.20915595789749966
282,2295.26,0.1977339823540639
283,2305.86,0.19918558455895768
284,2316.5,0.19064180526273788
285,2327.19,0.15715847409012607
286,2332.56,0.17687448256562416
287,2343.32,0.17005655876606351
288,2354.1400000000003,0.18363231271483244
289,2365.0099999999998,0.16849141478720941
290,2375.92,0.17365083535847275
291,2386.8900000000003,0.16065323367806564
292,2392.39,0.16946562727494452
293,2403.44,0.16356006259231023
294,2414.53,0.16692311640856233
295,2425.67,0.17716531834842242
296,2436.87,0.17125709803661207
297,2442.49,0.1794167471301501
298,2453.76,0.17718863419139097
299,2465.09,0.17497829900096143
300,2476.4700000000003,0.16846971193413984
301,2482.17,0.16971829802545066
302,2493.63,0.1605843479564019
303,2505.1400000000003,0.1783400460109611
304,2510.9199999999996,0.1579103691000447
305,2511.88643,0.15820715035811095
306,2516.7099999999996,0.15970937117702755
307,2522.51,0.1550922436354097
308,2534.15,0.1577176807760248
309,2545.85,0.15580895625241634
310,2557.6,0.16639019700862148
311,2563.5,0.16121710002663087
312,2575.33,0.16889602523053784
313,2587.2099999999996,0.16649551571425844
314,2593.18,0.16352833012400694
315,2605.15,0.15808557811139212
316,2617.1699999999996,0.1549363913785909
317,2623.21,0.1623364171800785
318,2635.31,0.1687755148949791
319,2647.48,0.18270082400161883
320,2653.58,0.18787048813888274
321,2665.83,0.1695505816932243
322,2671.98,0.17675711111030187
323,2684.31,0.17702798911234524
324,2696.7000000000003,0.16764370545016496
325,2702.9199999999996,0.17269464625898165
326,2715.39,0.1629051470445032
327,2727.9300000000003,0.16184955922176383
328,2734.21,0.1687034383663569
329,2746.83,0.14652783499131938
330,2753.1699999999996,0.15055345247168878
331,2765.8700000000003,0.15650473354435307
332,2772.25,0.1628016432485734
333,2785.05,0.15118275488086497
334,2797.8999999999996,0.12467153179297016
335,2804.35,0.13173855288892958
336,2817.2999999999997,0.15860296036066207
337,2823.79,0.1687180736804724
338,2836.8199999999997,0.1632838655999067
339,2843.3599999999997,0.15872114419953068
340,2856.49,0.1500099666785923
341,2863.0699999999997,0.16673723750206715
342,2876.2900000000004,0.16764621748479325
343,2882.92,0.1659089535880818
344,2884.0315,0.16587252189883486
345,2896.23,0.1655181805636283
346,2909.59,0.17949050417461862
347,2929.76,0.17154387410228886
348,2950.07,0.1680226888881581
349,2970.52,0.17105054853222634
350,2991.11,0.1706306530344936
351,3011.84,0.17230120239495986
352,3032.72,0.17152780696063932
353,3046.72,0.17182819278053935
354,3067.84,0.17246044567455995
355,3089.1000000000004,0.17309144342677954
356,3110.52,0.1730160067312266
357,3132.08,0.16977221489387262
358,3146.53,0.1700704663294123
359,3168.35,0.1706836435144279
360,3190.31,0.1613891655576425
361,3212.42,0.16670564280607034
362,3227.25,0.15764478742815013
363,3249.62,0.16829213369894755
364,3272.14,0.17461813517495817
365,3287.25,0.17239196951343597
366,3310.0299999999997,0.17160094001181614
367,3311.31121,0.17165652425433373
368,3325.3100000000004,0.17230045740659156
369,3332.98,0.17629435079248415
370,3340.66,0.16458778067562035
371,3348.36,0.18000548355324394
372,3356.0800000000004,0.17335375942535483
373,3363.82,0.1562584082919531
374,3371.5699999999997,0.15755389365579497
375,3379.34,0.1733337520141242
376,3387.1299999999997,0.1726015833669408
377,3394.94,0.16693058771424468
378,3402.77,0.1810993650560359
379,3410.61,0.16382287889507086
380,3418.48,0.16552210222583674
381,3426.36,0.1693545620538463
382,3434.25,0.17844665837909954
383,3442.17,0.1644655641960838
384,3450.11,0.16897944300755535
385,3458.06,0.16721235831627063
386,3466.0299999999997,0.1644416466194732
387,3474.02,0.17144140791716309
388,3482.0299999999997,0.16510774220934035
389,3490.06,0.17107264949600492
390,3498.1,0.15868099327991317
391,3506.17,0.17034074655555242
392,3514.25,0.16166083632843534
393,3522.3500000000004,0.17068649909580558
394,3530.47,0.16062953485766318
395,3538.6099999999997,0.17102024361400808
396,3546.77,0.17428562536484032
397,3554.9399999999996,0.17463974361291623
398,3563.1400000000003,0.17028887135272314
399,3571.35,0.15857793558977373
400,3579.58,0.15757697282131167
401,3587.8300000000004,0.1465163830473369
402,3596.11,0.16021290276509315
403,3604.3999999999996,0.16775475898009307
404,3612.7,0.15557475169233667
405,3621.03,0.16357495389631124
406,3628.1400000000003,0.17308720343655845
407,3630.89,0.1803116401785669
408,3633.63,0.16460394042333165
409,3636.37,0.1493441406680964
410,3639.1099999999997,0.14609494091286115
411,3641.86,0.15717017765486957
412,3644.6,0.1545182778996343
413,3647.34,0.15803177814439906
414,3650.08,0.16703857838916383
415,3652.8300000000004,0.15212991513117222
416,3655.57,0.17379791537593697
417,3658.3100000000004,0.18812741562070173
418,3661.05,0.1687716158654665
419,3663.7999999999997,0.1622469526074749
420,3666.54,0.16460835285223965
421,3669.2799999999997,0.1776258530970044
422,3672.0199999999995,0.17333135334176916
423,3674.77,0.17375059008377755
424,3677.5099999999998,0.16587209032854233
425,3680.25,0.17562549057330706
426,3683.0,0.1677888273153155
427,3685.7400000000002,0.16076362756008022
428,3688.48,0.165951827804845
429,3691.2200000000003,0.17367862804960973
430,3693.97,0.15980456479161817
431,3696.7100000000005,0.1620273650363829
432,3699.4500000000003,0.17900216528114765
433,3702.19,0.17516626552591238
434,3704.94,0.16174030226792083
435,3707.68,0.15422450251268555
436,3710.4199999999996,0.17087920275745033
437,3713.16,0.18451530300221508
438,3715.91,0.1807105397442235
439,3718.65,0.18777603998898823
440,3721.39,0.19911884023375298
441,3724.13,0.23009894047851776
442,3726.88,0.30593097722052615
443,3729.6200000000003,0.4498706774652909
444,3732.36,0.5704508777100556
445,3735.1099999999997,0.578473814452064
446,3737.85,0.4692098146968289
447,3740.5899999999997,0.29422831494159357
448,3743.3300000000004,0.22107021518635833
449,3746.08,0.20226805192836675
450,3748.8199999999997,0.1778456521731315
451,3751.56,0.17339115241789624
452,3754.2999999999997,0.16646205266266098
453,3757.05,0.1739105894046694
454,3759.79,0.17906668964943415
455,3762.53,0.18537488989419892
456,3765.27,0.20080299013896366
457,3768.0200000000004,0.2005075268809721
458,3770.76,0.20182362712573682
459,3773.5,0.1846439273705016
460,3776.2400000000002,0.1853094276152663
461,3778.99,0.19592586435727474
462,3781.73,0.2060633646020395
463,3784.47,0.21132626484680425
464,3787.2099999999996,0.21696246509156902
465,3789.96,0.22376010183357742
466,3792.7,0.23712960207834216
467,3795.44,0.2134859023231069
468,3798.19,0.2041771390651153
469,3800.9300000000003,0.1904000393098801
470,3801.8939600000003,0.18369179250255935
471,3803.67,0.17133551061024252
472,3806.41,0.1771793573023495
473,3809.16,0.1989368589093911
474,3811.8999999999996,0.22736200560149808
475,3814.6400000000003,0.21771795229360502
476,3817.38,0.24059649898571198
477,3820.13,0.25239120059275366
478,3822.87,0.2250832472848606
479,3825.6099999999997,0.20879389397696754
480,3828.35,0.2112351406690745
481,3831.1,0.19883804227611615
482,3833.84,0.1941112889682231
483,3836.58,0.17453663566033006
484,3839.32,0.15432178235243701
485,3842.07,0.16758878395947865
486,3844.81,0.1785526306515856
487,3847.55,0.19062577734369257
488,3850.29,0.19763232403579953
489,3853.04,0.2132778256428412
490,3855.7799999999997,0.23217767233494813
491,3858.5199999999995,0.23659231902705508
492,3861.27,0.22858972063409674
493,3864.0099999999998,0.24028956732620368
494,3866.75,0.24423491401831066
495,3869.49,0.2631774607104176
496,3872.2400000000002,0.24699356231745925
497,3874.98,0.2488162090095662
498,3877.7200000000003,0.24515615570167315
499,3880.46,0.24089880239378011
500,3883.2100000000005,0.23150960400082177
501,3885.9500000000003,0.21241495069292873
502,3888.69,0.20159759738503566
503,3891.4300000000003,0.20935074407714263
504,3894.18,0.20727894568418426
505,3896.9199999999996,0.20307489237629123
506,3899.66,0.2049081390683982
507,3902.3999999999996,0.20842668576050516
508,3905.15,0.2145361873675468
509,3907.89,0.22463603405965377
510,3910.63,0.2325386807517607
511,3913.38,0.22897348235880235
512,3916.1200000000003,0.2299960290509093
513,3918.86,0.24504527574301627
514,3921.6,0.2425158224351232
515,3924.35,0.24097732404216488
516,3927.0899999999997,0.2339785707342718
517,3929.8300000000004,0.23230251742637878
518,3932.57,0.22244516411848572
519,3935.3199999999997,0.19683216572552736
520,3938.06,0.19895341241763434
521,3940.7999999999997,0.1901732591097413
522,3943.54,0.20088110580184823
523,3946.29,0.22047330740888987
524,3949.03,0.22455715410099683
525,3951.77,0.2397877007931038
526,3954.5099999999998,0.23077304748521077
527,3957.26,0.2238158490922524
528,3960.0,0.21933449578435937
529,3962.7400000000002,0.2130184424764663
530,3965.48,0.20494228916857327
531,3968.23,0.1935585907756149
532,3970.97,0.16820253746772187
533,3973.7099999999996,0.15884648415982885
534,3976.46,0.1725613857668705
535,3979.2,0.17678393245897744
536,3981.94,0.1948410791510844
537,3984.68,0.21822092584319133
538,3987.4300000000003,0.224351727450233
539,3990.17,0.23320357414233994
540,3992.91,0.2514421208344469
541,3995.65,0.25285946752655386
542,3998.3999999999996,0.2514381691335955
543,4001.1400000000003,0.25133011582570247
544,4003.88,0.26208076251780943
545,4006.6200000000003,0.26645260920991637
546,4009.37,0.263378010816958
547,4012.1099999999997,0.25304065750906496
548,4014.85,0.25590860420117195
549,4017.5899999999997,0.2546592508932789
550,4020.34,0.2565126525003205
551,4023.08,0.26350859919242753
552,4025.82,0.26258984588453443
553,4028.57,0.2618725474915761
554,4031.31,0.25496989418368304
555,4034.05,0.25139524087579
556,4036.79,0.26102578756789696
557,4039.54,0.2594551891749386
558,4042.2799999999997,0.2601471358670456
559,4045.0199999999995,0.2670577825591525
560,4047.76,0.2615737292512595
561,4050.5099999999998,0.25357113085830113
562,4053.25,0.2556710775504081
563,4055.99,0.265323024242515
564,4058.73,0.274132370934622
565,4061.48,0.2697989725416637
566,4064.2200000000003,0.2553443192337706
567,4066.96,0.24967896592587757
568,4069.7,0.2473096126179845
569,4072.4500000000003,0.25936031422502615
570,4075.19,0.2641802609171331
571,4077.9300000000003,0.2561256076092401
572,4080.67,0.250524254301347
573,4083.4199999999996,0.25224965590838866
574,4086.16,0.2511603026004956
575,4088.8999999999996,0.24684954929260255
576,4091.65,0.24422305089964425
