,lambda (Angstroms),Total Flux (erg/s/cm^2/Angstrom)
0,100.09,72.1797172120768
1,101.94999999999999,71.97891378681902
2,104.08000000000001,71.74896147711509
3,104.712855,71.68063919141953
4,106.02000000000001,70.93936777976192
5,107.99,69.82219663198022
6,109.99,68.68801272802327
7,114.12,66.3459229652525
8,118.13000000000001,64.07188424039626
9,120.22644299999999,62.88300836926051
10,120.88,62.57227663643131
11,125.13,60.55162665556322
12,126.87,59.72434878657928
13,128.05,59.163321266851256
14,131.03,57.7464890558021
15,131.94,57.31383229288992
16,134.07999999999998,56.296375610877064
17,136.89,54.96036950952357
18,138.038426,54.41435377147001
19,140.07999999999998,53.72054167195714
20,143.01,52.72480662698358
21,147.02,51.36204484158452
22,151.14000000000001,49.96189767519142
23,155.01,48.646711207036766
24,158.489319,47.464294531909424
25,158.99,47.33565644288924
26,161.95000000000002,46.57515483741247
27,166.1,45.508911304302906
28,169.97000000000003,44.51460713357448
29,173.13,43.70272067750034
30,177.16,42.6673086343084
31,180.04,41.927361799635385
32,181.970086,41.43147252837025
33,182.13,41.40012780787805
34,185.94,40.65333057469091
35,191.15,39.63211970330248
36,193.81,39.11073446971999
37,197.87,38.3149351909762
38,202.01,37.50345560491947
39,204.82,36.95266914121899
40,208.929613,36.14714427331044
41,210.07000000000002,35.97909352149631
42,215.96,35.111131347803955
43,219.97,34.52020884646824
44,223.03,34.06927971067775
45,227.17999999999998,33.45772711080548
46,229.81,33.07019988041156
47,234.08,32.44102798012651
48,239.88329199999998,31.58588762864405
49,240.09,31.562415837549345
50,246.25,30.86288752119605
51,251.98000000000002,30.212219555632505
52,257.26,29.612594006058252
53,260.24,29.274228005029215
54,263.86,28.863164110615426
55,268.76,28.306732923332124
56,273.76,27.738944683851194
57,275.42287,27.550113135036945
58,278.85,27.251438963636026
59,284.03000000000003,26.800003201291325
60,289.98,26.281445279539987
61,296.05,25.752450877301893
62,300.86,25.333254829774674
63,307.87,24.722337952257043
64,316.227766,23.993964252478545
65,317.96,23.881210809902633
66,328.38,23.202949399128556
67,338.34999999999997,22.553976108610758
68,347.83000000000004,21.936897248652
69,356.76,21.35562037760647
70,363.078055,20.944365544370044
71,365.90999999999997,20.806318088274324
72,375.29,20.34906599127471
73,384.91999999999996,19.879610405681817
74,394.79,19.398490669099385
75,404.92,18.90468477131995
76,414.35,18.44499125810168
77,416.86938299999997,18.3221743534202
78,422.06,18.128939632714744
79,429.9,17.83707814591245
80,440.93,17.426472107835114
81,451.2,17.044146857497285
82,459.59,16.731805450499294
83,470.3,16.33310256106491
84,478.630092,16.023002264332064
85,480.14,15.979772976390903
86,490.2,15.691730076929474
87,500.46,15.397987763849326
88,506.26,15.231916521006552
89,512.12,15.06421391833816
90,520.44,14.826004415219558
91,530.12,14.54885355805369
92,539.97,14.26681482563191
93,549.5408739999999,13.99283244149856
94,550.01,13.982588252472747
95,560.24,13.759199447066056
96,570.65,13.531876126666878
97,579.9200000000001,13.329388611753485
98,589.35,13.12349445189121
99,600.3,12.884335161214551
100,610.06,12.671179734132705
101,619.9699999999999,12.45485590682378
102,630.0400000000001,12.234954390465974
103,630.957344,12.214919133716153
104,640.28,12.053509488543781
105,650.6800000000001,11.873521639977557
106,658.22,11.743027027824548
107,664.3100000000001,11.637628163508653
108,675.1,11.450803996272446
109,684.5,11.288028522431821
110,695.62,11.095768000267169
111,705.29,10.928281831939634
112,716.76,10.72989907036602
113,724.43596,10.597038402064895
114,726.73,10.567567813188608
115,735.14,10.459539403563411
116,745.37,10.328264508059757
117,755.74,10.195110143719297
118,764.49,10.082741056919003
119,775.12,9.946333075738764
120,784.0999999999999,9.831083604349438
121,795.01,9.690973736495586
122,804.21,9.572852880934136
123,815.4,9.429134968406675
124,824.84,9.308093518839277
125,831.763771,9.218666721793927
126,834.39,9.193270192681384
127,844.05,9.101233058208198
128,855.8000000000001,8.988449911668868
129,865.7099999999999,8.893518545886334
130,875.73,8.797552508047687
131,885.87,8.700526515420552
132,894.07,8.622004751873956
133,904.42,8.522508887866971
134,914.89,8.4249496450715
135,925.49,8.375001922755166
136,934.0500000000001,8.364803427843109
137,944.87,8.386206659414551
138,954.992586,8.404276129398157
139,955.81,8.405904892930966
140,964.65,8.335178277654288
141,975.82,7.889609290726633
142,984.85,8.030074367632924
143,993.96,8.000669425984675
144,1005.47,8.118191527700226
145,1014.78,8.033058914665625
146,1024.1699999999998,7.63267995307649
147,1036.03,7.625295979865926
148,1045.61,7.958205140459754
149,1055.29,7.856292065360408
150,1065.05,7.55172604170652
151,1074.91,7.603856082359458
152,1084.85,7.319969774457857
153,1094.89,7.4705959308630785
154,1096.4782,7.450825602462454
155,1105.02,7.359047020400261
156,1115.25,7.231829424330534
157,1125.57,7.069258311873095
158,1135.98,7.223028883027946
159,1143.85,7.072538427791509
160,1154.44,7.063441066170938
161,1165.1200000000001,7.00546578816266
162,1175.9,6.6178376363902585
163,1184.05,6.834599174614278
164,1195.01,6.434112190066456
165,1206.06,6.173817789130924
166,1214.4199999999998,6.053424822450287
167,1225.6599999999999,6.256104631362922
168,1234.16,6.54140326141251
169,1245.58,6.551182837549726
170,1254.21,6.415831321705958
171,1258.92541,6.314566809964468
172,1265.82,6.181738017125564
173,1274.59,6.435016765336863
174,1286.38,6.441008900503477
175,1295.3,6.068278824225802
176,1304.28,6.005722978152535
177,1316.35,6.231517587606398
178,1325.47,6.124650778676756
179,1334.66,5.905351038318926
180,1343.91,6.109743928165506
181,1356.3500000000001,6.000309057213231
182,1365.75,5.795713922570838
183,1375.22,5.814497156500256
184,1384.7499999999998,5.773418020634086
185,1394.3500000000001,5.577739153339723
186,1404.01,5.561198916249776
187,1413.74,5.517907347731637
188,1423.5400000000002,5.513527347785311
189,1433.4099999999999,5.4435816164108
190,1443.35,5.458885853608097
191,1445.43977,5.465289826610194
192,1446.6699999999998,5.471097983170523
193,1453.35,5.402726546210691
194,1463.43,5.264938226367109
195,1473.57,5.229862542119699
196,1483.7800000000002,5.220192199401151
197,1494.0700000000002,5.206662804144162
198,1504.4299999999998,5.100209050416039
199,1511.37,4.946903667706271
200,1518.35,4.996193808727284
201,1525.3500000000001,4.931073261613686
202,1535.93,4.758981838404849
203,1546.57,4.823521750792182
204,1553.71,4.745465486736311
205,1564.48,4.712362576248676
206,1575.3300000000002,4.7270137132225996
207,1586.2499999999998,4.7416704917253885
208,1593.57,4.731240334458025
209,1604.61,4.676657784153152
210,1615.74,4.643566587242532
211,1623.1899999999998,4.553274707100203
212,1634.45,4.577272487314616
213,1645.78,4.549743509057894
214,1653.3700000000001,4.438536811973292
215,1659.58691,4.4644647437324005
216,1664.83,4.492346969977677
217,1672.5200000000002,4.343169853462729
218,1676.3700000000001,4.463062034921437
219,1684.1100000000001,4.504138615568292
220,1695.78,4.400010413132734
221,1703.6100000000001,4.33679100867083
222,1715.42,4.244670318288318
223,1723.34,4.221339828717658
224,1735.28,4.254703970955829
225,1743.2900000000002,4.21172939627641
226,1755.38,4.252394729999985
227,1763.48,4.13621707021181
228,1775.7,4.127515636556067
229,1783.8999999999999,4.124574271091495
230,1796.27,4.168535328921158
231,1804.56,4.139619878347827
232,1817.0700000000002,4.015155648230533
233,1825.45,4.0155742125484455
234,1833.8799999999999,3.950671274028159
235,1846.59,3.8398582325580715
236,1855.1100000000001,3.8133922089290264
237,1863.68,3.819265982461784
238,1876.6,3.8708010090712626
239,1885.26,3.7677176974952618
240,1893.96,3.7114150036487024
241,1905.46072,3.7244392797254875
242,1907.09,3.727451940859939
243,1915.89,3.6730092238981737
244,1924.73,3.645134488677492
245,1933.6200000000001,3.653190280633162
246,1947.0199999999998,3.6621872638959294
247,1956.01,3.587824610204307
248,1965.0400000000002,3.657861138253768
249,1974.1100000000001,3.666815148044312
250,1983.22,3.593540139575939
251,1996.97,3.5390380130731804
252,2006.1799999999998,3.551334958957515
253,2015.44,3.4933475320182024
254,2024.7499999999998,3.5234589322552443
255,2034.0900000000001,3.4508499687980976
256,2043.48,3.473157032517304
257,2052.91,3.415043877977595
258,2067.14,3.384919032367831
259,2071.91,3.4404429049919654
260,2076.69,3.38339422305137
261,2086.27,3.400534550040721
262,2095.9,3.3309673042064247
263,2105.58,3.3151378855484834
264,2115.29,3.304541803196353
265,2125.06,3.297435493455848
266,2134.87,3.210966365456425
267,2144.72,3.216296819198086
268,2154.62,3.2312715001160996
269,2164.56,3.1835704627751964
270,2174.56,3.1550730980459174
271,2184.5899999999997,3.118327169622451
272,2187.7616199999998,3.124314001320176
273,2194.68,3.1417715332510796
274,2204.81,3.104372600746405
275,2214.98,3.048297579169649
276,2225.21,3.0067002739847704
277,2235.48,3.0486352797278102
278,2245.8,2.997913299130748
279,2256.1600000000003,2.9475737294616042
280,2266.58,2.9548313761843383
281,2277.04,2.9611622338349908
282,2287.5499999999997,2.9680593051455406
283,2292.82,2.9184765448987844
284,2303.41,2.9013647380651717
285,2314.04,2.847428442159477
286,2324.7200000000003,2.6715908599136795
287,2335.45,2.7656779913277814
288,2346.23,2.73462913640178
289,2357.06,2.7720041951356773
290,2362.49,2.7067316786005953
291,2373.4,2.7113847591903286
292,2384.35,2.650804850707981
293,2395.36,2.6796304586175106
294,2406.42,2.635999380186938
295,2417.52,2.638696612684284
296,2423.1,2.6692415371288956
297,2434.28,2.6279466914820784
298,2445.52,2.6517764622271383
299,2456.8,2.6258549439001166
300,2462.47,2.6142622929325454
301,2473.83,2.5741396964613603
302,2485.25,2.5773262163820534
303,2496.7200000000003,2.527232649962644
304,2502.4800000000005,2.585901623582888
305,2511.88643,2.512319198167985
306,2514.0299999999997,2.496277579623483
307,2519.83,2.5093402757803953
308,2525.6400000000003,2.4750308643444745
309,2537.29,2.4720442186941347
310,2543.14,2.4529104768868826
311,2554.88,2.484973462901046
312,2566.6699999999996,2.455423710951046
313,2572.59,2.4872775159939633
314,2584.47,2.4661921957084667
315,2596.39,2.445223345051638
316,2602.38,2.4163417969447245
317,2614.39,2.3957893779524
318,2626.46,2.411589813403078
319,2632.51,2.4240106197391675
320,2644.67,2.465017686854349
321,2656.87,2.4662126235982
322,2663.0,2.3911900691916257
323,2675.29,2.41044113759998
324,2687.64,2.392647460451336
325,2693.83,2.3593766604877646
326,2706.27,2.364577815003625
327,2712.51,2.326494577075889
328,2725.0299999999997,2.312817170849087
329,2737.6,2.330874126658119
330,2743.92,2.2378078279877194
331,2756.58,2.235848415461256
332,2762.94,2.2500976864195255
333,2775.69,2.2653048055575655
334,2782.0899999999997,2.228697946144503
335,2794.93,2.107376196947047
336,2807.83,2.1281106021925935
337,2814.3,2.2206827896297003
338,2827.29,2.2381202265397504
339,2833.81,2.2052450760126936
340,2846.8900000000003,2.1782865445872472
341,2853.4500000000003,2.152024563688858
342,2866.62,2.1938443639279166
343,2873.23,2.184632945065363
344,2884.0315,2.170706123010787
345,2886.49,2.168251811645943
346,2893.15,2.155707615994307
347,2913.2000000000003,2.1935933490550745
348,2926.65,2.1590698949237694
349,2946.94,2.134061796609703
350,2967.36,2.1306627354676015
351,2987.93,2.11631131721623
352,3008.6400000000003,2.110126038996204
353,3029.5,2.0928006036669085
354,3050.5,2.0753849083689593
355,3071.64,2.060637153102357
356,3092.93,2.0499234407264835
357,3107.21,2.034442223923878
358,3128.75,2.0112365830325527
359,3150.44,1.9974558850319566
360,3172.27,1.9795226270627073
361,3186.9199999999996,1.9390439160572337
362,3209.0099999999998,1.9431750324319146
363,3231.25,1.9004726916973245
364,3253.65,1.913353696712845
365,3268.67,1.9190348915045023
366,3291.3199999999997,1.8977914680045718
367,3306.52,1.8871813142651033
368,3311.31121,1.8817256970069982
369,3321.7799999999997,1.8719418003714603
370,3329.44,1.8872052546954876
371,3337.1099999999997,1.8711067528241156
372,3344.8,1.8525982385619448
373,3352.51,1.8435393119089754
374,3360.24,1.8516162728652068
375,3367.9900000000002,1.8451034214306392
376,3375.75,1.7989961138006725
377,3383.53,1.8025537937799065
378,3391.3399999999997,1.8414873051729428
379,3399.15,1.8498463165659782
380,3406.99,1.815112359372816
381,3414.84,1.823061145984254
382,3422.71,1.8422264202048935
383,3430.6,1.8273117820347338
384,3438.51,1.8288303314737753
385,3446.44,1.7637366685220177
386,3454.38,1.8020045493748609
387,3462.3500000000004,1.7607527616415057
388,3470.33,1.7822086177127512
389,3478.33,1.7429299613931977
390,3486.35,1.7626262926828455
391,3494.39,1.754799211581694
392,3502.44,1.7714157742851433
393,3510.51,1.7544084245977936
394,3518.6099999999997,1.7452596063242463
395,3526.72,1.7374135318552986
396,3534.85,1.7591988449955522
397,3543.0,1.778049345745007
398,3544.8,1.7915991305731076
399,3547.4,1.4183270197692528
400,3550.0,1.9247425089653978
401,3552.6000000000004,1.7198777981615427
402,3555.1899999999996,1.7790846435530878
403,3557.79,1.6567223327492326
404,3560.39,1.9440094219453778
405,3562.99,1.625562811141523
406,3565.59,1.513648600337668
407,3568.19,1.735919189533813
408,3570.78,1.3382461349253576
409,3573.38,1.6533222241215029
410,3575.9800000000005,1.2352195433176476
411,3578.58,1.461302602513793
412,3581.18,1.549952291709938
413,3583.7799999999997,2.0704179809060834
414,3586.37,1.7814592262976279
415,3588.9700000000003,1.6889443154937729
416,3591.57,1.6757399046899177
417,3594.17,1.881636793886063
418,3596.7700000000004,1.644719483082208
419,3599.37,1.9331743722783532
420,3601.97,1.7593395614744987
421,3604.56,1.8792710068660432
422,3607.16,1.9367584960621882
423,3609.76,1.330271385258333
424,3612.36,1.4362828744544784
425,3614.96,1.6125131636506234
426,3617.5600000000004,1.4479019528467685
427,3620.1499999999996,1.7007579982383134
428,3622.75,2.075938887434458
429,3625.35,1.4320431766306032
430,3627.95,1.8093104658267487
431,3630.55,1.7288154550228936
432,3633.15,1.7194577442190386
433,3635.7400000000002,1.569314889610583
434,3638.3399999999997,1.8001556788067288
435,3640.9399999999996,1.4621631680028737
436,3643.54,1.5271283571990184
437,3646.14,1.779907246395164
438,3648.74,1.336249935591309
439,3651.33,1.5657060809828534
440,3653.9300000000003,1.7633815701789983
441,3656.53,1.472994559375144
442,3659.13,1.6674075485712885
443,3661.7300000000005,1.6433103377674336
444,3664.33,1.659598526963579
445,3666.92,1.5331471723551235
446,3669.52,1.7175370615512686
447,3672.12,1.666805850747414
448,3674.7200000000003,1.7718364399435589
449,3677.32,1.893498129139704
450,3679.92,1.8161820183358492
451,3682.5200000000004,1.737439907531994
452,3685.1099999999997,2.0007935529235388
453,3687.71,1.728672342119684
454,3690.31,1.684243131315829
455,3692.91,1.401494220511974
456,3695.51,1.5277747097081191
457,3698.11,1.7005336989042643
458,3700.7000000000003,1.568657044295809
459,3703.2999999999997,1.895300433491954
460,3705.8999999999996,1.9866626226880992
461,3708.5,1.6587283118842442
462,3711.1,1.7874362010803897
463,3713.7,2.0086004902765344
464,3716.29,1.9385972356680792
465,3718.8900000000003,1.795826524864224
466,3721.4900000000002,2.012115214060369
467,3724.0899999999997,2.4546064032565145
468,3726.6899999999996,2.8667007924526597
469,3729.29,2.921961181648805
470,3731.88,2.414161527040349
471,3734.48,2.1860429162364943
472,3737.08,1.8757756054326395
473,3739.6800000000003,1.9669985946287845
474,3742.28,1.7555394838249294
475,3744.8799999999997,1.7414933730210749
476,3747.47,1.6144025184126196
477,3750.0699999999997,1.7090969076087645
478,3752.67,1.7733803968049093
479,3755.27,1.8987564860010546
480,3757.87,1.9714073751971999
481,3760.4700000000003,1.9545370643933446
482,3763.07,1.73149685358949
483,3765.6600000000003,1.6095881989810346
484,3768.2599999999998,1.7065360881771796
485,3770.8599999999997,1.967335177373325
486,3773.46,1.48602536656947
487,3776.06,1.8876860557656152
488,3778.66,1.8484182449617603
489,3781.25,1.9032018903533046
490,3783.8500000000004,1.8541956795494499
491,3786.4500000000003,2.0051692687455946
492,3789.0499999999997,2.02857295794174
493,3791.6499999999996,2.0569152471378853
494,3794.25,1.9652700363340303
495,3796.84,1.6347151817255745
496,3799.44,1.8447997709217199
497,3801.8939600000003,1.6163247587554446
498,3802.04,1.60274875255452
499,3804.6400000000003,1.6816375772704082
500,3807.2400000000002,1.9261438019862964
501,3809.8399999999997,2.1096962267021846
502,3812.43,1.867561170169166
503,3815.0299999999997,1.7982001948850543
504,3817.63,1.9668676196009423
505,3820.23,1.7549125443168305
506,3822.83,1.6757232690327188
507,3825.4300000000003,1.9888137937486068
508,3828.02,1.9520839372155878
509,3830.6200000000003,1.7890974619314761
510,3833.22,1.6509089866473643
511,3835.8199999999997,1.8162723113632526
512,3838.42,1.564050336079141
513,3841.02,1.745648460795029
514,3843.61,2.0797334042620097
515,3846.21,2.219672528977898
516,3848.81,2.022115853693786
517,3851.4100000000003,1.9364087784096746
518,3854.0099999999998,2.269023903125563
519,3856.6099999999997,2.0465660278414513
520,3859.21,1.856869852557339
521,3861.8,1.85060609602432
522,3864.4,1.9559059207402085
523,3867.0,2.0049329454560967
524,3869.6000000000004,1.9203388701719848
525,3872.2000000000003,1.9733309948878732
526,3874.7999999999997,2.2313104196037616
527,3877.39,2.014912463070742
528,3879.99,1.8619422877866305
529,3882.59,1.8466977125025186
530,3885.19,1.6293173372184069
531,3887.79,1.4838741619342952
532,3890.3900000000003,1.9304117866501833
533,3892.9799999999996,1.7831535301171646
534,3895.58,1.6541047548330523
535,3898.18,1.9148743795489407
536,3900.7799999999997,2.027060704264829
537,3903.38,1.9469875289807173
538,3905.98,1.9256912536966055
539,3908.57,1.9226969971635863
540,3911.17,1.8134097218794745
541,3913.7699999999995,2.0112914465953633
542,3916.3700000000003,1.984778371311251
543,3918.97,2.0189890960271395
544,3921.5699999999997,2.2184702207430274
545,3924.17,1.9052393454589158
546,3926.76,1.8504241889258966
547,3929.36,1.9477942136417847
548,3931.96,1.6253461383576733
549,3934.56,1.7325587630735615
550,3937.1600000000003,1.7898633877894494
551,3939.7599999999998,1.9796759125053378
552,3942.35,1.8496684559723189
553,3944.95,1.804583480688207
554,3947.55,1.958991305404095
555,3950.15,2.0002975301199832
556,3952.75,1.6612392548358716
557,3955.3500000000004,1.92946447955176
558,3957.9399999999996,1.914645523018741
559,3960.54,1.673830447734629
560,3963.14,1.6244259724505175
561,3965.74,1.6190170971664055
562,3968.34,1.6193259218822935
563,3970.94,1.640203146598182
564,3973.53,1.677015990065163
565,3976.13,1.656832914781051
566,3978.7299999999996,1.6799012394969397
567,3981.33,1.6989905642128278
568,3983.93,1.9210784889287158
569,3986.5299999999997,2.3237384136446044
570,3989.12,1.9308019571115849
571,3991.7200000000003,2.0402061818274735
572,3994.32,1.9631934065433616
573,3996.92,2.34164843125925
574,3999.5199999999995,2.079610555975138
575,4002.1200000000003,1.909042880691026
576,4004.72,1.9759465054069145
577,4007.31,1.8780749488738953
578,4009.91,2.1473935735897838
579,4012.51,2.0538956983056718
580,4015.11,2.13902282302156
581,4017.71,1.9644902477374482
582,4020.3100000000004,1.9251089724533363
583,4022.8999999999996,2.1687687159203177
584,4025.5,1.9692639406362056
585,4028.1,2.0224639653520935
586,4030.7,2.010837090067982
587,4033.3,2.03092721478387
588,4035.9,1.9178845394997586
589,4038.4900000000002,1.9047347829667394
590,4041.09,1.7868917076826276
591,4043.6899999999996,1.867707132398516
592,4046.29,1.7641236571144043
593,4048.89,1.6872508818302925
594,4051.49,1.8686469065461808
595,4054.08,2.1053502500131613
596,4056.68,2.1591773747290497
597,4059.28,2.004537499444938
598,4061.88,1.986301624160826
599,4064.4799999999996,2.0465277488767146
600,4067.08,1.9487176735926026
601,4069.67,2.0978475170595834
602,4072.27,2.0202786417754717
603,4074.87,1.76791006649136
