,lambda (Angstroms),Total Flux (erg/s/cm^2/Angstrom)
0,100.0,17.25260465170982
1,102.10000000000001,17.19842221825319
2,104.0,17.149400016557205
3,104.712855,17.13100753151245
4,105.93,16.966048217528446
5,107.89999999999999,16.699054680574122
6,109.89999999999999,16.427995252226957
7,114.03,15.868257532707755
8,118.04,15.32478337899128
9,120.22644299999999,15.028455384990881
10,121.06,14.933740439782575
11,125.03,14.482639515812727
12,127.06,14.251975819358533
13,127.94,14.151983675254261
14,130.92,13.813373914384911
15,132.13,13.675884716762448
16,133.97,13.466810234062187
17,137.09,13.112292634848725
18,138.038426,13.0045254207277
19,139.96,12.848457039128892
20,142.89,12.6104852915045
21,146.9,12.284797019243593
22,151.01,11.95098681758384
23,154.89,11.635857015267332
24,158.489319,11.34352385811935
25,158.86,11.320762909096386
26,162.19,11.116290713464057
27,165.96,10.88480120540479
28,169.83,10.647171415104113
29,172.98999999999998,10.45313774724245
30,177.01999999999998,10.20568358914516
31,179.89000000000001,10.029456930437366
32,181.970086,9.901733381390345
33,181.98,9.901268963811065
34,185.79,9.722791030793784
35,190.99,9.479199173194667
36,194.09,9.333981035056233
37,198.16,9.143323755095896
38,201.84,8.970936052834643
39,205.11999999999998,8.817286121012097
40,208.929613,8.638826883874902
41,209.9,8.604651529706553
42,215.78,8.397568832257202
43,219.79,8.256344243369833
44,222.85,8.14857688380359
45,226.99,8.002774509054731
46,230.15,7.891490094515264
47,233.89000000000001,7.7597876082232995
48,239.88329199999998,7.548726967151629
49,239.89,7.548544929935876
50,246.04000000000002,7.381644949343213
51,251.78,7.225882072026062
52,257.05,7.082863204267911
53,260.02,7.002275834540187
54,264.25,6.887528015909185
55,269.15999999999997,6.754306672711971
56,274.17,6.618374348525606
57,275.42287,6.584371976403854
58,279.26,6.504450712721969
59,283.8,6.4099804788698895
60,289.74,6.286334994466951
61,295.81,6.159938985167146
62,301.31,6.045381225645906
63,308.33,5.899309624915161
64,316.227766,5.734968223238263
65,317.7,5.712094211674084
66,328.11,5.55037899836486
67,338.08,5.395458074801176
68,348.34999999999997,5.235884168570077
69,357.28000000000003,5.0977395710867555
70,363.078055,5.008616165513248
71,365.61,4.979587819854549
72,374.97999999999996,4.870979577941809
73,384.6,4.758720729027128
74,395.38,4.635808738983442
75,404.59000000000003,4.531202548191944
76,414.01,4.422631041678816
77,416.86938299999997,4.389400638048832
78,421.71,4.346473599922379
79,429.55,4.277362810280626
80,440.57,4.182935287008672
81,450.83,4.093768919824439
82,460.27,4.009545528419063
83,469.90999999999997,3.925937368043235
84,478.630092,3.8521631748320235
85,479.74999999999994,3.8449891952892243
86,489.79,3.7750812017799595
87,500.05,3.712015754966707
88,505.84,3.6703114466481175
89,511.7,3.646768015914623
90,520.01,3.590721620659445
91,529.6800000000001,3.5247597813432505
92,539.53,3.453038122960158
93,549.5408739999999,3.386347259904434
94,549.56,3.386250881848643
95,559.78,3.348740952275273
96,570.18,3.304789185077323
97,579.45,3.2592994274114577
98,590.22,3.208719276207428
99,599.81,3.151558738320088
100,609.5600000000001,3.1016379503220097
101,619.46,3.072967090970115
102,629.53,3.0197510527505624
103,630.957344,3.014228921355126
104,639.7600000000001,2.98969635106732
105,650.15,2.947695421408746
106,657.68,2.9121426019353036
107,665.2900000000001,2.8962993416175213
108,674.55,2.8688936638852414
109,685.51,2.811255868210749
110,695.05,2.7943431475232803
111,704.72,2.73423518546376
112,716.17,2.7230117646176892
113,724.43596,2.694623183860602
114,726.13,2.6906116974302496
115,734.5400000000001,2.6705224212778345
116,744.76,2.6399153232662194
117,755.12,2.612459099254445
118,765.62,2.5681870492425114
119,774.49,2.564152330518145
120,785.26,2.5227102446487617
121,794.35,2.511904870781288
122,805.4,2.4880656329115864
123,814.73,2.465619171615268
124,824.1600000000001,2.445580248890265
125,831.763771,2.3977196376076053
126,835.63,2.3763832150670177
127,845.31,2.3977891847329547
128,855.09,2.377431459044201
129,864.9999999999999,2.36765775939435
130,875.01,2.3508750643898075
131,885.14,2.3333797549596365
132,895.39,2.3157503311038363
133,905.76,2.292542192822408
134,914.14,2.2709191020993247
135,924.73,2.585842654037576
136,935.44,2.9234396915501986
137,944.09,3.2836658933694505
138,954.992586,3.5251429393067806
139,955.02,3.525751480684587
140,966.08,3.6803147493071253
141,975.0200000000001,2.57898869917019
142,984.0400000000001,3.3706941403071973
143,995.4399999999999,3.327694646843991
144,1004.65,3.716965679756611
145,1013.9399999999999,3.7361470039431737
146,1025.68,3.0573807483942224
147,1035.18,3.460493337174884
148,1044.75,4.171522680820245
149,1054.4199999999998,4.099478388558035
150,1064.18,3.733994923979009
151,1074.02,3.957917750673926
152,1083.96,3.64733194146127
153,1093.99,4.0272139599318
154,1096.4782,4.004100216018725
155,1104.11,3.936313087349725
156,1114.3300000000002,3.885221362419398
157,1124.6399999999999,3.6383271086002527
158,1135.05,4.024218933793531
159,1145.55,3.8817732300979895
160,1156.1499999999999,3.923076605414872
161,1164.16,3.9196035343099873
162,1174.94,3.198448851849232
163,1185.81,3.8241026404996576
164,1194.03,3.421317335320863
165,1205.07,3.1073214582924082
166,1216.22,2.7175072681776187
167,1224.66,3.3511653368261554
168,1235.99,3.8328910889337284
169,1244.55,3.946411452397173
170,1256.07,3.8715547546283515
171,1258.92541,3.8211203729551517
172,1264.78,3.720803856902686
173,1273.54,4.075092252066189
174,1285.3300000000002,4.144394886652684
175,1294.24,3.7329896105004936
176,1306.2099999999998,3.740190239508157
177,1315.27,4.111815292040273
178,1324.38,4.001998787467158
179,1333.56,3.8100605029467194
180,1345.8999999999999,4.065004009375672
181,1355.23,3.9937950535395395
182,1364.63,3.7873673177560834
183,1374.0900000000001,3.817618913446351
184,1383.6100000000001,3.8174328406103397
185,1396.4099999999999,3.2795002216711664
186,1406.0900000000001,3.261816366098416
187,1415.84,3.6546397305783422
188,1425.6499999999999,3.6183114265319913
189,1435.53,3.6763903425383164
190,1442.16,3.740677470384666
191,1445.43977,3.7485123748441866
192,1445.49,3.748652255716389
193,1455.5100000000002,3.6722120251661217
194,1465.59,3.5334218830556745
195,1475.7500000000002,3.5471905255316507
196,1485.98,3.5728571045207502
197,1496.2800000000002,3.569291620022971
198,1506.6599999999999,3.450336920111617
199,1513.61,3.2596413310572903
200,1517.1000000000001,3.3576373086400815
201,1524.1,3.318847959952271
202,1534.6699999999998,3.0316973734336763
203,1545.3,2.9522348753549004
204,1556.02,2.9151400099358526
205,1566.8000000000002,3.069666232956623
206,1574.03,3.1939883899547845
207,1584.94,3.2524706379284964
208,1595.93,3.269266670488633
209,1603.3,3.219627700513038
210,1614.41,3.198850909952812
211,1625.6000000000001,3.141541903979011
212,1636.87,3.2426566825916354
213,1644.42,3.2466039779354965
214,1655.8200000000002,3.171576781501061
215,1659.58691,3.2216283183993353
216,1663.47,3.2742883241311684
217,1671.14,3.0927419563285947
218,1678.8600000000001,3.3264105391922363
219,1686.6100000000001,3.3385498924556076
220,1694.39,3.2323750161187075
221,1706.1399999999999,3.164987422679302
222,1714.01,3.0498728575415894
223,1725.8899999999999,3.021889935834344
224,1733.8600000000001,3.136535272029062
225,1745.8799999999999,3.0916536121872196
226,1753.94,3.161380259581125
227,1766.09,3.057789271471442
228,1774.25,3.036917820197778
229,1786.54,3.076144093953498
230,1794.79,3.140589953879022
231,1803.07,3.146235584204275
232,1815.57,2.9796352507580988
233,1823.95,3.0206917824157826
234,1836.6,2.9661313009682524
235,1845.07,2.8222791438251233
236,1853.59,2.82163393734821
237,1866.44,2.852155258565541
238,1875.05,2.9620263632878148
239,1883.71,2.7927404186763045
240,1896.7700000000002,2.7047961326917394
241,1905.46072,2.826286803044981
242,1905.52,2.827125651620775
243,1914.32,2.7367380640830334
244,1923.15,2.672610384769595
245,1936.4799999999998,2.768984939101631
246,1945.4199999999998,2.8132165899439707
247,1954.4,2.6579314517520483
248,1967.95,2.8026156663956403
249,1977.03,2.8630225556180617
250,1986.1599999999999,2.7553129585476555
251,1995.33,2.703454572442986
252,2004.54,2.765935397304055
253,2013.79,2.7231494331308608
254,2023.08,2.7914756799234044
255,2037.1100000000001,2.6651154261558467
256,2046.51,2.6982760031041684
257,2055.96,2.5125800937596625
258,2065.4500000000003,2.5786633953808935
259,2074.98,2.7426009079678626
260,2079.7599999999998,2.6173606183734988
261,2084.56,2.6851459342620037
262,2094.18,2.587669171521882
263,2103.85,2.619820922488932
264,2113.56,2.6338038844217198
265,2123.31,2.6433480573202455
266,2133.11,2.5739927439259427
267,2142.96,2.551212944238812
268,2152.85,2.610772355517419
269,2162.79,2.560050280503197
270,2172.77,2.550756416454713
271,2182.8,2.5011960661134016
272,2187.7616199999998,2.5277246512684513
273,2192.87,2.555814060746813
274,2203.0,2.5253178240881
275,2213.1600000000003,2.4644140536584325
276,2223.38,2.4221582156868577
277,2233.64,2.466623666020678
278,2243.9500000000003,2.424194226736242
279,2254.31,2.37413989783355
280,2264.7200000000003,2.401021679312602
281,2275.17,2.4114837490970484
282,2285.67,2.4176659292632388
283,2296.22,2.326588219811173
284,2306.82,2.336522620740851
285,2317.4700000000003,2.2889201320522727
286,2322.81,2.0537501208225066
287,2333.53,2.2215273866683694
288,2344.3,2.2072477628959764
289,2355.12,2.239946249505327
290,2365.9900000000002,2.1827718464964208
291,2376.92,2.180152375945608
292,2382.4,2.1184948737847242
293,2393.39,2.1685043356920035
294,2404.44,2.1242517300573756
295,2415.54,2.132854234804491
296,2426.69,2.1566428499333505
297,2432.28,2.110098390612303
298,2443.51,2.1487725823519526
299,2454.79,2.127118884473346
300,2466.12,2.113057296976483
301,2477.5,2.076866819861363
302,2483.21,2.093998225456501
303,2494.67,1.9186953249521719
304,2506.1899999999996,2.080902356905935
305,2511.88643,1.9941945715714986
306,2511.9700000000003,1.9929292870488344
307,2517.76,2.0491643176827212
308,2523.5600000000004,2.0122219804938686
309,2535.21,2.010328467002467
310,2546.91,1.980141114397368
311,2552.78,2.0145732024493395
312,2564.5699999999997,1.9982985394395865
313,2576.3999999999996,2.032282405138875
314,2582.34,2.016847918431671
315,2594.2599999999998,2.004117473726305
316,2606.2400000000002,1.973699822084503
317,2612.2400000000002,1.9587251284408627
318,2624.3,1.9706965342171452
319,2636.4100000000003,1.9722621008797305
320,2642.4900000000002,2.0068894646541753
321,2654.69,2.0012987209121063
322,2666.94,1.9356341380563402
323,2673.09,1.9555709270716086
324,2685.43,1.9499560338111883
325,2697.82,1.9098533014370707
326,2704.04,1.9121895156931634
327,2716.5299999999997,1.8829081050916519
328,2722.79,1.8818258480567867
329,2735.36,1.8966774948733598
330,2747.98,1.8245883025762362
331,2754.32,1.823476102959456
332,2767.0299999999997,1.8310906002576777
333,2773.41,1.85644692934994
334,2786.21,1.8343991162435067
335,2792.6299999999997,1.7164589740448117
336,2805.5200000000004,1.757233850533724
337,2811.99,1.8266318692213317
338,2824.97,1.8244294353055897
339,2838.01,1.7768007944534108
340,2844.55,1.7661362383818426
341,2857.6800000000003,1.7543952871250093
342,2864.27,1.7818388919397443
343,2877.49,1.7635666302782564
344,2884.0315,1.762414352969929
345,2884.12,1.7624049196059928
346,2897.44,1.748362480380781
347,2910.81,1.7660206798972164
348,2930.99,1.7416400760259871
349,2951.3,1.7145597328830406
350,2971.7599999999998,1.7092273059650354
351,2992.36,1.6916744675236417
352,3013.1000000000004,1.6802852175588598
353,3027.0099999999998,1.6697191154850841
354,3047.99,1.6553537314802085
355,3069.1200000000003,1.6411192637002743
356,3090.39,1.624014384396952
357,3111.81,1.6129054213185712
358,3133.39,1.5901887022134606
359,3147.85,1.5827796262978029
360,3169.67,1.5632767731525987
361,3191.64,1.5300438362323359
362,3206.37,1.5310726095215723
363,3228.6,1.5092841940578743
364,3250.98,1.5095006948191179
365,3273.51,1.5014541118053024
366,3288.62,1.488869339531057
367,3311.31121,1.4755225949208675
368,3311.42,1.4754639121389614
369,3319.05,1.5020651503095268
370,3326.7000000000003,1.5126500195106833
371,3334.37,1.5038145197424313
372,3342.06,1.4547166510047704
373,3349.7599999999998,1.4973185977824053
374,3357.48,1.4405301755906312
375,3365.22,1.4400133844294485
376,3372.98,1.426491224298857
377,3380.7599999999998,1.4337296951988567
378,3388.55,1.4676009816141522
379,3396.36,1.4616798990600388
380,3404.19,1.4243004475365169
381,3412.04,1.4211476270435859
382,3419.9,1.4336926220659507
383,3427.79,1.4436110636342026
384,3435.69,1.4404583207177497
385,3443.6099999999997,1.4061572088318883
386,3451.5499999999997,1.4341387279766182
387,3459.5,1.3897750626366436
388,3467.48,1.386685843842556
389,3475.47,1.391208440563764
390,3483.48,1.3705266683155632
391,3491.52,1.4027753426132494
392,3499.56,1.3768650169109355
393,3507.63,1.3663201377545084
394,3515.72,1.353388889628673
395,3523.8199999999997,1.375180457018133
396,3531.94,1.3646286554381841
397,3540.09,1.3790373004041223
398,3548.25,1.3937617608853556
399,3556.43,1.377892852397181
400,3564.62,1.3798597594243014
401,3572.8399999999997,1.3592301129973088
402,3576.45,1.1241407140190312
403,3579.1499999999996,1.2298593031488512
404,3581.85,1.3897068922786708
405,3584.55,1.045427681408491
406,3587.25,0.700094870538311
407,3589.9500000000003,1.0960715596681307
408,3592.65,1.9019756487979511
409,3595.35,1.780004837927771
410,3598.0499999999997,1.696630027057591
411,3600.75,1.207566816187411
412,3603.4500000000003,1.1382190053172307
413,3606.15,1.321128594447051
414,3608.85,1.352112783576871
415,3611.55,1.3841269727066907
416,3614.25,0.9407369618365107
417,3616.95,1.6565083509663308
418,3619.6499999999996,1.3763525400961507
419,3622.35,1.1413689292259708
420,3625.05,1.4837319183557907
421,3627.75,1.2894051074856105
422,3630.4500000000003,1.4344312966154305
423,3633.15,1.2928864857452504
424,3635.85,1.3500236748750707
425,3638.5499999999997,0.7471241640048905
426,3641.2499999999995,0.7435708531347105
427,3643.9500000000003,1.4614422422645303
428,3646.65,1.4644504313943503
429,3649.35,1.5570136205241705
430,3652.05,1.3512738096539905
431,3654.75,1.1455349987838104
432,3657.45,1.3525361879136302
433,3660.1499999999996,1.0142654770434505
434,3662.8500000000004,1.45452656617327
435,3665.55,1.4055467553030903
436,3668.25,1.5153859444329103
437,3670.9500000000003,1.6077901335627303
438,3673.65,1.4819363226925502
439,3676.35,1.02796671182237
440,3679.0499999999997,1.55452470095219
441,3681.7499999999995,1.1772068900820103
442,3684.4500000000003,1.1572327792118302
443,3687.15,1.3198532683416502
444,3689.85,1.46289845747147
445,3692.55,1.11102074660129
446,3695.25,1.3442538357311102
447,3697.95,1.12084212486093
448,3700.6499999999996,1.06251051399075
449,3703.3500000000004,1.16616800312057
450,3706.05,1.16933529225039
451,3708.75,1.19057178138021
452,3711.45,1.17852287051003
453,3714.15,1.6463391596398498
454,3716.85,1.67423334876967
455,3719.5499999999997,2.36339853789949
456,3722.2499999999995,5.00055672702931
457,3724.9500000000003,7.38062491615913
458,3727.65,9.23953610528895
459,3730.35,7.85834329441877
460,3733.05,4.55642148354859
461,3735.75,2.6317246726784096
462,3738.45,1.6135038618082298
463,3741.1499999999996,1.3415110509380497
464,3743.8500000000004,1.0886968400678696
465,3746.55,1.2843654291976896
466,3749.25,1.3250976183275096
467,3751.95,1.2742148074573296
468,3754.65,1.1949612965871494
469,3757.35,1.2359311857169695
470,3760.0499999999997,1.4448343748467893
471,3762.7500000000005,1.6278225639766093
472,3765.4500000000003,1.5058517531064295
473,3768.15,1.3639899422362494
474,3770.85,1.2509745313660694
475,3773.55,1.5285093204958893
476,3776.25,1.4597165096257094
477,3778.95,1.3598566987555294
478,3781.6499999999996,1.5019508878853491
479,3784.3500000000004,1.5628130770151691
480,3787.05,1.668689266144989
481,3789.75,1.596330455274809
482,3792.45,1.4160316444046293
483,3795.15,1.5100208335344492
484,3797.85,1.373547022664269
485,3800.5499999999997,1.3038832117940893
486,3801.8939600000003,1.3195031077136894
487,3803.2500000000005,1.3353099857591855
488,3805.9500000000003,1.3750249295682528
489,3808.65,1.3476948733773202
490,3811.35,1.4977268171863873
491,3814.0499999999997,1.477052760995455
492,3816.75,1.596811704804522
493,3819.44,1.6015064895624447
494,3822.14,1.525198433371512
495,3824.8399999999997,1.4889903771805795
496,3827.54,1.6790463209896467
497,3830.24,1.560576264798714
498,3832.94,1.4324372086077815
499,3835.6400000000003,1.2046001524168486
500,3838.34,1.176555696225916
501,3841.04,1.4416620400349833
502,3843.74,1.3773209838440508
503,3846.44,1.3186849276531178
504,3849.14,1.3278888714621855
505,3851.84,1.3299608152712525
506,3854.54,1.52461175908032
507,3857.2400000000002,1.4294417028893873
508,3859.94,1.4914266466984545
509,3862.64,1.620300590507522
510,3865.3399999999997,1.7574955343165892
511,3868.04,2.0518454781256565
512,3870.74,1.8342314219347238
513,3873.44,1.5826193657437913
514,3876.1400000000003,1.6174213095528585
515,3878.84,1.3053402533619258
516,3881.54,1.3319001971709932
517,3884.24,1.5495351409800604
518,3886.94,1.7348350847891278
519,3889.64,1.6761200285981952
520,3892.34,1.5918079724072627
521,3895.04,1.5895199162163298
522,3897.7400000000002,1.564566860025397
523,3900.44,1.4044098038344646
524,3903.14,1.4567267476435317
525,3905.8399999999997,1.5713346914525992
526,3908.54,1.5718996352616663
527,3911.2400000000002,1.7732885790707338
528,3913.94,1.718219522879801
529,3916.6400000000003,1.8860834666888684
530,3919.34,1.6559484104979358
531,3922.04,1.534150354307003
532,3924.74,1.4283602981160703
533,3927.4399999999996,1.3020452419251376
534,3930.14,1.349606185734205
535,3932.84,1.3907481295432722
536,3935.54,1.2995410733523398
537,3938.2400000000002,1.2317914171614068
538,3940.94,1.3532149609704742
539,3943.64,1.2893489047795417
540,3946.3399999999997,1.362587848588609
541,3949.04,1.3071227923976763
542,3951.7400000000002,1.5921207362067435
543,3954.44,1.542202680015811
544,3957.1400000000003,1.5027466238248783
545,3959.84,1.3953715676339455
546,3962.54,1.325165511443013
547,3965.24,1.5393134552520802
548,3967.9399999999996,1.6617673990611477
549,3970.64,1.5433763428702147
550,3973.34,1.6234302866792822
551,3976.04,1.4474242304883496
552,3978.7400000000002,1.3804681742974168
553,3981.44,1.3074091181064842
554,3984.14,1.4772550619155513
555,3986.8399999999997,1.373446005724619
556,3989.54,1.4084069495336862
557,3992.2400000000002,1.2950878933427534
558,3994.94,1.3863168371518209
559,3997.64,1.363820780960888
560,4000.34,1.4519577247699553
561,4003.04,1.5241666685790227
562,4005.74,1.3996736123880902
563,4008.4399999999996,1.4134745561971573
564,4011.1400000000003,1.4980455000062247
565,4013.84,1.451773443815292
566,4016.54,1.5219213876243591
567,4019.2400000000002,1.2981273314334267
568,4021.94,1.515285275242494
569,4024.64,1.8834962190515614
570,4027.3399999999997,1.6652491628606285
571,4030.0399999999995,1.606773106669696
572,4032.7400000000002,1.8651420504787632
573,4035.44,1.5804039942878307
574,4038.14,1.556163938096898
575,4040.84,1.5076728819059653
576,4043.54,1.5141818257150326
577,4046.24,1.4417567695240998
578,4048.9399999999996,1.6263437133331673
579,4051.6400000000003,1.3011866571422346
580,4054.34,1.4753116009513016
581,4057.04,1.4875275447603693
582,4059.7400000000002,1.2590574885694363
583,4062.44,1.182432232378504
584,4065.14,1.3855633761875712
585,4067.8399999999997,1.5936873199966386
586,4070.5400000000004,1.4366222638057058
587,4073.23,1.5208050485636284
588,4075.93,1.360172992372696
589,4078.6299999999997,1.282199936181763
590,4081.3300000000004,1.4866788799908304
591,4084.03,1.2853908237998979
592,4086.73,1.277080767608965
593,4089.43,1.3170337114180324
594,4092.13,1.2454806552270996
595,4094.83,1.3597715990361672
596,4097.53,1.6527745428452343
597,4100.2300000000005,1.6788584866543017
598,4102.93,1.759230430463369
599,4105.63,1.4152103742724362
600,4108.33,1.3138593180815037
