,lambda (Angstroms),Total Flux (erg/s/cm^2/Angstrom)
0,100.09,6.480344643523838
1,101.94999999999999,6.462316449010244
2,104.09,6.4415743149967355
3,104.712855,6.435537249589549
4,106.02000000000001,6.368985457563375
5,107.99,6.268685196830394
6,110.0,6.166348512142476
7,114.13,5.956074489888761
8,117.87,5.765656975466487
9,120.22644299999999,5.645685190440883
10,120.89000000000001,5.6173617266201035
11,125.14000000000001,5.435948368104628
12,126.88,5.361675633833431
13,128.05,5.311733718525262
14,131.04,5.184104041979278
15,131.94,5.145688957306072
16,134.09,5.0539151608950785
17,136.9,4.933972077213735
18,138.038426,4.885378060197456
19,140.07999999999998,4.8230885519879125
20,143.02,4.733425639012517
21,147.02,4.611477259643477
22,151.14000000000001,4.485787055226666
23,155.02,4.367423405125399
24,158.489319,4.261590407932181
25,159.0,4.24981347631034
26,161.95000000000002,4.181782339852978
27,166.11,4.085851355058868
28,169.98,3.996605174518195
29,173.14,3.923734399784208
30,177.17,3.8307998969899146
31,180.05,3.764387296224761
32,181.970086,3.7201095830129693
33,182.13,3.717296506519683
34,185.95000000000002,3.6501003103625593
35,191.16,3.558453036615803
36,193.82,3.5116691846262875
37,197.88,3.4402509528896594
38,202.02,3.367429154493196
39,204.83,3.31800482094149
40,208.929613,3.245873023940339
41,210.07999999999998,3.230656600225356
42,215.97000000000003,3.152807388105885
43,219.98,3.099793170051204
44,223.04000000000002,3.0593289267319195
45,227.19,3.0044661409351794
46,229.82,2.9700881359950766
47,234.09,2.9143895910622857
48,239.88329199999998,2.838308985535878
49,240.1,2.8361207551614824
50,246.26,2.773196453279902
51,251.98999999999998,2.7149985820085623
52,257.27,2.6607258115386365
53,260.25,2.6307596350537152
54,263.87,2.5940205514512287
55,268.78,2.5439865880180217
56,273.77,2.4931243858201175
57,275.42287,2.4762790241295956
58,278.86,2.449398317023327
59,284.05,2.40880843414212
60,290.0,2.3621419252975757
61,296.07,2.314704864195663
62,300.88,2.277029989296124
63,307.89,2.2222511813448205
64,316.227766,2.1570892367312533
65,317.96999999999997,2.146923483548904
66,327.64,2.09042359439699
67,338.37,2.027702122823047
68,347.85,1.9722722308033833
69,356.77,1.9201355123840385
70,363.078055,1.8832933614595369
71,365.92,1.8708655803360936
72,375.31,1.829734888110013
73,384.94,1.7874563848302307
74,394.81,1.7443497844967466
75,404.94,1.7000406876884189
76,414.37,1.6587289796200548
77,416.86938299999997,1.6477646989670198
78,422.08000000000004,1.6302965106974128
79,429.92,1.6040485465064593
80,440.95000000000005,1.5671766625273502
81,451.22,1.5327953313065477
82,459.61,1.5046745910141883
83,470.32,1.4688369855122612
84,478.630092,1.4410572364130836
85,480.16999999999996,1.437097934234376
86,490.22,1.4111493783201459
87,500.48,1.3848096021987528
88,506.28,1.3698002861437746
89,512.14,1.3549004380296066
90,520.46,1.3334674324886717
91,530.14,1.3084947212727767
92,540.0,1.2830101238793135
93,549.5408739999999,1.2584265980348373
94,550.04,1.257444792792849
95,560.26,1.2374707206260063
96,569.37,1.2196433824948973
97,579.9499999999999,1.198823902613763
98,589.37,1.180331605256458
99,600.33,1.158683145065793
100,610.09,1.139280305589435
101,620.0,1.1201497616487883
102,630.0699999999999,1.1003231359462342
103,630.957344,1.0985847219656568
104,640.3100000000001,1.0840628460416122
105,650.72,1.067816181758784
106,658.25,1.0560225527732219
107,664.34,1.0466080609362933
108,675.1400000000001,1.0298148548215431
109,684.53,1.0150735195606633
110,695.65,0.9978539583017724
111,705.33,0.9826365461915149
112,716.7900000000001,0.9649373295919743
113,724.43596,0.953029694807239
114,726.76,0.9503413215263969
115,735.18,0.9406012939592396
116,745.4,0.9287534425606234
117,755.7700000000001,0.9167492710093854
118,764.5200000000001,0.9064640501064607
119,775.16,0.8943193632805042
120,784.14,0.8838617461435595
121,795.0400000000001,0.8713084750530589
122,804.25,0.8606740616820947
123,815.44,0.8477377892965255
124,824.8800000000001,0.8368280136915414
125,831.763771,0.8287569452106073
126,834.4300000000001,0.8264077617329348
127,844.09,0.8181873451085776
128,855.8399999999999,0.8080177591172527
129,865.75,0.7994671065781863
130,875.77,0.7908091857566479
131,885.9100000000001,0.7820448495360491
132,894.11,0.7749509759335926
133,904.46,0.7659883872646384
134,914.94,0.7570370360800353
135,925.53,0.7490284576129603
136,934.1,0.7429561746967344
137,944.9100000000001,0.7352138316647154
138,954.992586,0.727759807587073
139,955.85,0.7271418985595938
140,964.7,0.719862217339889
141,975.8699999999999,0.706074058889708
142,984.9,0.7011809251435005
143,994.01,0.6938583209410699
144,1005.52,0.6864404960519397
145,1014.82,0.6786846535159786
146,1024.21,0.6672107687167663
147,1036.07,0.6587274025816591
148,1045.66,0.6547874906418883
149,1055.34,0.6463414834388668
150,1065.1,0.6358570627796217
151,1074.96,0.6288936030500972
152,1084.9,0.6184278518643497
153,1094.94,0.612457383608323
154,1096.4782,0.6110948860568173
155,1105.07,0.6047986269992455
156,1115.3,0.5972270844610572
157,1125.62,0.5890514083492191
158,1136.03,0.5840957656637313
159,1143.91,0.5777988183263975
160,1154.49,0.5710122727795712
161,1165.1699999999998,0.5636763473731342
162,1175.96,0.5530450988211252
163,1184.1100000000001,0.550208483762842
164,1195.06,0.5398916576354559
165,1206.12,0.5306068453624976
166,1214.48,0.5239561362990318
167,1225.72,0.519094624878774
168,1234.22,0.5161645698118532
169,1245.6399999999999,0.5090081492442959
170,1254.2700000000002,0.5024002554598808
171,1258.92541,0.498674553692571
172,1265.88,0.4944884608637246
173,1274.6499999999999,0.4926207692539173
174,1286.44,0.48732563712967203
175,1295.3600000000001,0.4801050567956374
176,1304.34,0.47558412537191214
177,1316.41,0.47207644882910976
178,1325.53,0.46702286919610586
179,1334.72,0.46103934495846266
180,1343.9699999999998,0.45852724963112873
181,1356.41,0.4520047290352329
182,1365.8100000000002,0.44605905698367176
183,1375.2800000000002,0.44185056232747144
184,1384.81,0.4371564925815804
185,1394.41,0.4308392372310499
186,1404.0800000000002,0.42626452227588013
187,1413.8100000000002,0.42196175823101956
188,1423.61,0.41742138558151987
189,1433.48,0.41249771032738064
190,1443.41,0.4081166839835507
191,1445.43977,0.4072108802388013
192,1446.74,0.4068240428736518
193,1453.42,0.4041358767237938
194,1463.49,0.39984037466105893
195,1473.6399999999999,0.3963896630576072
196,1483.85,0.39309617404861774
197,1494.1399999999999,0.3896792474989114
198,1504.5,0.38551127447607786
199,1511.44,0.38210191356889006
200,1518.42,0.3802855083913439
201,1525.43,0.377560859011029
202,1535.9999999999998,0.3727764385688137
203,1546.6499999999999,0.36967362658588154
204,1553.79,0.3668660283269016
205,1564.5600000000002,0.363344972532894
206,1575.4,0.36006267726575936
207,1586.32,0.3567297554579078
208,1593.64,0.35431798798231495
209,1604.69,0.3503794972957985
210,1615.81,0.34659095413615476
211,1623.27,0.34355569571430744
212,1634.5199999999998,0.3402105216759988
213,1645.8500000000001,0.3364032100969732
214,1653.4499999999998,0.33317958772887146
215,1659.58691,0.33142507276113803
216,1664.91,0.33045155605770365
217,1672.6,0.32758707894927036
218,1676.4499999999998,0.32779858191058797
219,1684.19,0.3263237889574964
220,1695.86,0.3229459182142693
221,1703.6899999999998,0.32073192354079305
222,1715.5,0.31746085923252293
223,1723.4199999999998,0.31552206283866185
224,1735.37,0.3132053519653488
225,1743.3799999999999,0.3110903508511029
226,1755.46,0.30877324638167847
227,1763.5600000000002,0.30604938654704783
228,1775.79,0.3032692545436487
229,1783.98,0.30146615598863324
230,1796.35,0.29918445042019126
231,1804.64,0.2970583281758593
232,1812.97,0.2943164810558009
233,1825.54,0.291492762108726
234,1833.96,0.28913014126828274
235,1846.68,0.28535170278723315
236,1855.1999999999998,0.2833894052574736
237,1863.7599999999998,0.2816653478519874
238,1876.68,0.2791615909923049
239,1885.3500000000001,0.2764508409285706
240,1894.05,0.2742009409580415
241,1905.46072,0.271782026306328
242,1907.18,0.2715281758359094
243,1915.98,0.26967396858733567
244,1924.82,0.2679006219376321
245,1933.7099999999998,0.2662718222865162
246,1947.11,0.2646457869080061
247,1956.1000000000001,0.2626100072540654
248,1965.1299999999999,0.26185739419899495
249,1974.2,0.2603449107427944
250,1983.3100000000002,0.2585108078854641
251,1997.06,0.2558982254970677
252,2006.28,0.2544406740366302
253,2015.5400000000002,0.25253773517506284
254,2024.84,0.25104632191236564
255,2034.1899999999998,0.24929608164825606
256,2043.5800000000002,0.24808441998301653
257,2053.01,0.24595869291664715
258,2067.24,0.24339829171469218
259,2072.0099999999998,0.24328230337995396
260,2076.78,0.2437753640452156
261,2086.37,0.2433264923743268
262,2096.0,0.240884538302308
263,2105.67,0.23897919682915936
264,2115.39,0.2376892043545984
265,2125.1600000000003,0.23560575087862498
266,2134.97,0.23309262400152186
267,2144.82,0.2325650437232887
268,2154.72,0.2311458194436433
269,2164.67,0.22854587816258545
270,2174.66,0.22682703948039784
271,2184.7,0.22597510779679778
272,2187.7616199999998,0.2254938268779733
273,2194.78,0.22479113349022392
274,2204.91,0.22324418576849073
275,2215.09,0.22047413985760778
276,2225.31,0.21962457459540508
277,2235.58,0.22031994514405265
278,2245.9,0.21851805450355047
279,2256.27,0.21565910667389862
280,2266.6800000000003,0.2143152044929269
281,2277.15,0.21384769828497563
282,2282.4,0.21486692642425506
283,2292.93,0.2122862321893241
284,2303.51,0.21213214476524336
285,2314.15,0.209519305314183
286,2324.83,0.20585859551180288
287,2335.56,0.20487160752027306
288,2346.34,0.20232148733959343
289,2357.17,0.20366302496976416
290,2362.6,0.20062254202810462
291,2373.51,0.20032493695563575
292,2384.46,0.19723276653184713
293,2395.4700000000003,0.19678758608107882
294,2406.53,0.19530681844116082
295,2417.64,0.19467246361209314
296,2423.21,0.19672465894081434
297,2434.39,0.195396977246937
298,2445.63,0.19541978152608
299,2456.92,0.19455510861607328
300,2462.58,0.19270674640432503
301,2473.95,0.19054089579167877
302,2485.37,0.18727251398988276
303,2496.8399999999997,0.18633452399893707
304,2502.6,0.18889520740888935
305,2511.88643,0.1839889398521395
306,2514.15,0.18286192234350085
307,2519.94,0.18179592978132475
308,2525.75,0.18144115419820847
309,2537.41,0.1821942889900956
310,2543.2599999999998,0.182023396365099
311,2555.0,0.1855773810732255
312,2566.79,0.18176511822900157
313,2572.7100000000005,0.18339678803071435
314,2584.59,0.18124666959225977
315,2596.52,0.17926036360145475
316,2602.5,0.1776766373403471
317,2614.5099999999998,0.17598418026578147
318,2626.58,0.1772813851283953
319,2632.64,0.18261655178352706
320,2644.7900000000004,0.18719415656238023
321,2657.0,0.193572774278413
322,2663.12,0.18211344387072426
323,2675.41,0.18384262550299635
324,2687.76,0.18534606007244792
325,2693.96,0.17963128358099859
326,2706.3900000000003,0.18265926206668953
327,2712.6299999999997,0.17635456753335987
328,2725.15,0.17269040042482012
329,2737.73,0.17461043625345993
330,2744.04,0.1665836351468397
331,2756.71,0.16823825538124876
332,2763.06,0.17107688623274817
333,2775.82,0.1713513408729265
334,2782.2200000000003,0.1648391641720755
335,2795.06,0.15785411572849326
336,2807.96,0.1578398882220905
337,2814.43,0.16652271094794896
338,2827.42,0.17240513684731548
339,2833.9399999999996,0.1716129260208236
340,2847.02,0.16629522632595936
341,2853.5899999999997,0.15920456794711704
342,2866.7599999999998,0.17112067265802214
343,2873.37,0.1767753962372995
344,2884.0315,0.17326314686794983
345,2886.63,0.17247501478083832
346,2893.2799999999997,0.17635709640969158
347,2913.3399999999997,0.18630623100740518
348,2926.7900000000004,0.18023788114395792
349,2947.07,0.17678803516397945
350,2967.5,0.17880286606284732
351,2988.0699999999997,0.17803428204863841
352,3008.7799999999997,0.17814365312135275
353,3029.6400000000003,0.17880687107291332
354,3050.64,0.1789064441113972
355,3071.79,0.18117550402872737
356,3093.0800000000004,0.18071397903298073
357,3107.36,0.18526492789914975
358,3128.89,0.18108789590955726
359,3150.58,0.17991849259073414
360,3172.42,0.18258009615075735
361,3187.07,0.1740525013180806
362,3209.16,0.178701079676181
363,3231.3999999999996,0.16827874491312772
364,3246.3199999999997,0.18406429846237432
365,3268.82,0.1925150802893213
366,3291.48,0.18935205078703768
367,3306.67,0.18634651271820768
368,3311.31121,0.18612375120624208
369,3321.9300000000003,0.185808663203135
370,3329.59,0.19385561571022542
371,3337.27,0.18781894827608112
372,3344.96,0.18834848587131942
373,3352.6699999999996,0.18157035352532297
374,3360.4,0.19049450123809175
375,3368.1499999999996,0.1898329990096258
376,3375.91,0.17443828181054247
377,3383.6899999999996,0.1742609946702244
378,3391.49,0.18925114758867156
379,3399.31,0.191995220565884
380,3407.15,0.18827455360186166
381,3415.0000000000005,0.18554439166722192
382,3422.87,0.19675712979134752
383,3430.7599999999998,0.1900160779742383
384,3438.6699999999996,0.19098389621589434
385,3446.6000000000004,0.16629280451631562
386,3454.55,0.18870625287550213
387,3462.5099999999998,0.17468451626407133
388,3470.49,0.18487208971140573
389,3478.4900000000002,0.1695491632175054
390,3486.5099999999998,0.17966917678237032
391,3494.55,0.17444280040600046
392,3502.6000000000004,0.19032663905901326
393,3510.68,0.18906228280017395
394,3518.77,0.1805363615707172
395,3526.88,0.17483436040002576
396,3535.01,0.18753574928809952
397,3543.1600000000003,0.19711577823493853
398,3551.33,0.19513595724054283
399,3559.52,0.19098057630491239
400,3567.72,0.18530744039866454
401,3575.95,0.17332492958056456
402,3584.19,0.15998958379184722
403,3592.45,0.17047332806189514
404,3600.7299999999996,0.1961413423907083
405,3609.0299999999997,0.17863382677828668
406,3617.35,0.18635952122463031
407,3625.6899999999996,0.18917107572973924
408,3630.58,0.18997716509784263
409,3633.29,0.22377146806053388
410,3636.01,0.22650783605260777
411,3638.72,0.16405581901529906
412,3641.44,0.19625375700737294
413,3644.15,0.1934319199700642
414,3646.86,0.16834839293275544
415,3649.58,0.16870825092482933
416,3652.2900000000004,0.16094387388752057
417,3655.01,0.15154632187959446
418,3657.72,0.19693603484228575
419,3660.4399999999996,0.19237392283435967
420,3663.15,0.23224968579705088
421,3665.87,0.20382225378912477
422,3668.5800000000004,0.20387876675181602
423,3671.3,0.20099013474388994
424,3674.0099999999998,0.20014613770658118
425,3676.7300000000005,0.20791131569865506
426,3679.44,0.14427096866134634
427,3682.16,0.1703793166534202
428,3684.87,0.16935840961611148
429,3687.59,0.16746085760818535
430,3690.3,0.17902635057087662
431,3693.0099999999998,0.1997203035335679
432,3695.73,0.19611208152564177
433,3698.44,0.240683684488333
434,3701.16,0.21329235248040693
435,3703.8700000000003,0.18580347544309816
436,3706.59,0.15340823343517207
437,3709.2999999999997,0.19561535639786332
438,3712.02,0.19164123438993722
439,3714.73,0.20684582735262846
440,3717.45,0.20390369534470237
441,3720.1600000000003,0.2183394083073936
442,3722.88,0.1577368062994675
443,3725.5899999999997,0.18609100926215877
444,3728.3100000000004,0.21225675725423265
445,3731.02,0.24862927021692394
446,3733.74,0.19832683820899782
447,3736.4500000000003,0.15931648117168906
448,3739.1600000000003,0.18505150413438032
449,3741.88,0.2004401321264542
450,3744.5899999999997,0.15691081508914548
451,3747.31,0.12688160308121935
452,3750.02,0.12261180604391063
453,3752.74,0.1790850640359845
454,3755.4500000000003,0.15049822699867574
455,3758.17,0.14045513499074963
456,3760.8799999999997,0.19904798795344092
457,3763.6,0.20517255594551478
458,3766.31,0.17238760890820606
459,3769.0299999999997,0.14737320690027997
460,3771.7400000000002,0.16822735986297122
461,3774.46,0.17156008785504506
462,3777.17,0.21308053081773634
463,3779.8900000000003,0.23228489880981024
464,3782.6,0.2569838117725015
465,3785.31,0.20408772473519277
466,3788.03,0.16969817272726662
467,3790.7400000000002,0.1702315556899579
468,3793.46,0.17625344368203177
469,3796.1699999999996,0.19313151664472306
470,3798.89,0.18824046463679694
471,3801.6,0.1595097175994882
472,3801.8939600000003,0.16296236079910742
473,3804.3199999999997,0.19148819478633117
474,3807.03,0.18683042158202773
475,3809.75,0.19711020246184127
476,3812.4599999999996,0.19246068925753784
477,3815.1800000000003,0.20701266013735137
478,3817.89,0.20969464693304796
479,3820.6099999999997,0.1950401178128615
480,3823.32,0.19284945460855807
481,3826.04,0.1777920054883716
482,3828.75,0.17582336228406817
483,3831.46,0.16408080907976474
484,3834.18,0.16812298995957828
485,3836.89,0.16983445675527487
486,3839.61,0.1674251076350884
487,3842.32,0.16219983443078495
488,3845.04,0.1990258353105985
489,3847.75,0.21702042210629507
490,3850.47,0.19771119298610862
491,3853.18,0.20701327978180517
492,3855.9,0.22253145066161872
493,3858.61,0.19145093745731528
494,3861.33,0.20322740833712882
495,3864.0400000000004,0.22544069513282539
496,3866.76,0.2127927660126389
497,3869.47,0.23410145280833553
498,3872.1899999999996,0.21737032368814907
499,3874.9,0.20321011048384563
500,3877.61,0.2031699972795422
501,3880.3300000000004,0.1942597681593557
502,3883.04,0.18335192495505231
503,3885.7599999999998,0.19257502583486585
504,3888.47,0.18070501263056243
505,3891.19,0.17531865351037595
506,3893.9,0.19791017030607252
507,3896.62,0.18873676118588606
508,3899.33,0.19004119798158264
509,3902.05,0.2296631988613962
510,3904.7599999999998,0.20671598565709276
511,3907.48,0.2330031565369063
512,3910.19,0.23033564333260287
513,3912.91,0.2518694142124164
514,3915.6200000000003,0.21440330100811295
515,3918.34,0.2059328718879265
516,3921.0499999999997,0.2282078586836231
517,3923.76,0.19895714547931964
518,3926.48,0.1873371263591332
519,3929.19,0.21326340315482975
520,3931.9100000000003,0.17686534403464327
521,3934.62,0.12993999083033989
522,3937.3399999999997,0.17121267171015342
523,3940.0499999999997,0.15592156850584998
524,3942.77,0.18540792938566353
525,3945.48,0.2179871761813601
526,3948.2,0.21820114706117363
527,3950.9100000000003,0.1988517338568702
528,3953.63,0.21070630473668372
529,3956.3399999999997,0.21818269153238032
530,3959.06,0.21461366241219387
531,3961.77,0.2045653492078904
532,3964.49,0.19513282008770394
533,3967.2000000000003,0.15912627688340053
534,3969.92,0.14475558776321407
535,3972.6299999999997,0.13191100455891064
536,3975.34,0.1478124413546072
537,3978.06,0.19953582223442076
538,3980.77,0.20396940903011732
539,3983.4900000000002,0.22679437990993084
540,3986.2,0.23153236670562743
541,3988.92,0.19499853758544097
542,3991.63,0.22396762438113754
543,3994.35,0.22152109526095107
544,3997.06,0.24196228205664766
545,3999.78,0.24429375293646116
546,4002.4900000000002,0.23502253973215775
547,4005.21,0.2440317106119713
548,4007.9199999999996,0.23072679740766788
549,4010.64,0.2554513682874814
550,4013.35,0.263836555083178
551,4016.0699999999997,0.2903374259629915
552,4018.78,0.25903091275868806
553,4021.49,0.24928279955438468
554,4024.2099999999996,0.2651916704341982
555,4026.92,0.2557807572298948
556,4029.64,0.24860962810970832
557,4032.35,0.23798971490540488
558,4035.07,0.24382448578521843
559,4037.78,0.240108472580915
560,4040.5,0.21215194346072852
561,4043.21,0.2539378302564251
562,4045.93,0.24692710113623867
563,4048.64,0.2638032879319352
564,4051.36,0.23686235881174872
565,4054.07,0.2737961456074453
566,4056.79,0.22616441648725888
567,4059.5,0.22392860328295544
568,4062.2200000000003,0.22713597416276898
569,4064.93,0.2524989609584656
570,4067.6400000000003,0.2413240477541621
571,4070.36,0.22520141863397564
572,4073.0699999999997,0.22222960542967224
573,4075.7900000000004,0.20227487630948576
574,4078.5,0.24995706310518234
575,4081.22,0.2266675339849959
576,4083.93,0.24447702078069244
577,4086.65,0.21190299166050597
578,4089.36,0.23535797845620254
579,4092.0800000000004,0.24686304933601605
580,4094.79,0.23406803613171268
581,4097.51,0.2150631070115262
582,4100.22,0.23568509380722277
583,4102.94,0.20874426468703633
584,4105.650000000001,0.20067785148273287
585,4108.37,0.20126182236254642
