,lambda (Angstroms),Total Flux (erg/s/cm^2/Angstrom)
0,100.08,8.43756754175001
1,101.94,8.414094743712862
2,104.07,8.387214583866328
3,104.712855,8.379101900305216
4,106.00999999999999,8.293114036146438
5,107.98,8.162522597108355
6,109.99,8.029279722005912
7,114.11,7.756164808165679
8,118.11999999999999,7.490341934417209
9,120.22644299999999,7.350710380830174
10,120.88,7.314388938437543
11,125.12,7.078743588253543
12,126.86,6.982040164477077
13,128.04,6.916459760888554
14,131.02,6.750841119770924
15,131.93,6.7002686747792675
16,134.07,6.581334639498556
17,136.88,6.4251681161467324
18,138.038426,6.360786956932962
19,140.07,6.2800829947087795
20,143.0,6.163741098201263
21,147.01000000000002,6.004580961496537
22,151.13,5.8409323137542275
23,155.0,5.687219666170068
24,158.489319,5.548629674741053
25,158.98,5.53389649234129
26,161.94,5.445019806400045
27,166.08999999999997,5.320418015703368
28,169.96,5.204219745590321
29,173.12,5.109341136517911
30,177.15,4.988340475799934
31,180.03000000000003,4.901871006211155
32,181.970086,4.843621409472968
33,182.11,4.840416896431447
34,185.92999999999998,4.7529286518699845
35,191.14,4.633602819379876
36,193.79,4.572919003123102
37,197.85,4.479933447299141
38,202.0,4.384891478151739
39,204.81,4.320540103886633
40,208.929613,4.22616518254764
41,210.06,4.206697544044057
42,215.94,4.1055127573984995
43,219.96,4.036317295676537
44,223.01999999999998,3.983629005053849
45,227.16,3.9123712369819774
46,229.8,3.867444859083972
47,234.07,3.7949943329496976
48,239.88329199999998,3.695475250633371
49,240.07,3.6930167304160566
50,246.23,3.6111122222127747
51,251.97,3.5351421146597164
52,257.24,3.4646947327390514
53,260.22,3.4255653526017493
54,263.84000000000003,3.3776921040926773
55,268.75,3.3125302634436333
56,273.74,3.2462988296231177
57,275.42287,3.2239648463046153
58,278.83000000000004,3.18926512420484
59,284.01,3.1365015245680303
60,289.96000000000004,3.075732846755477
61,296.03000000000003,3.0139653428895623
62,300.84,2.964946951583953
63,307.85,2.8935718836333653
64,316.227766,2.808276315534085
65,317.94000000000005,2.79525868480908
66,328.35,2.7160475977714196
67,338.33000000000004,2.6400672327929513
68,347.81,2.5678842444647074
69,356.73,2.4999787498647144
70,363.078055,2.451664463361878
71,365.88000000000005,2.4356928817607435
72,375.27,2.3821297745071015
73,384.89000000000004,2.3271591562738703
74,394.77,2.27090303662893
75,404.89,2.2131976295270275
76,414.32,2.1593951673638916
77,416.86938299999997,2.1448461391340157
78,422.03,2.122345210850343
79,429.86999999999995,2.0881715108214705
80,440.9,2.0401167659594215
81,451.16999999999996,1.9953437449573144
82,459.55999999999995,1.9587672438192734
83,470.26,1.9121394524227249
84,478.630092,1.875677739653258
85,480.10999999999996,1.8707180506705932
86,490.15999999999997,1.8369837410603904
87,500.42999999999995,1.8025813877542425
88,506.22,1.7831440582564242
89,512.0799999999999,1.7635728353553506
90,520.4,1.7356858538541677
91,530.08,1.7032077222325985
92,539.93,1.6701415433459825
93,549.5408739999999,1.6379189180375426
94,549.97,1.6368207770476715
95,560.2,1.6106915865884488
96,570.61,1.5840976138542837
97,579.88,1.5603529111947538
98,590.66,1.5328049015065406
99,600.26,1.508206604509616
100,610.02,1.4830529650460762
101,619.93,1.4579435975200847
102,630.0,1.432173367527477
103,630.957344,1.4297270099487116
104,640.24,1.4109185093594314
105,650.64,1.3898290213721245
106,658.17,1.3745405638774681
107,664.26,1.3622144980272084
108,675.06,1.3403213941942353
109,684.45,1.3212336286172337
110,695.5699999999999,1.2987595353077281
111,705.25,1.279079273642619
112,716.71,1.2559199632642977
113,724.43596,1.2402583080515392
114,726.68,1.2368797888448924
115,735.09,1.2242252535789435
116,745.32,1.2088366277393887
117,755.68,1.1932529278588622
118,764.43,1.1799833737165257
119,775.07,1.1640916800554444
120,785.85,1.1478592805040855
121,794.9499999999999,1.1341912076360559
122,804.16,1.1203469744256647
123,815.3399999999999,1.1035358709020848
124,824.78,1.089364204157667
125,831.763771,1.0787590447750672
126,834.3399999999999,1.0758243258008826
127,845.94,1.062916332374791
128,855.74,1.0518934440837822
129,865.65,1.04077855939563
130,875.6700000000001,1.0295438703103332
131,885.81,1.018178263882698
132,894.01,1.0089805698228744
133,904.36,0.997328728546146
134,914.8299999999999,0.9860226209270788
135,925.42,0.9798826269656727
136,933.99,0.9782275969336376
137,944.8,0.9792410861779435
138,954.992586,0.9790700575259669
139,955.74,0.9790756466034491
140,964.59,0.9727902548527781
141,975.75,0.9241012358146439
142,984.78,0.9412289364181967
143,993.9000000000001,0.9346795856988612
144,1005.4000000000001,0.9419543311075939
145,1014.71,0.9305275503732724
146,1024.1,0.8883128906852725
147,1035.95,0.8885649081716623
148,1045.54,0.9159134710994665
149,1055.21,0.903550035073592
150,1064.98,0.8750303353556197
151,1074.83,0.8763624166839693
152,1084.78,0.8489863743202204
153,1094.81,0.8580013430027934
154,1096.4782,0.8556822263470294
155,1104.94,0.8456038281827295
156,1115.17,0.8326509168207018
157,1125.49,0.8159197621329086
158,1135.8999999999999,0.8248357441193498
159,1143.78,0.8101840351523137
160,1154.36,0.8056189264123086
161,1165.04,0.7980919084214527
162,1175.8200000000002,0.7629692911797459
163,1183.97,0.7784713822354133
164,1194.92,0.7437215042672604
165,1205.98,0.7191986911231718
166,1214.34,0.7024710877520526
167,1225.58,0.7176237379564328
168,1234.07,0.7370564175592075
169,1245.49,0.7344419511120562
170,1254.12,0.7219222677636402
171,1258.92541,0.7126531993243632
172,1265.73,0.701285492572696
173,1274.5,0.7174049918924813
174,1286.3,0.7145184785029107
175,1295.21,0.6864278251892604
176,1304.19,0.6796763805588923
177,1316.26,0.692297594947696
178,1325.3799999999999,0.6821195676838924
179,1334.57,0.6647705591033709
180,1343.82,0.675687752251377
181,1356.25,0.6643590970113463
182,1365.6499999999999,0.6478729744806716
183,1375.12,0.6460945306332789
184,1384.65,0.6407557985144137
185,1394.25,0.622249455078831
186,1403.9099999999999,0.6185741133717758
187,1413.6499999999999,0.6152905573027574
188,1423.45,0.6115363029622665
189,1436.6200000000001,0.6027233823740763
190,1443.25,0.6029818633763768
191,1445.43977,0.602605110135868
192,1446.5700000000002,0.6026295399239893
193,1456.6000000000001,0.5952389894799478
194,1463.32,0.585318621246253
195,1473.47,0.5811218042266098
196,1483.68,0.5783218789191656
197,1493.97,0.5751605925613205
198,1504.3200000000002,0.5657549779156743
199,1511.26,0.5541023392933765
200,1518.2399999999998,0.556011835145878
201,1525.25,0.550467751854479
202,1535.82,0.5360813168202299
203,1546.47,0.5363990607355795
204,1553.6,0.530049930868579
205,1564.37,0.527221318208327
206,1575.22,0.5268487744976738
207,1586.14,0.5256165961179197
208,1593.4599999999998,0.5236587950062165
209,1604.5,0.5175650600508607
210,1615.63,0.5127449476638035
211,1626.82,0.5040614269889456
212,1634.33,0.5053640146325397
213,1645.6599999999999,0.5014664946194798
214,1653.26,0.4928503048313725
215,1659.58691,0.49345933728999547
216,1664.72,0.4946418986252875
217,1672.4,0.48368808449889095
218,1676.26,0.49205948206036354
219,1683.99,0.49282789199564403
220,1695.6699999999998,0.48442781280341596
221,1703.49,0.47914137604971524
222,1715.3,0.47161661941784755
223,1723.22,0.46882609078750104
224,1735.16,0.4700327467159938
225,1743.17,0.46604862139666614
226,1755.2599999999998,0.4671177195101904
227,1763.36,0.45859293750188135
228,1775.58,0.456050208175766
229,1783.7800000000002,0.4552867642908113
230,1796.1399999999999,0.45659009233739184
231,1804.4299999999998,0.453456071763456
232,1816.94,0.4434067419950677
233,1825.33,0.4425946295444861
234,1833.75,0.4373258915309106
235,1846.46,0.4276196480092308
236,1854.99,0.42583874293134505
237,1863.55,0.42560472229046553
238,1876.47,0.4268975798278296
239,1885.1299999999999,0.41852616731030434
240,1893.83,0.4138112240421207
241,1905.46072,0.41374057924053753
242,1906.96,0.41385706270909006
243,1915.76,0.4093239864763657
244,1924.6,0.40546875016985623
245,1933.48,0.4049458737895616
246,1946.89,0.40630058155310317
247,1955.8700000000001,0.39980155998834577
248,1964.9,0.40465850083135707
249,1973.9699999999998,0.40428700160058323
250,1983.0800000000002,0.39913906229602425
251,1996.83,0.39449780443239246
252,2006.05,0.39419513242492443
253,2015.3,0.39009421786211756
254,2024.6100000000001,0.3904341681886329
255,2033.9499999999998,0.38564657595980967
256,2043.34,0.38663687613875486
257,2052.77,0.379245446243915
258,2067.0,0.37692757749486183
259,2071.77,0.3826896111959873
260,2076.54,0.38318690489711293
261,2086.13,0.3863521447071326
262,2095.76,0.37949109444336715
263,2105.4300000000003,0.37709055410581654
264,2115.15,0.3770481761760347
265,2124.9100000000003,0.37406895817246755
266,2134.72,0.3668376425766693
267,2144.57,0.36900331690708565
268,2154.47,0.3695094936452708
269,2164.42,0.3631756727912245
270,2174.41,0.36105971186339314
271,2184.44,0.36075930086177654
272,2187.7616199999998,0.3609231939668787
273,2194.53,0.36176013715253075
274,2204.65,0.35811358169687013
275,2214.83,0.3499274899440416
276,2225.05,0.3485107006597677
277,2235.32,0.35484909946118726
278,2245.6400000000003,0.3500833863483001
279,2256.0099999999998,0.3420044113211064
280,2266.42,0.3412288687624674
281,2276.88,0.3427160542895218
282,2287.39,0.3465652079022695
283,2292.66,0.33921139813435136
284,2303.25,0.3415006666842085
285,2313.88,0.33458619770262027
286,2324.56,0.31864646680672554
287,2335.29,0.3228094039965241
288,2346.07,0.316498899272016
289,2356.9,0.32506904263320135
290,2362.33,0.3144554827395021
291,2373.23,0.31661033542065814
292,2384.19,0.30714848180464627
293,2395.19,0.310041270657189
294,2406.25,0.3068019832125639
295,2417.36,0.3079863238536321
296,2422.9300000000003,0.3169285825998743
297,2434.1099999999997,0.31389676256091337
298,2445.35,0.3179097362247843
299,2456.64,0.3169295079743487
300,2462.3,0.31270100727483885
301,2473.66,0.30742304834437406
302,2485.08,0.3005808731167412
303,2496.5499999999997,0.2951015159748018
304,2502.31,0.30950209144667873
305,2511.88643,0.2933723883460121
306,2513.86,0.29012647914150186
307,2519.65,0.28919518196621713
308,2525.46,0.2881278784967173
309,2537.12,0.29232557896928724
310,2542.97,0.29212622291135715
311,2554.7,0.3043953163541741
312,2566.5,0.29538951276723807
313,2572.41,0.30187964782666243
314,2584.2900000000004,0.29733351906286576
315,2596.2200000000003,0.2929099795635314
316,2602.2000000000003,0.28831140759320273
317,2614.21,0.2846180029170077
318,2626.2799999999997,0.29109514935816716
319,2632.33,0.30618296035808557
320,2644.48,0.32168668162238445
321,2656.69,0.3380070840040379
322,2662.81,0.3084181279742033
323,2675.1000000000004,0.31563983517899613
324,2687.4500000000003,0.3202571235011436
325,2693.65,0.30480051229444843
326,2706.08,0.3139542954397353
327,2712.3199999999997,0.2975572616446099
328,2724.84,0.2906705614659285
329,2737.42,0.2979965924046018
330,2743.7299999999996,0.2736349715797234
331,2756.3900000000003,0.2801557873415359
332,2762.7400000000002,0.28929103392822714
333,2775.5,0.29314598821896415
334,2781.8900000000003,0.27428572221722497
335,2794.74,0.25227081318399386
336,2807.6299999999997,0.2554811215623324
337,2814.11,0.2838166922366251
338,2827.1000000000004,0.30270259914388786
339,2833.6099999999997,0.29949434537685793
340,2846.69,0.2870544589601526
341,2853.25,0.26776124445758476
342,2866.43,0.30200230656980365
343,2873.0299999999997,0.3151400294788055
344,2884.0315,0.307113329217444
345,2886.2900000000004,0.3055423644305325
346,2892.9500000000003,0.3141689229992913
347,2913.0,0.34048787319502904
348,2933.19,0.3252387723696897
349,2946.73,0.3187571950455146
350,2967.16,0.3250668638983287
351,2987.72,0.3245709996601425
352,3008.4300000000003,0.3268193664708023
353,3029.29,0.32844986433030804
354,3050.29,0.3308719111687366
355,3071.43,0.3356512069860881
356,3092.72,0.3352561338522854
357,3106.9999999999995,0.34446852970241687
358,3128.5299999999997,0.33654312624676763
359,3150.2200000000003,0.33458923590988743
360,3172.05,0.34144619455193004
361,3186.7000000000003,0.32243362698921474
362,3208.7900000000004,0.334742819449257
363,3231.0299999999997,0.3116090429581452
364,3253.42,0.34713129751587923
365,3268.44,0.3674160665403172
366,3291.1000000000004,0.3614766369859739
367,3306.29,0.356137801199104
368,3311.31121,0.3557849143451616
369,3321.5499999999997,0.35530961295451813
370,3329.21,0.37160892780379207
371,3336.8799999999997,0.3617912632990833
372,3344.57,0.35661654008640925
373,3352.28,0.3451231581657698
374,3360.0099999999998,0.3666718175371651
375,3367.76,0.36233771820059496
376,3375.52,0.3214849395100422
377,3383.3,0.3293013021115241
378,3391.1000000000004,0.3652531060050407
379,3398.92,0.3746699511905919
380,3406.75,0.36303651702216044
381,3414.61,0.362178344791781
382,3422.48,0.38218559320741885
383,3430.37,0.36600088291509136
384,3438.28,0.37184601391479855
385,3446.2,0.315694365560523
386,3454.15,0.3649193791442995
387,3462.11,0.3346048133740933
388,3470.09,0.35469668889592176
389,3478.0899999999997,0.32311040570978494
390,3486.11,0.3443920638156827
391,3494.14,0.3357725425675978
392,3502.2,0.36687058325756494
393,3510.27,0.3628836445935494
394,3518.3599999999997,0.34811054722156853
395,3526.47,0.3365151911416222
396,3534.6,0.36332787635371067
397,3542.75,0.3863635028578337
398,3550.92,0.3814696706539914
399,3559.1,0.37228425909616647
400,3567.3100000000004,0.36184540947639354
401,3575.53,0.33105218050263785
402,3583.77,0.3147399928209169
403,3592.0400000000004,0.3110746670772479
404,3600.32,0.3809805619795963
405,3608.6200000000003,0.34490919817397925
406,3616.94,0.3529379756603969
407,3625.27,0.36932357379283187
408,3633.63,0.3630432338633189
409,3641.28,0.3642263280665755
410,3644.04,0.3462195263673583
411,3646.79,0.3540551040221237
412,3649.54,0.3105382816768892
413,3652.2900000000004,0.3197276593316546
414,3655.05,0.3476854576324374
415,3657.7999999999997,0.3816552352872029
416,3660.55,0.36656981294196833
417,3663.2999999999997,0.3773982905967338
418,3666.05,0.35858046825149925
419,3668.81,0.359623866552282
420,3671.56,0.34646014420704746
421,3674.31,0.3759366218618129
422,3677.06,0.3626859995165784
423,3679.81,0.35149577717134384
424,3682.57,0.34887217547212657
425,3685.32,0.35426935312689206
426,3688.07,0.3303791307816575
427,3690.82,0.37113940843642296
428,3693.5800000000004,0.35173810673720574
429,3696.33,0.3547376843919712
430,3699.08,0.3493974620467366
431,3701.83,0.3750464397015021
432,3704.58,0.34331641735626756
433,3707.34,0.3409211156570503
434,3710.0899999999997,0.3577816933118158
435,3712.84,0.36556287096658124
436,3715.5899999999997,0.3744450486213467
437,3718.3500000000004,0.3528907469221294
438,3721.1,0.3889727245768949
439,3723.8500000000004,0.4014514022316603
440,3726.6,0.45223427988642584
441,3729.3500000000004,0.44973755754119127
442,3732.11,0.44625995584197403
443,3734.8599999999997,0.38523713349673955
444,3737.61,0.34142411115150495
445,3740.3599999999997,0.3566807888062704
446,3743.11,0.39153696646103586
447,3745.87,0.36507046476181865
448,3748.62,0.3403674424165841
449,3751.37,0.33036252007134953
450,3754.1200000000003,0.34322159772611494
451,3756.88,0.36912709602689775
452,3759.63,0.36218027368166317
453,3762.38,0.39379055133642865
454,3765.1299999999997,0.37245832899119413
455,3767.88,0.3709265066459596
456,3770.6400000000003,0.3683462049467423
457,3773.39,0.38658228260150784
458,3776.14,0.37207036025627327
459,3778.89,0.4037813379110387
460,3781.64,0.4199325155658042
461,3784.4,0.43703281386658693
462,3787.15,0.4316818915213524
463,3789.9,0.4294840691761178
464,3792.65,0.3851300468308833
465,3795.4100000000003,0.36798764513166604
466,3798.16,0.36097012278643154
467,3800.9100000000003,0.358916400441197
468,3801.8939600000003,0.3624543548023551
469,3803.66,0.3688340528507955
470,3806.41,0.3834493387317568
471,3809.17,0.41946421328864886
472,3811.9199999999996,0.4529501991696101
473,3814.67,0.4308188850505714
474,3817.42,0.4261664709315327
475,3820.17,0.425129456812494
476,3822.93,0.3913506313693861
477,3825.6800000000003,0.3916456172503473
478,3828.43,0.3701991031313086
479,3831.1800000000003,0.3584951890122699
480,3833.94,0.33434506356916194
481,3836.6899999999996,0.33558324945012324
482,3839.44,0.32658413533108455
483,3842.1899999999996,0.3328457212120458
484,3844.94,0.3740084070930071
485,3847.7,0.4091263816498992
486,3850.4500000000003,0.41624436753086047
487,3853.2,0.4283913534118217
488,3855.9500000000003,0.44132673929278304
489,3858.71,0.4214223138496751
490,3861.46,0.4284043997306364
491,3864.21,0.43228768561159764
492,3866.96,0.456667271492559
493,3869.71,0.4526400573735202
494,3872.4700000000003,0.4511932319304123
495,3875.22,0.43493341781137357
496,3877.9700000000003,0.41361760369233486
497,3880.72,0.4172832895732962
498,3883.47,0.3907861754542574
499,3886.23,0.3849276500111495
500,3888.98,0.3677571358921108
501,3891.73,0.3556808217730721
502,3894.48,0.37979670765403334
503,3897.2400000000002,0.3956986822109254
504,3899.99,0.4149404680918867
505,3902.7400000000002,0.43600365397284796
506,3905.49,0.4400771398538093
507,3908.2400000000002,0.44893502573477057
508,3911.0,0.46279240029166263
509,3913.7499999999995,0.48298578617262394
510,3916.5,0.4629746720535852
511,3919.2500000000005,0.46076875793454647
512,3922.0,0.45372424381550774
513,3924.7599999999998,0.4331130183723999
514,3927.51,0.4131020042533611
515,3930.2599999999998,0.37174089013432243
516,3933.01,0.33532167601528373
517,3935.77,0.3192913505721757
518,3938.52,0.341974536453137
519,3941.27,0.3919310223340983
520,3944.0199999999995,0.4149514082150596
521,3946.77,0.42625569409602093
522,3949.53,0.4295388686529129
523,3952.28,0.46046965453387423
524,3955.0299999999997,0.4672887404148356
525,3957.78,0.4591568262957968
526,3960.5299999999997,0.4302567121767581
527,3963.29,0.38401968673365017
528,3966.04,0.34429507261461145
529,3968.79,0.3042495584955727
530,3971.54,0.29893104437653406
531,3974.3,0.31962021893342607
532,3977.0499999999997,0.3647162048143874
533,3979.8,0.4161976906953486
534,3982.55,0.43916377657630995
535,3985.2999999999997,0.46308126245727127
536,3988.06,0.4937108370141633
537,3990.8100000000004,0.49490302289512456
538,3993.56,0.49903090877608586
539,3996.31,0.5029685946570471
540,3999.07,0.5062242692139391
541,4001.8199999999997,0.5145112550949005
542,4004.57,0.5164917409758618
543,4007.3199999999997,0.5115947268568231
544,4010.07,0.5145810127377843
545,4012.83,0.5256382872946764
546,4015.5800000000004,0.5333815731756377
547,4018.33,0.544985059056599
548,4021.0800000000004,0.5437850449375603
549,4023.83,0.5327990308185215
550,4026.5899999999997,0.5278995053754136
551,4029.34,0.522078291256375
552,4032.0899999999997,0.5210957771373362
553,4034.84,0.5249518630182974
554,4037.6,0.5276910375751895
555,4040.35,0.5319005234561508
556,4043.1,0.5353489093371121
557,4045.85,0.5274073952180733
558,4048.6,0.5185144810990348
559,4051.36,0.5270164556559268
560,4054.11,0.5350860415368881
561,4056.86,0.5171410274178493
562,4059.61,0.5209427132988106
563,4062.3599999999997,0.5178126991797719
564,4065.12,0.512804573736664
565,4067.87,0.5158994596176253
566,4070.62,0.5126335454985865
567,4073.37,0.5176314313795478
568,4076.13,0.5079206059364398
569,4078.8799999999997,0.4996256918174012
570,4081.63,0.5112018776983625
571,4084.38,0.5170695635793238
572,4087.13,0.518397649460285
573,4089.89,0.514775824017177
574,4092.6400000000003,0.5093352098981384
575,4095.39,0.4886988957790997
576,4098.14,0.45343788166006094
577,4100.900000000001,0.434104356216953
578,4103.65,0.4233084420979143
579,4106.4,0.4348030279788756
580,4109.15,0.45942731385983687
581,4111.9,0.4805992997407982
582,4114.66,0.4973108742976903
583,4117.41,0.5080987601786515
584,4120.16,0.5129062460596128
585,4122.91,0.5207311319405741
586,4125.66,0.5168400178215353
587,4128.42,0.5106357923784274
588,4131.17,0.5057116782593887
589,4133.92,0.51777716414035
590,4136.67,0.5252487500213113
591,4139.43,0.5271179245782033
592,4142.179999999999,0.5244228104591646
593,4144.93,0.5201238963401259
594,4147.68,0.5168578822210872
