,lambda (Angstroms),Total Flux (erg/s/cm^2/Angstrom)
0,102.05000000000001,38.335795119958014
1,103.95,38.226531368861764
2,104.712855,38.18266168526043
3,105.88,37.83009389811743
4,108.10000000000001,37.15948271659546
5,110.11,36.55230772792017
6,113.98,35.38326931688864
7,117.97999999999999,34.174960881713936
8,120.22644299999999,33.49636187520419
9,121.01,33.29791827419863
10,124.97,32.29500890068525
11,127.0,31.780891216788262
12,127.88000000000001,31.558022467118636
13,130.86,30.80330783755561
14,132.07,30.496863306759963
15,133.91,30.030865011996287
16,137.03,29.24069399044071
17,138.038426,28.985300079356364
18,139.9,28.648306660515836
19,143.16,28.05816168351622
20,147.17,27.332247156600964
21,150.94,26.649778885657764
22,155.17,25.8840386240986
23,158.489319,25.283155361868136
24,159.14999999999998,25.19273520388
25,162.10999999999999,24.787632487679428
26,165.89,24.27030537038001
27,170.14000000000001,23.688654510987632
28,172.91,23.30955500970488
29,176.93,22.75938172626367
30,179.81,22.365227732172066
31,181.89000000000001,22.08056095866583
32,181.970086,22.069600466732073
33,186.13000000000002,21.63526230436768
34,190.9,21.137224836716406
35,194.0,20.813552687957934
36,198.07000000000002,20.388602479783586
37,202.21,19.956343545733493
38,205.03,19.661906300870672
39,208.929613,19.2547462626536
40,209.79999999999998,19.186423309203928
41,216.17999999999998,18.685611092686933
42,220.20000000000002,18.37005229810198
43,222.75,18.16988440612223
44,226.89000000000001,17.844905946281422
45,230.04,17.597639729237695
46,233.78,17.304060159939382
47,239.78,16.833076891600463
48,239.88329199999998,16.824968757563664
49,245.93,16.45919948839595
50,252.24,16.077503520766097
51,256.93,15.79380239096232
52,259.9,15.614145182070956
53,264.13,15.358269758074629
54,269.04,15.0612606950692
55,274.04,14.75880747468003
56,275.42287,14.675156777891315
57,279.13,14.503057453824152
58,284.32,14.262117566440274
59,290.28000000000003,13.98543129561129
60,295.67,13.73520664009542
61,301.17,13.479875352707815
62,308.19,13.153979792369457
63,316.227766,12.780835600908791
64,318.28000000000003,12.709676279635326
65,327.95,12.374377953512308
66,337.92,12.028677406517764
67,348.19000000000005,11.672574640081486
68,357.12,11.362935150403707
69,363.078055,11.156345114397523
70,366.28000000000003,11.073199557955117
71,374.81,10.851699312180985
72,385.31,10.579043648977837
73,395.2,10.322228053618367
74,405.33,10.059180326493948
75,413.82,9.838718797156135
76,416.86938299999997,9.759534854647805
77,421.51,9.667510638282002
78,430.34000000000003,9.492410251159505
79,441.37999999999994,9.273485254405829
80,450.62,9.090254544250394
81,460.06,8.9030577679146
82,469.68999999999994,8.712093314628664
83,478.630092,8.534809890008116
84,479.53000000000003,8.521085207698908
85,489.57,8.367963020428059
86,499.82,8.211638227484613
87,505.61,8.123334371827506
88,511.46,8.034121751553375
89,519.77,7.907385447038138
90,529.43,7.7600604466047916
91,540.52,7.590924836887967
92,549.5408739999999,7.453353807163975
93,550.57,7.441381514363812
94,559.52,7.33726102699138
95,569.92,7.216270932447491
96,580.51,7.09306333811679
97,589.9499999999999,6.983250004343107
98,599.53,6.871800072773351
99,610.68,6.742095324208365
100,620.6,6.626699378519577
101,630.68,6.509441855762424
102,630.957344,6.5062153469641935
103,639.46,6.427801557815859
104,649.85,6.332003024330575
105,657.37,6.26266739091909
106,664.99,6.192404153018622
107,674.24,6.107101304387737
108,685.1899999999999,6.006118255544152
109,694.72,5.918307356384116
110,704.39,5.829121940159507
111,715.8299999999999,5.723689914039908
112,724.43596,5.6443472596655555
113,725.7900000000001,5.635082037891033
114,734.2,5.577540349057322
115,744.41,5.507730793650998
116,754.77,5.436869602721954
117,765.27,5.365053261231708
118,774.13,5.304490458229843
119,784.9000000000001,5.230854147978704
120,795.82,5.156165916904849
121,805.0300000000001,5.093191518149975
122,814.3499999999999,5.029460603818443
123,825.6800000000001,4.952054187122491
124,831.763771,4.910271565214442
125,835.24,4.8924070822300205
126,844.91,4.843286667148298
127,854.7,4.793278623272386
128,864.5899999999999,4.742843641901318
129,874.61,4.691755268086545
130,884.7299999999999,4.640214701776614
131,894.9799999999999,4.587949581022979
132,905.34,4.5349821601246685
133,915.8199999999999,4.4829443564321725
134,924.3,4.466769944642823
135,935.0,4.452727149660979
136,945.83,4.469486137235429
137,954.58,4.494878793909156
138,954.992586,4.493804267524341
139,965.63,4.467276363078075
140,974.57,4.2160971214054355
141,985.85,4.32679384761714
142,994.98,4.306477029063315
143,1004.18,4.38990313271116
144,1015.8100000000001,4.329010449931206
145,1025.21,4.08022288844096
146,1034.7,4.126378212638572
147,1044.27,4.344049490780949
148,1053.93,4.295825854611186
149,1066.14,4.12054491293077
150,1076.0,4.167556211622916
151,1085.96,4.007887527746016
152,1096.0,4.113997397813881
153,1096.4782,4.111022137258361
154,1106.15,4.05962317841764
155,1113.81,4.009636187496698
156,1124.12,3.9191970294816967
157,1134.52,4.033513230320104
158,1145.02,3.935839496551187
159,1155.61,3.9452950216356815
160,1166.31,3.931789618652119
161,1174.39,3.6912079023804196
162,1185.26,3.852851410564409
163,1196.22,3.5883026776018077
164,1204.52,3.424922705193998
165,1215.6599999999999,3.2926814899382157
166,1224.0900000000001,3.501731502540885
167,1235.41,3.7273806049919207
168,1243.98,3.7794828091443393
169,1255.49,3.6967491358414613
170,1258.92541,3.6370177763545772
171,1264.19,3.5516788974000058
172,1275.89,3.7478803371471017
173,1284.73,3.7796484138449076
174,1293.64,3.532613525652312
175,1305.6100000000001,3.4984353293935713
176,1314.66,3.6914773114201713
177,1323.77,3.628495652112141
178,1336.02,3.477336796291793
179,1345.2800000000002,3.6409652836471866
180,1354.6,3.588993029667951
181,1363.99,3.452678610798313
182,1373.45,3.4839723270382725
183,1386.1599999999999,3.466497887652426
184,1395.77,3.31768745055581
185,1405.44,3.3314773721245636
186,1415.18,3.3246676288029153
187,1424.9899999999998,3.332767120590866
188,1434.8700000000001,3.303487747488413
189,1441.49,3.3461682535675394
190,1445.43977,3.3460778191686846
191,1448.15,3.3484075891473712
192,1454.83,3.308818766650541
193,1464.92,3.2106193941964944
194,1475.07,3.1955124314206214
195,1485.29,3.1991500799359485
196,1495.59,3.2032105413555056
197,1505.96,3.1263292140662626
198,1512.91,3.008763535121206
199,1516.3999999999999,3.0681124980682215
200,1523.4,3.0294087271883083
201,1533.95,2.893581128933582
202,1544.5900000000001,2.9545813451961145
203,1555.29,2.89252067113682
204,1566.07,2.8890386099817538
205,1573.3,2.930377276201501
206,1584.21,2.9583158360158084
207,1595.19,2.953187407121316
208,1606.25,2.921110591131054
209,1613.66,2.920960786385317
210,1624.85,2.8501335913644286
211,1636.1100000000001,2.8890863076347393
212,1643.66,2.891181125471405
213,1655.06,2.799906664324119
214,1659.58691,2.8239279209746844
215,1666.53,2.865013605285875
216,1670.37,2.7619541078116128
217,1678.0800000000002,2.8467338527265698
218,1685.8300000000002,2.8852902507928375
219,1693.6100000000001,2.8184272887225865
220,1705.35,2.761429188632003
221,1713.22,2.6938234461521997
222,1725.09,2.675006018803373
223,1733.06,2.7262535092018436
224,1745.07,2.688402067882601
225,1753.12,2.7403639645836915
226,1765.28,2.6451226225818605
227,1773.42,2.6516509388733978
228,1785.72,2.656665182901151
229,1793.96,2.7077990320709624
230,1806.3899999999999,2.6873433488404728
231,1814.73,2.589343930888559
232,1823.11,2.6082421660879547
233,1835.7499999999998,2.552234261901841
234,1844.22,2.467726616691684
235,1857.0,2.441380298535154
236,1865.57,2.4548739862032716
237,1874.19,2.5301129403105262
238,1882.8400000000001,2.4347860342812635
239,1895.89,2.3723502748960743
240,1904.6399999999999,2.423290401745086
241,1905.46072,2.418300375592851
242,1913.43,2.372888690057073
243,1926.69,2.3431298749031653
244,1935.5900000000001,2.3761674808707536
245,1944.5200000000002,2.3893578782067713
246,1953.5,2.3180524278235066
247,1967.04,2.3873510654416132
248,1976.1200000000001,2.4076721196197814
249,1985.24,2.340199295622524
250,1994.4,2.306268393449839
251,2003.6100000000001,2.330476543557871
252,2012.85,2.2865124850343337
253,2026.81,2.3209748018104612
254,2036.1599999999999,2.2494888783045
255,2045.56,2.270797207079256
256,2055.0,2.2251763576785857
257,2064.49,2.221288360558632
258,2074.02,2.2641116852632517
259,2078.8,2.1984529432997766
260,2083.5899999999997,2.230759331792445
261,2093.21,2.1717848306023546
262,2102.87,2.1748736512368385
263,2112.58,2.1705176241520383
264,2127.22,2.165773611945914
265,2137.04,2.102125319878691
266,2146.9,2.0989511496360413
267,2156.81,2.121551331674109
268,2166.77,2.088823165992893
269,2176.77,2.0691200221362505
270,2186.8199999999997,2.0353212305603248
271,2187.7616199999998,2.037474080933242
272,2196.91,2.0614882579117655
273,2207.05,2.0323761386242314
274,2217.2400000000002,1.9934852035611175
275,2227.47,1.9558135358775406
276,2232.6099999999997,1.9946949941479621
277,2242.91,1.9541945443785735
278,2253.27,1.9239940956784893
279,2263.67,1.9393033143579412
280,2274.12,1.9502090172618143
281,2284.61,1.9598100875452231
282,2295.16,1.9166974588979366
283,2305.75,1.9074557976301865
284,2316.3900000000003,1.8707741205868567
285,2327.09,1.7219455446128316
286,2332.4500000000003,1.826843873470703
287,2343.22,1.813144515410867
288,2354.03,1.8406072247305665
289,2364.9,1.7961064351195708
290,2375.81,1.8018019128881115
291,2386.78,1.7642652917259567
292,2392.2799999999997,1.800694056412206
293,2403.33,1.765557970009124
294,2414.42,1.774093250985578
295,2425.56,1.7908453161864528
296,2436.76,1.756547082456632
297,2442.38,1.78986414928149
298,2453.65,1.7706649334658577
299,2464.98,1.7640970187195302
300,2476.35,1.7357360713527394
301,2487.78,1.7572460250552524
302,2493.52,1.7112951940187195
303,2505.0299999999997,1.7626545824803055
304,2510.8,1.7064258019784244
305,2511.88643,1.7111817671759915
306,2516.59,1.7326214334636714
307,2522.39,1.6984917535904533
308,2534.0299999999997,1.698318683637995
309,2545.73,1.678401748376503
310,2557.4799999999996,1.705873125357484
311,2563.38,1.69642826996921
312,2575.21,1.723640926538146
313,2587.1,1.713957017798049
314,2593.06,1.7091121971007421
315,2605.0299999999997,1.6834194679486008
316,2617.05,1.6753779510389313
317,2623.09,1.68807220992958
318,2635.19,1.6880401726078667
319,2647.36,1.7182127924256139
320,2653.46,1.7132118860072292
321,2665.71,1.6683417854129325
322,2678.01,1.686435097061108
323,2684.19,1.678079870230679
324,2696.58,1.6533110839153045
325,2702.79,1.659773624430359
326,2715.27,1.6367787401514342
327,2727.8,1.633232568114982
328,2734.09,1.657835288217992
329,2746.71,1.5899384182179896
330,2753.04,1.5911672281149776
331,2765.75,1.5999632601514255
332,2772.1200000000003,1.620701559842391
333,2784.92,1.607273493915289
334,2797.77,1.5079063402306594
335,2804.2200000000003,1.5422428195095803
336,2817.17,1.6029514903098954
337,2823.66,1.6044390593827944
338,2836.69,1.5680345097710646
339,2843.23,1.5581518910864358
340,2856.36,1.5526424659596507
341,2862.94,1.5749342370689998
342,2876.16,1.557977913978665
343,2882.79,1.5592889973304862
344,2884.0315,1.5578596533862603
345,2896.09,1.5458461220666444
346,2909.46,1.56866603002717
347,2929.6299999999997,1.5492284289474245
348,2949.9399999999996,1.5348094467992026
349,2970.38,1.5318382108016813
350,2990.97,1.5238858665165074
351,3011.71,1.52081871394368
352,3032.5800000000004,1.5144252075215534
353,3046.58,1.5040380006739364
354,3067.7,1.4926001137723883
355,3088.96,1.4860201458023639
356,3110.37,1.4711891695446864
357,3131.93,1.4596055849993559
358,3146.39,1.4556401260696028
359,3168.2,1.4423417610448503
360,3190.1600000000003,1.416369787732445
361,3212.27,1.4188852061323871
362,3227.1,1.4052259400930898
363,3249.47,1.4012952507944327
364,3272.0,1.3941539259889457
365,3287.1,1.3867047250318731
366,3309.88,1.3778768197469642
367,3311.31121,1.37836778744839
368,3325.16,1.3846241215704418
369,3332.83,1.3776687004308878
370,3340.5099999999998,1.3504624392376967
371,3348.2099999999996,1.373370197937232
372,3355.93,1.3492338765294927
373,3363.66,1.3455551150681169
374,3371.42,1.3251536334458298
375,3379.19,1.3489635117699064
376,3386.98,1.3689419099867086
377,3394.79,1.360349328096237
378,3402.6099999999997,1.3486730061521284
379,3410.46,1.324841464047109
380,3418.32,1.3411583818884525
381,3426.2,1.348391719622522
382,3434.1,1.3446018772493176
383,3442.0099999999998,1.3329607948224764
384,3449.95,1.3291801922347242
385,3457.8999999999996,1.306911149593335
386,3465.87,1.305890326844672
387,3473.8599999999997,1.3155572239887348
388,3481.8700000000003,1.3068732410255235
389,3489.9,1.3181718779550389
390,3497.94,1.312508274830917
391,3506.0099999999998,1.297674151545884
392,3514.09,1.2905733882072146
393,3522.19,1.3016762447612709
394,3530.31,1.294504221208053
395,3538.4500000000003,1.2995664175475614
396,3546.6,1.301604573833433
397,3554.78,1.3036473099583934
398,3562.97,1.301047106029717
399,3568.73,1.101411935134824
400,3571.4,1.0165527408137536
401,3574.0699999999997,1.2623590464926833
402,3576.74,1.572707152171613
403,3579.3999999999996,1.2720915979041796
404,3582.07,0.7836399035831092
405,3584.7400000000002,0.6107147962620388
406,3587.41,1.0315757149409688
407,3590.07,0.9893491606735352
408,3592.74,1.803139666352465
409,3595.41,1.8006707720313946
410,3598.0800000000004,1.413350077710324
411,3600.75,0.8495702833892538
412,3603.4100000000003,0.7552099291218204
413,3606.08,0.9982425348007502
414,3608.75,1.16356104047968
415,3611.42,1.5794972461586094
416,3614.08,0.7933401918911762
417,3616.7500000000005,0.9273574975701058
418,3619.42,0.7954276032490355
419,3622.09,0.9310350089279651
420,3624.76,1.0767822146068948
421,3627.42,0.5112668603394614
422,3630.09,1.176417166018391
423,3632.7599999999998,0.8481509716973209
424,3635.43,0.5672588073762507
425,3638.09,0.4072407231088171
426,3640.76,1.3771645287877468
427,3643.43,1.7817032344666766
428,3646.1,1.1533394401456063
429,3648.7599999999998,0.9440071858781729
430,3651.43,0.8462473915571025
431,3654.1,1.1892488972360322
432,3656.7699999999995,1.564981502914962
433,3659.44,1.4219094085938915
434,3662.1,1.279244454326458
435,3664.77,0.8803853600053878
436,3667.44,1.6563144656843174
437,3670.1099999999997,1.5483782713632472
438,3672.77,1.0977434170958138
439,3675.4399999999996,1.3038871227747437
440,3678.11,1.536472328453673
441,3680.78,1.6343626341326027
442,3683.45,0.8453249398115323
443,3686.11,1.274808685544099
444,3688.7799999999997,1.1518684912230288
445,3691.45,1.0137444969019584
446,3694.1200000000003,1.339257202580888
447,3696.78,1.5223709483134549
448,3699.4500000000003,0.9801030539923844
449,3702.12,1.1404536596713142
450,3704.79,1.0787512653502436
451,3707.46,1.0396647710291733
452,3710.12,1.1603777167617402
453,3712.7900000000004,1.3399790224406696
454,3715.46,1.4771723281195994
455,3718.13,0.997545733798529
456,3720.79,1.3104845795310958
457,3723.46,1.7561288852100252
458,3726.13,1.9062029908889548
459,3728.7999999999997,2.519632096567885
460,3731.4700000000003,2.2709912022468144
461,3734.13,2.032236947979381
462,3736.8,1.4124654536583106
463,3739.47,1.1811530593372404
464,3742.14,1.23685706501617
465,3744.7999999999997,1.2784849107487366
466,3747.47,1.4971483164276664
467,3750.1400000000003,1.490011922106596
468,3752.81,1.2538519277855258
469,3755.4700000000003,1.0891111735180923
470,3758.14,1.4548890791970222
471,3760.81,1.5465499848759516
472,3763.48,1.4268147905548814
473,3766.1499999999996,1.475547496233811
474,3768.8100000000004,1.1921186419663776
475,3771.48,0.9955213476453073
476,3774.15,1.291427553324237
477,3776.82,1.4498144590031665
478,3779.48,1.1706323047357332
479,3782.15,1.407024110414663
480,3784.8199999999997,1.5423544160935927
481,3787.4900000000002,1.3909088217725223
482,3790.1600000000003,1.236559027451452
483,3792.82,0.7603704731840186
484,3795.4900000000002,1.240081678862948
485,3798.16,1.567998684541878
486,3800.83,1.0560801902208077
487,3801.8939600000003,1.0095922762454572
488,3803.49,0.9399782438104207
489,3806.1600000000003,1.430618889840666
490,3808.8300000000004,1.530356835870911
491,3811.5,1.5866453819011563
492,3814.17,1.6338399279314018
493,3816.83,1.4659989483210842
494,3819.5,1.6024748943513294
495,3822.1699999999996,1.7332224403815748
496,3824.8399999999997,1.0722913864118202
497,3827.5,1.2732958068015028
498,3830.17,1.237378152831748
499,3832.84,1.3523203988619934
500,3835.5099999999998,1.1904626448922386
501,3838.18,1.1174462909224838
502,3840.8399999999997,1.3662668113121665
503,3843.5099999999998,1.537478557342412
504,3846.1800000000003,0.9229811033726569
505,3848.85,1.2648439494029025
506,3851.51,1.6607190697925849
507,3854.18,1.8156246158228302
508,3856.85,1.6013631618530755
509,3859.52,1.3084969078833208
510,3862.18,1.5664331282730033
511,3864.8500000000004,1.3865257743032484
512,3867.52,1.8133442203334937
513,3870.19,1.758275766363739
514,3872.86,1.6831553123939846
515,3875.52,1.715553732783667
516,3878.19,1.339974878813912
517,3880.8599999999997,1.7235238248441576
518,3883.53,1.623343370874403
519,3886.19,1.6286787912640852
520,3888.86,1.2755358372943308
521,3891.53,0.8573702833245759
522,3894.2,0.8167057293548212
523,3896.87,1.6231459753850666
524,3899.5299999999997,1.478662895774749
525,3902.2000000000003,1.5551639418049943
526,3904.87,1.0181092878352396
527,3907.54,1.376358233865485
528,3910.2,1.4381420542551675
529,3912.87,1.8610340002854129
530,3915.54,1.715862546315658
531,3918.2099999999996,1.6726930923459036
532,3920.88,1.6043436383761485
533,3923.54,1.5100796587658312
534,3926.21,1.7553086047960764
535,3928.88,1.8838921508263216
536,3931.5499999999997,1.230392996856567
537,3934.21,1.0047787172462495
538,3936.8799999999997,1.612585663276495
539,3939.55,1.05896440930674
540,3942.2200000000003,1.2357851553369854
541,3944.89,1.3354429013672307
542,3947.55,1.3075640217569133
543,3950.22,1.7365862677871586
544,3952.89,1.631357813817404
545,3955.5600000000004,1.704192359847649
546,3958.2200000000003,1.3493741802373318
547,3960.8900000000003,1.696045326267577
548,3963.56,1.6668178722978222
549,3966.23,1.3105508183280676
550,3968.9,1.401955364358313
551,3971.56,0.9585150847479954
552,3974.2300000000005,1.1732364307782406
553,3976.9,1.190783976808486
554,3979.57,1.0887214228387312
555,3982.23,1.6197914432284137
556,3984.9,1.5640219892586589
557,3987.5699999999997,1.3326730352889045
558,3990.24,1.4232363813191498
559,3992.8999999999996,1.692811501708832
560,3995.57,1.6153670477390776
561,3998.2400000000002,2.238977593769323
562,4000.91,1.5532471397995682
563,4003.58,1.5110988858298133
564,4006.24,1.513628906219496
565,4008.91,1.6309546522497413
566,4011.58,1.5130664982799864
567,4014.2499999999995,1.9124397443102317
568,4016.9100000000003,1.8086421646999145
569,4019.58,1.5980667107301598
570,4022.25,1.8287522567604049
571,4024.92,1.89301280279065
572,4027.5899999999997,1.6087403488208953
573,4030.25,1.460751569210578
574,4032.9199999999996,1.5545403152408235
575,4035.59,1.8255298612710686
576,4038.26,1.6369894073013138
577,4040.92,1.6011388276909964
578,4043.59,1.7666413737212416
579,4046.2599999999998,1.6807639197514868
580,4048.93,1.6212884657817321
581,4051.6000000000004,1.5597290118119775
582,4054.26,1.2109005322016602
583,4056.9300000000003,1.2982189782319054
584,4059.6,1.6818885242621506
585,4062.27,1.7332690702923959
586,4064.93,1.7590164906820784
587,4067.6,2.044310036712324
588,4070.2700000000004,1.5334365827425693
589,4072.94,1.4237009287728144
590,4075.6,1.3221047491624969
591,4078.27,1.636645095192742
592,4080.94,1.7890866412229876
593,4083.6099999999997,1.5530701872532329
594,4086.2799999999997,1.530773733283478
595,4088.9399999999996,1.7522731536731606
596,4091.61,1.5435796997034061
597,4094.28,1.5369882457336512
598,4096.95,1.6218227917638965
599,4099.610000000001,1.599093212153579
600,4102.28,1.4660801581838243
601,4104.95,1.3803430042140699
602,4107.62,1.2440056502443149
603,4110.29,1.1851317962745602
604,4112.95,1.3866173166642426
