,lambda (Angstroms),Total Flux (erg/s/cm^2/Angstrom)
0,100.08,129.81648987312883
1,101.94,129.45534678348858
2,104.08000000000001,129.0398380674491
3,104.712855,128.9169610728477
4,106.00999999999999,127.59399044610764
5,107.98,125.58476855142204
6,109.99,123.53475027331287
7,114.12,119.32252366210517
8,118.13000000000001,115.23268620236924
9,120.22644299999999,113.09450388864083
10,120.88,112.53565571921331
11,125.13,108.90153547087488
12,126.87,107.4136838880692
13,128.04,106.4132319618141
14,131.03,103.85652148414673
15,131.93,103.08694308698097
16,134.07999999999998,101.24850578865785
17,136.89,98.84571101039813
18,138.038426,97.86370673779057
19,140.07,96.62200406372006
20,143.01,94.82506955482712
21,147.01000000000002,92.38026107148518
22,151.13,89.86210787307063
23,155.01,87.49064329596852
24,158.489319,85.3640758997045
25,158.98,85.13734200407414
26,161.94,83.76958512600378
27,166.08999999999997,81.85195310717148
28,169.96,80.06370355018606
29,173.12,78.60353084117722
30,177.16,76.7367278427211
31,180.03000000000003,75.41055847505604
32,181.970086,74.51408369866702
33,182.11999999999998,74.46123559447074
34,185.92999999999998,73.11812385922127
35,191.14,71.28148031959451
36,193.8,70.34377009874903
37,197.86,68.91252798412324
38,202.0,67.45308429267726
39,204.81,66.46249590355
40,208.929613,65.01023872873157
41,210.07000000000002,64.70800019050604
42,215.95,63.14961681980626
43,219.97,62.084191241669366
44,223.03,61.27319541099203
45,227.17000000000002,60.17596655742269
46,229.8,59.47894959726162
47,234.08,58.34464434563442
48,239.88329199999998,56.80661340404529
49,240.08,56.76643946268632
50,246.24,55.50834990455275
51,251.97,54.338095825591175
52,257.25,53.259718658090975
53,260.23,52.65111825427116
54,263.84999999999997,51.91179860339073
55,268.75,50.91105258718902
56,273.75,49.88988208914035
57,275.42287,49.548225374868814
58,278.84,49.01262471173729
59,284.02,48.200711976054045
60,289.96999999999997,47.26810090579356
61,296.03999999999996,46.31669293550024
62,300.85,45.56277196945151
63,307.86,44.464028994767816
64,316.227766,43.152471181671054
65,317.95,42.95085230197649
66,328.35999999999996,41.732167049150505
67,338.34000000000003,40.563819995071604
68,347.82,39.45400759150328
69,356.73999999999995,38.40975533454277
70,363.078055,37.66777007897347
71,365.89000000000004,37.42124379049309
72,375.28,36.59800437427391
73,384.90999999999997,35.75371314551528
74,394.78,34.88840851791717
75,404.90999999999997,34.000301332992976
76,414.34,33.17355337200057
77,416.86938299999997,32.95179520155581
78,422.03999999999996,32.6056108521341
79,429.89,32.0800402296219
80,440.92,31.34157173478208
81,451.19,30.653975481414268
82,459.57,30.0929147576308
83,470.28000000000003,29.37586077305288
84,478.630092,28.81681358049545
85,480.13,28.739581802351022
86,490.18,28.22207399649575
87,500.44,27.69378268579067
88,506.24,27.395113645824445
89,512.1,27.093429748886845
90,520.42,26.665016416922885
91,530.1,26.166568071774424
92,539.95,25.659348098190403
93,549.5408739999999,25.165514862188175
94,549.99,25.147873963584082
95,560.22,24.74607443395673
96,570.63,24.337202649727725
97,579.9,23.973058464542532
98,589.33,23.602689024700307
99,600.28,23.172553606566346
100,610.0400000000001,22.789150157687754
101,619.95,22.400008170274457
102,630.02,22.004474713404132
103,630.957344,21.967656761479997
104,640.26,21.677994418787573
105,650.66,21.354199273470375
106,658.2,21.11944293620291
107,664.29,20.929851570409955
108,675.08,20.593864054699615
109,684.4699999999999,20.301440940964675
110,695.5899999999999,19.955384090960134
111,705.2700000000001,19.65390280033028
112,716.73,19.29722522993172
113,724.43596,19.05730770470946
114,726.6999999999999,19.0049879858899
115,735.1199999999999,18.810418013204405
116,745.34,18.574346628785662
117,755.71,18.334753768889154
118,764.46,18.132550396352563
119,775.0999999999999,17.88681858739607
120,785.88,17.63777166792699
121,794.98,17.427543874608933
122,804.1800000000001,17.215010847639032
123,815.37,16.95645488359738
124,824.81,16.738509601463054
125,831.763771,16.57739531342223
126,834.36,16.53239691186452
127,845.97,16.332490984845066
128,855.77,16.163260785005214
129,865.6800000000001,15.992301818253894
130,875.6999999999999,15.819455727591114
131,885.8399999999999,15.644633402297636
132,894.04,15.503206128533682
133,904.3900000000001,15.324340383136489
134,914.86,15.146282576108609
135,925.46,15.011441115730815
136,934.02,14.931350702074784
137,944.8299999999999,14.865541106593275
138,954.992586,14.805546398426747
139,955.78,14.801191784656577
140,964.62,14.660346227543105
141,975.79,14.144848052457418
142,984.82,14.20439868074535
143,993.93,14.113158666570722
144,1005.4399999999999,14.153655378519131
145,1014.7399999999999,14.005555079745909
146,1024.13,13.532129661952297
147,1035.99,13.432764444376982
148,1045.58,13.719306095426962
149,1055.25,13.55030167401437
150,1065.02,13.15821098702358
151,1074.87,13.15164882757022
152,1084.82,12.777965902538654
153,1094.85,12.882729705044522
154,1096.4782,12.850262985080612
155,1104.98,12.706783976019823
156,1115.21,12.512098288410867
157,1125.53,12.282465136688051
158,1135.94,12.406761620851368
159,1143.81,12.200091214450344
160,1154.4,12.140974470385936
161,1165.08,12.024401162207674
162,1175.86,11.533025082791788
163,1184.01,11.74560467692541
164,1194.97,11.228749069281797
165,1206.02,10.878050097524323
166,1214.38,10.713701742058937
167,1225.6200000000001,10.889933634949976
168,1234.12,11.19302437975192
169,1245.53,11.154447851538999
170,1254.17,10.952203096608264
171,1258.92541,10.809312264900608
172,1265.77,10.630845341840018
173,1274.5500000000002,10.915402919677947
174,1286.34,10.889503189007009
175,1295.26,10.403706912960804
176,1304.24,10.304151428107112
177,1316.3,10.553963457802489
178,1325.4299999999998,10.396037450930086
179,1334.61,10.098147103384774
180,1343.8700000000001,10.334358410762816
181,1356.3,10.165330919478697
182,1365.7,9.883797872972606
183,1375.17,9.885321149524447
184,1384.7,9.811241417268803
185,1394.3,9.543231008071094
186,1403.96,9.495931590065899
187,1413.7,9.415426826984056
188,1423.49,9.386183723229307
189,1433.36,9.272287274397913
190,1443.3000000000002,9.267964148624449
191,1445.43977,9.271966665311702
192,1446.6200000000001,9.27769101344251
193,1456.6499999999999,9.15791987596118
194,1463.3799999999999,8.983941341041008
195,1473.5200000000002,8.92466961680764
196,1483.73,8.900386791913885
197,1494.02,8.86592299483683
198,1504.37,8.709544968622296
199,1511.32,8.497264060198049
200,1518.29,8.551864808727972
201,1525.3,8.454594871166245
202,1535.8700000000001,8.210943971447637
203,1546.5200000000002,8.280137499545726
204,1553.66,8.169998632186138
205,1564.43,8.106823402009276
206,1575.27,8.110444871172028
207,1586.19,8.117287168151478
208,1593.51,8.090359213379463
209,1604.56,8.00374618056105
210,1615.6799999999998,7.94559304708225
211,1623.14,7.812329890989455
212,1634.39,7.83278142771279
213,1645.72,7.779215992252826
214,1653.3200000000002,7.616869634839256
215,1659.58691,7.644468775493537
216,1664.78,7.678054801524074
217,1672.46,7.465248138214431
218,1676.32,7.627980833478075
219,1684.05,7.677836987464593
220,1695.73,7.528766707847843
221,1703.55,7.431145732967451
222,1715.36,7.292284378320721
223,1723.2800000000002,7.25408103803265
224,1735.22,7.294429608355941
225,1743.23,7.229181139200961
226,1755.32,7.275293161412734
227,1763.42,7.105775563390845
228,1775.64,7.083403510572635
229,1783.84,7.076137547143069
230,1796.2,7.130862182754111
231,1804.5,7.084828853916867
232,1817.0,6.894573177957161
233,1825.39,6.894962720253007
234,1833.82,6.794822316385782
235,1846.5300000000002,6.625594673069951
236,1855.05,6.5797321403358175
237,1863.61,6.584608661438611
238,1876.53,6.653857050766658
239,1885.1899999999998,6.4955182064617745
240,1893.89,6.406759415993819
241,1905.46072,6.423738695868836
242,1907.0200000000002,6.428036436377423
243,1915.82,6.3411537111767045
244,1924.67,6.297576243219164
245,1933.55,6.30855072960753
246,1946.95,6.313195670779163
247,1955.9399999999998,6.201802323102521
248,1964.97,6.306740581220419
249,1974.04,6.317289445132862
250,1983.1499999999999,6.203989914839845
251,1996.9,6.118156656713722
252,2006.1100000000001,6.13643964090706
253,2015.37,6.045032882343579
254,2024.68,6.087311381023272
255,2034.02,5.9765278340488734
256,2043.4099999999999,6.0100735443176525
257,2052.84,5.915185860380974
258,2067.07,5.8648798717893555
259,2071.84,5.951498612788513
260,2076.61,5.868251353787669
261,2086.2,5.895082093029159
262,2095.83,5.784259438065192
263,2105.5,5.755403388895766
264,2115.22,5.739856596969518
265,2124.98,5.7272504108378115
266,2134.79,5.587096481949283
267,2144.65,5.598487810303933
268,2154.55,5.6199517444531235
269,2164.4900000000002,5.541556284396858
270,2174.48,5.4956830815837705
271,2184.52,5.43934613601386
272,2187.7616199999998,5.448373359585027
273,2194.6,5.475235484573048
274,2204.73,5.413417576887687
275,2214.91,5.319915094139714
276,2225.13,5.256464951341649
277,2235.4,5.324327233480972
278,2245.72,5.243738940557682
279,2256.09,5.156438072571778
280,2266.5,5.167160544535786
281,2276.96,5.17898844143718
282,2287.4700000000003,5.194618763275961
283,2292.75,5.111562636664046
284,2303.33,5.085638553415169
285,2313.96,4.993745895103679
286,2324.64,4.703530161729577
287,2335.37,4.852370253292861
288,2346.15,4.797565269793532
289,2356.98,4.861617211231591
290,2362.41,4.7519023594318375
291,2373.3199999999997,4.757659580769717
292,2384.27,4.657875842057504
293,2395.2799999999997,4.701985013270158
294,2406.33,4.632961224432719
295,2417.44,4.637691445520146
296,2423.0099999999998,4.693583283545077
297,2434.2,4.625616284532324
298,2445.4300000000003,4.665372725469479
299,2456.72,4.6243796763315
300,2462.38,4.599540179243727
301,2473.75,4.533199510005567
302,2485.17,4.530830365704794
303,2496.64,4.446418946341409
304,2502.4,4.5509607991284105
305,2511.88643,4.417235778488724
306,2513.95,4.389404773681365
307,2519.74,4.41116243867463
308,2525.5499999999997,4.356366666241273
309,2537.2099999999996,4.356820546521319
310,2543.06,4.32628659923472
311,2554.79,4.386837448521592
312,2566.59,4.3315169668152915
313,2572.5,4.387077507248831
314,2584.38,4.347689775836047
315,2596.31,4.308541750856711
316,2602.29,4.259924260297077
317,2614.3,4.225743285611257
318,2626.37,4.255531798645576
319,2632.4199999999996,4.29043257709277
320,2644.57,4.371879540420603
321,2656.78,4.387179891468575
322,2662.91,4.236647920209286
323,2675.2,4.276522821550775
324,2687.55,4.2490597106124
325,2693.7400000000002,4.184513027073248
326,2706.17,4.202995266428391
327,2712.4100000000003,4.125814589322685
328,2724.93,4.098459660258035
329,2737.51,4.1337294189135205
330,2743.82,3.9589895108146433
331,2756.49,3.9613449010503365
332,2762.8399999999997,3.9926097180982167
333,2775.59,4.020807758627425
334,2781.99,3.9450430821087545
335,2794.83,3.7326849542181697
336,2807.73,3.770106914047722
337,2814.2099999999996,3.9389292878225675
338,2827.2000000000003,3.9850243792323257
339,2833.71,3.93183929686724
340,2846.79,3.8812917198572054
341,2853.3599999999997,3.8204216252122567
342,2866.5299999999997,3.922048379782429
343,2873.1299999999997,3.9193720289975484
344,2884.0315,3.8876782494438773
345,2886.39,3.8820559533797168
346,2893.0499999999997,3.86629081481094
347,2913.1,3.952550309059589
348,2933.2999999999997,3.87544103892606
349,2946.83,3.8380934916534533
350,2967.2599999999998,3.8429727828005817
351,2987.8300000000004,3.8182878938576748
352,3008.54,3.8160938248247342
353,3029.3900000000003,3.78599557570176
354,3050.39,3.758217562196605
355,3071.54,3.7404347843092713
356,3092.83,3.7250818263319028
357,3107.1,3.706223041440543
358,3128.64,3.6623814761595415
359,3150.33,3.6387881464963607
360,3172.17,3.614978052451
361,3186.81,3.5288246487502635
362,3208.9,3.5511989474012697
363,3231.1400000000003,3.4560864816700962
364,3253.54,3.509891667264599
365,3268.56,3.53679806046234
366,3291.21,3.4962346387532093
367,3306.4,3.4760980989844805
368,3311.31121,3.4653985394174223
369,3321.67,3.4466332040289234
370,3329.32,3.486897245558061
371,3337.0,3.4502325460735888
372,3344.69,3.414298932917912
373,3352.3999999999996,3.389129492419828
374,3360.13,3.4254402245793356
375,3367.87,3.4075740430676404
376,3375.64,3.3033651205423338
377,3383.4199999999996,3.3126712843458233
378,3391.22,3.4087846208069053
379,3399.04,3.42806712992558
380,3406.8700000000003,3.3676487253730505
381,3414.7300000000005,3.3730975798069096
382,3422.6,3.427257520569566
383,3430.49,3.389774633989815
384,3438.3999999999996,3.395671920067656
385,3446.32,3.238444292474292
386,3454.27,3.3456989238673187
387,3462.23,3.252079641589141
388,3470.21,3.3069925319685556
389,3478.21,3.210429595005563
390,3486.23,3.266238830700163
391,3494.27,3.246069239052355
392,3502.3199999999997,3.2969957337333438
393,3510.39,3.2659694010719247
394,3518.4900000000002,3.2404173273968944
395,3526.6,3.21766134005066
396,3534.73,3.2790505253620195
397,3542.88,3.33084888333097
398,3551.04,3.3202063276287177
399,3559.23,3.2876670309128535
400,3567.43,3.2556408205257865
401,3575.66,3.1463078691251076
402,3583.8999999999996,3.114520004053226
403,3592.16,3.106640311638935
404,3600.4399999999996,3.2453407918822377
405,3608.74,3.1516094447831327
406,3617.0600000000004,3.1613102703416196
407,3625.3999999999996,3.2186442685577004
408,3633.7599999999998,3.207927439431373
409,3642.13,3.249165696633842
410,3650.53,3.165324212822699
411,3658.9500000000003,3.281320901669149
412,3664.5899999999997,3.1663475911102394
413,3667.33,3.2691652452004147
414,3670.07,3.360351899290589
415,3672.8100000000004,3.274979553380764
416,3675.55,3.1707602074709396
417,3678.29,3.1896598615611147
418,3681.03,3.252837515651289
419,3683.77,3.0814081697414646
420,3686.51,3.1283168238316392
421,3689.25,3.1762684779218144
422,3691.99,3.13336313201199
423,3694.73,3.1392327861021645
424,3697.47,3.2130254401923395
425,3700.21,3.265367094282514
426,3702.94,3.228730662043893
427,3705.6800000000003,3.175564316134068
428,3708.42,3.1337279702242435
429,3711.16,3.136360624314418
430,3713.9,3.184916278404593
431,3716.64,3.314343932494768
432,3719.38,3.416037586584943
433,3722.12,3.5102132406751183
434,3724.8599999999997,3.870325894765293
435,3727.6,4.260120548855468
436,3730.3399999999997,4.4174472029456435
437,3733.08,4.211423857035818
438,3735.82,3.806648511125993
439,3738.5600000000004,3.4692221652161677
440,3741.3,3.2819908193063423
441,3744.04,3.2317054733965174
442,3746.78,3.1960681274866927
443,3749.52,3.1651507815768682
444,3752.26,3.1573314356670426
445,3755.0,3.183089089757218
446,3757.74,3.239325743847393
447,3760.48,3.275371397937568
448,3763.22,3.313036052027743
449,3765.96,3.2739157061179176
450,3768.7,3.242202360208093
451,3771.43,3.2364009279694717
452,3774.17,3.172316582059646
453,3776.91,3.1963472361498213
454,3779.65,3.3606148902399964
455,3782.39,3.3769915443301715
456,3785.13,3.4365751984203463
457,3787.87,3.4488908525105213
458,3790.6099999999997,3.4136105066006968
459,3793.35,3.3192401606908715
460,3796.0899999999997,3.201414814781047
461,3798.8300000000004,3.162705468871221
462,3801.57,3.216829122961396
463,3801.8939600000003,3.2177275390121456
464,3804.3100000000004,3.225052379003933
465,3807.05,3.2372263861633743
466,3809.79,3.420198393322816
467,3812.53,3.467377400482258
468,3815.27,3.5054754076417
469,3818.01,3.4884334148011416
470,3820.75,3.3478604219605836
471,3823.49,3.353917429120025
472,3826.23,3.315450436279467
473,3828.97,3.182449443438909
474,3831.71,3.0718064505983502
475,3834.45,3.0615684577577924
476,3837.1899999999996,3.032346464917234
477,3839.93,3.0237264720766754
478,3842.66,3.1193098076771415
479,3845.4,3.2204768148365828
480,3848.14,3.360351821996025
481,3850.8799999999997,3.4609698291554665
482,3853.62,3.4679588363149083
483,3856.3599999999997,3.52635784347435
484,3859.1,3.6412968506337915
485,3861.84,3.6855948577932334
486,3864.5800000000004,3.721086864952675
487,3867.32,3.9542888721121168
488,3870.06,3.992222879271558
489,3872.8,3.9417128864310005
490,3875.54,3.807311893590442
491,3878.28,3.687121900749884
492,3881.02,3.5330519079093254
493,3883.7599999999998,3.4108049150687676
494,3886.5,3.355136922228209
495,3889.24,3.254122929387651
496,3891.98,3.2738419365470923
497,3894.72,3.281763943706534
498,3897.46,3.3246079508659756
499,3900.2,3.388410958025418
500,3902.9399999999996,3.41117396518486
501,3905.6800000000003,3.4671589723443006
502,3908.42,3.563880979503743
503,3911.15,3.544577315104209
504,3913.89,3.5817433222636503
505,3916.6299999999997,3.6028603294230925
506,3919.37,3.5460953365825336
507,3922.1099999999997,3.487492343741976
508,3924.85,3.4823843509014174
509,3927.59,3.334815358060859
510,3930.3300000000004,3.2950863652203006
511,3933.07,3.1550073723797425
512,3935.81,3.020607379539184
513,3938.55,3.042383386698626
514,3941.29,3.1536723938580677
515,3944.03,3.2755794010175094
516,3946.77,3.339739408176951
517,3949.5099999999998,3.3952294153363933
518,3952.25,3.4765074224958346
519,3954.99,3.5372934296552763
520,3957.73,3.514298436814718
521,3960.47,3.4879844439741596
522,3963.2099999999996,3.426418451133602
523,3965.95,3.2998644582930434
524,3968.69,3.196874465452485
525,3971.4300000000003,3.0820614726119264
526,3974.17,3.1036454797713686
527,3976.9100000000003,3.24705948693081
528,3979.65,3.334975494090252
529,3982.3799999999997,3.432645829690718
530,3985.12,3.5439078368501598
531,3987.8599999999997,3.6028278440096013
532,3990.6000000000004,3.6569478511690425
533,3993.34,3.743793858328485
534,3996.0800000000004,3.779615865487926
535,3998.82,3.773107872647368
536,4001.56,3.8182568798068095
537,4004.3,3.8257668869662513
538,4007.04,3.800768894125693
539,4009.78,3.8143699012851346
540,4012.52,3.8741959084445767
541,4015.2599999999998,3.896135915604019
542,4018.0,3.8824679227634604
543,4020.74,3.975623929922902
544,4023.48,3.9381449370823436
545,4026.22,3.9507309442417857
546,4028.9599999999996,3.9043619514012278
547,4031.7,3.866361958560669
548,4034.44,3.8116539657201107
549,4037.1800000000003,3.834855972879552
550,4039.92,3.8908139800389945
551,4042.6600000000003,3.8783529871984355
552,4045.4,3.854726994357878
553,4048.14,3.8197440015173196
554,4050.88,3.821411008676761
555,4053.61,3.850802344277227
556,4056.3500000000004,3.8076983514366685
557,4059.09,3.77973835859611
558,4061.8300000000004,3.749473365755552
559,4064.57,3.7062603729149934
560,4067.31,3.7533023800744356
561,4070.05,3.7506073872338774
562,4072.79,3.7953993943933186
563,4075.53,3.722531401552761
564,4078.27,3.7085074087122023
565,4081.0099999999998,3.6959374158716445
566,4083.75,3.6789774230310863
567,4086.49,3.649837430190528
568,4089.23,3.6373214373499696
569,4091.97,3.637617444509411
570,4094.7099999999996,3.5806604516688534
571,4097.45,3.478850458828295
572,4100.1900000000005,3.380497465987736
573,4102.93,3.399913473147178
574,4105.67,3.38059548030662
575,4108.41,3.406979487466062
576,4111.15,3.4075224946255034
577,4113.89,3.493600501784945
578,4116.63,3.527309508944387
579,4119.37,3.5268375161038286
580,4122.11,3.5998855232632705
581,4124.84,3.586699858863736
582,4127.58,3.5535538660231776
583,4130.32,3.5514908731826194
584,4133.06,3.5606198803420606
585,4135.8,3.556855887501503
586,4138.54,3.626611894660945
587,4141.28,3.691017901820387
588,4144.0199999999995,3.6558979089798287
589,4146.76,3.6623109161392695
590,4149.5,3.6269989232987117
591,4152.24,3.597391930458153
592,4154.98,3.534701937617595
593,4157.719999999999,3.5967219447770375
594,4160.46,3.6202259519364786
595,4163.2,3.6642219590959204
596,4165.9400000000005,3.6608139662553616
597,4168.68,3.6251729734148035
598,4171.42,3.6608569805742457
599,4174.16,3.6408519877336873
600,4176.9,3.6315189948931295
601,4179.64,3.6173580020525704
602,4182.38,3.662314009212012
603,4185.12,3.678246016371454
604,4187.86,3.652179023530896
605,4190.599999999999,3.715132030690338
606,4193.33,3.706198366290803
607,4196.07,3.688416373450245
608,4198.81,3.7079423806096865
609,4201.55,3.6767723877691285
610,4204.29,3.6650793949285703
611,4207.03,3.715385402088012
