,lambda (Angstroms),Total Flux (erg/s/cm^2/Angstrom)
0,100.05,5.243632857075152
1,101.91000000000001,5.22904598350936
2,104.05,5.2122632363919825
3,104.712855,5.207064859006338
4,105.98,5.154864809714425
5,107.95,5.073710642890118
6,109.96000000000001,4.990908677277474
7,114.09,4.820773293965492
8,118.1,4.655581313212037
9,120.22644299999999,4.5679825047722185
10,121.13000000000001,4.536775745761483
11,125.08999999999999,4.400006518220761
12,127.13000000000001,4.32954964488973
13,128.01,4.29915648698089
14,130.99,4.1962341967473105
15,131.9,4.16480492436642
16,134.04,4.090894290957618
17,136.85,3.9938434475918165
18,138.038426,3.9527979790432592
19,140.03,3.9036320733149243
20,142.97,3.831052764259856
21,146.97,3.7323057345314408
22,151.09,3.630595766422386
23,154.97,3.5348107721536084
24,158.489319,3.4479299310993596
25,158.94,3.439518572521422
26,161.9,3.384274189429276
27,166.05,3.3068201755732947
28,169.92,3.234592095808923
29,173.08,3.1756152125912
30,177.11,3.1004011464497654
31,179.98,3.046836941766281
32,181.970086,3.009695008636674
33,182.07000000000002,3.008272395400207
34,185.88,2.9540243649101443
35,191.09,2.8798427686963888
36,194.19,2.835704258098069
37,197.79999999999998,2.784304540006963
38,201.95000000000002,2.725216216439373
39,205.23,2.6785151239888942
40,208.929613,2.6258393668448066
41,210.01,2.614274538840132
42,215.89000000000001,2.551335370423688
43,219.89999999999998,2.508412382924941
44,222.96,2.475657961046893
45,227.10999999999999,2.4312368764175156
46,229.74,2.403105213989259
47,234.01000000000002,2.357440236715056
48,239.88329199999998,2.2946025283005795
49,240.01000000000002,2.293558037495308
50,246.17,2.2427492006851613
51,251.9,2.1955023302223124
52,257.18,2.1519303510136147
53,260.16,2.1273775517927964
54,263.78,2.097533293352743
55,269.3,2.052010236661831
56,274.31,2.010693559245624
57,275.42287,2.001516276234345
58,278.76,1.980398318444433
59,283.95,1.9475548116457617
60,289.89,1.9099531359097108
61,295.96,1.8715451699538472
62,300.77,1.841101107620782
63,307.78,1.7967436685447353
64,316.227766,1.7432894688477616
65,317.86,1.7355767300039622
66,328.27000000000004,1.6863789793145643
67,338.25,1.639212103699753
68,347.71999999999997,1.5944555645478224
69,356.64,1.5523001137029204
70,363.078055,1.5218754700808168
71,365.79,1.5122795965713876
72,375.18,1.479047246647182
73,384.8,1.444987536318976
74,394.67,1.4100720845168557
75,404.79,1.3742598479408221
76,414.22,1.3408829917767904
77,416.86938299999997,1.3315045980287759
78,421.92,1.3178531935238547
79,429.77000000000004,1.2966352705972193
80,440.79,1.2668575874504013
81,451.06,1.2390973443417967
82,460.51,1.2135505008403056
83,470.15000000000003,1.1874944642518002
84,478.630092,1.1645761722789243
85,479.99,1.1617500705894164
86,490.03999999999996,1.1408506613472464
87,500.31,1.1195093391310191
88,506.1,1.1074717896410529
89,511.96,1.0953402442866138
90,520.28,1.0780445379949866
91,529.95,1.0579376823170976
92,539.8,1.0374424608877078
93,549.5408739999999,1.0172051299193834
94,549.84,1.0167312154957453
95,560.06,1.0005545374617257
96,570.47,0.9840646180898915
97,579.74,0.9693509364449445
98,590.52,0.9522806442994717
99,600.12,0.9370431974888467
100,609.87,0.921540604548368
101,619.78,0.9059228801760457
102,629.85,0.8899565350718796
103,630.957344,0.888201520316144
104,640.0799999999999,0.8767430286415148
105,650.4799999999999,0.8636914982930138
106,658.01,0.8542296810281855
107,665.63,0.8446759238478416
108,674.89,0.8330409147625416
109,684.28,0.8212137474103857
110,695.4000000000001,0.8073265087377572
111,705.07,0.7951306334262185
112,716.53,0.7808193805171973
113,724.43596,0.770893092725026
114,726.5000000000001,0.7689706296912286
115,734.91,0.7611414649257067
116,745.13,0.7516612522272959
117,755.5000000000001,0.742019102396325
118,764.2500000000001,0.7338467339970005
119,774.88,0.7240280072695929
120,785.66,0.7140142004096252
121,794.7600000000001,0.7055670970343277
122,805.81,0.6952938199357525
123,815.1500000000001,0.6866105773483593
124,824.58,0.6779028076814303
125,831.763771,0.6710549274173434
126,834.13,0.6693572131744324
127,845.74,0.6615068906861833
128,855.5300000000001,0.6547163436457046
129,865.4399999999999,0.6478955274658126
130,875.46,0.6409981698247913
131,885.59,0.6340484037226413
132,895.85,0.6269736108027932
133,904.14,0.6212088405049823
134,914.61,0.614909420341161
135,925.2,0.622678504037926
136,935.91,0.6368885095952777
137,944.5699999999999,0.668391434200942
138,954.992586,0.6916318155038503
139,955.51,0.6927933499227943
140,964.35,0.7059390570308925
141,975.52,0.5933980857183877
142,984.54,0.6835586600300446
143,995.94,0.6797075162554201
144,1005.16,0.7214441619043642
145,1014.4599999999999,0.7054582840882233
146,1023.85,0.6042384848738614
147,1035.7,0.6472468541081334
148,1045.29,0.743170966231059
149,1054.96,0.7350442548888996
150,1064.72,0.6884854921485193
151,1074.57,0.7141955780099184
152,1084.51,0.6680668124730967
153,1094.55,0.7115925676049188
154,1096.4782,0.7089272362997981
155,1104.68,0.6986049872295581
156,1114.9,0.6874734183216031
157,1125.21,0.6631609359888226
158,1135.6299999999999,0.7027223594701446
159,1146.13,0.676936059907177
160,1154.08,0.6859247073809303
161,1164.76,0.6891881809683119
162,1175.53,0.6164947411308681
163,1183.68,0.672060180993898
164,1194.63,0.5980007143068035
165,1205.69,0.548872653433811
166,1214.05,0.4949485753055818
167,1225.28,0.5726576979634745
168,1233.77,0.6473060648882751
169,1245.19,0.666812650315981
170,1253.82,0.6536536519132754
171,1258.92541,0.6363318577956876
172,1265.4199999999998,0.6153392514886832
173,1274.19,0.6718724528376809
174,1285.9799999999998,0.6804587968404956
175,1294.8999999999999,0.6233169188511067
176,1303.8700000000001,0.6175278144155889
177,1315.9399999999998,0.665809770320082
178,1325.0600000000002,0.6515964865461776
179,1334.2399999999998,0.6201945910369189
180,1343.49,0.6589074985030795
181,1355.9199999999998,0.6458648839954446
182,1365.32,0.6161325121232188
183,1374.79,0.6247295432264124
184,1384.32,0.6247574625942516
185,1393.9099999999999,0.588914070226736
186,1403.5700000000002,0.59550458083464
187,1416.56,0.595709590130362
188,1426.3799999999999,0.5979135361106537
189,1436.27,0.592729385066365
190,1442.9,0.6039855383096779
191,1445.43977,0.6059650931694296
192,1446.22,0.606667123770223
193,1456.25,0.5980278994995053
194,1466.34,0.576579984555184
195,1476.51,0.5731469153793913
196,1483.32,0.5748805239253947
197,1493.6,0.5763075551813289
198,1503.96,0.561355232205792
199,1510.9,0.5347729776256542
200,1517.8700000000001,0.5476656777087148
201,1524.88,0.5395621506760395
202,1535.4499999999998,0.5100304103428904
203,1546.09,0.5265887975572037
204,1553.2299999999998,0.5125830073983877
205,1563.99,0.513182013265494
206,1574.8300000000002,0.5251141649011289
207,1585.75,0.5322059623052927
208,1596.74,0.5355495872569189
209,1604.11,0.5276768161826229
210,1615.23,0.5251623780081083
211,1626.43,0.5102036856021224
212,1633.94,0.5222689696227514
213,1645.26,0.5232306958695585
214,1656.67,0.5007027861059603
215,1659.58691,0.508646715940429
216,1664.31,0.5219032597110764
217,1671.9999999999998,0.49420380579106915
218,1675.8500000000001,0.5263380046737702
219,1683.5800000000002,0.5348700574954013
220,1695.26,0.5158712260538297
221,1703.08,0.5060836440441474
222,1714.88,0.4969021328274912
223,1726.77,0.49458598677952137
224,1734.7399999999998,0.5099885800509832
225,1746.77,0.5010792575987482
226,1754.83,0.5184471160388965
227,1766.99,0.4907409654969863
228,1775.15,0.5003076407912308
229,1783.34,0.5023380711417041
230,1795.71,0.5214495059933959
231,1803.99,0.5146212015125556
232,1816.5,0.49710475995998193
233,1824.88,0.49854187233323793
234,1833.31,0.4865912431335421
235,1846.0099999999998,0.46301768360375106
236,1854.54,0.46744727125815116
237,1863.09,0.4766573622833706
238,1876.01,0.48857923983259105
239,1884.6699999999998,0.47128349939731623
240,1893.3700000000001,0.4649722657036798
241,1905.46072,0.47175681035476386
242,1906.4900000000002,0.47238795682818097
243,1915.29,0.4664084299450947
244,1924.13,0.4582385920307216
245,1933.01,0.45136404308506184
246,1946.41,0.4769956476039986
247,1955.3999999999999,0.4630295933223003
248,1968.9499999999998,0.48514908147391167
249,1978.04,0.48773354961399634
250,1982.6,0.47682349204730623
251,1996.3400000000001,0.4686288528003055
252,2005.5600000000002,0.4691631600887083
253,2014.81,0.461716584103646
254,2024.1100000000001,0.4646621693294752
255,2033.46,0.4620981157661961
256,2042.84,0.47331117892945185
257,2057.0,0.45996737385394015
258,2066.5,0.4573810039233357
259,2076.04,0.47835832296144437
260,2085.62,0.49058053096826637
261,2095.25,0.4736315001859799
262,2104.92,0.46831835837240665
263,2114.63,0.47284910552754655
264,2124.39,0.4734523138935782
265,2134.2,0.4483292834705013
266,2144.05,0.4646935420161376
267,2153.95,0.4705774617726656
268,2163.89,0.45602867049790674
269,2173.88,0.4533151404340394
270,2183.91,0.4576917993388854
271,2187.7616199999998,0.4625014028686645
272,2193.9900000000002,0.4705665524476982
273,2204.12,0.46016724759105865
274,2214.29,0.4381194789442646
275,2224.51,0.4340868805597773
276,2234.78,0.46255455243759686
277,2245.1,0.4471387945777232
278,2255.46,0.42740227292769495
279,2265.87,0.42987952153997355
280,2276.33,0.44113634041455907
281,2286.84,0.45698102955145126
282,2297.39,0.43566655489818895
283,2302.69,0.4456269027027111
284,2313.32,0.4305007004691398
285,2323.99,0.3740965344454138
286,2334.7200000000003,0.399532172736456
287,2345.5,0.377778981289805
288,2356.32,0.4191116260529995
289,2367.2000000000003,0.37954477513096213
290,2372.66,0.3979548677748662
291,2383.6099999999997,0.36222025522005846
292,2394.61,0.38156131292755746
293,2405.66,0.3736816408973633
294,2416.77,0.3823714731819372
295,2422.34,0.41746774040291623
296,2433.52,0.40902201105471986
297,2444.75,0.4288830519688302
298,2456.04,0.42767369719770865
299,2467.3700000000003,0.4213498786364327
300,2473.06,0.40569805448694807
301,2484.48,0.39916234239782433
302,2495.9500000000003,0.3898960005710074
303,2507.47,0.4349852290064973
304,2511.88643,0.38967447751121964
305,2513.25,0.3757183871500748
306,2519.04,0.3691627733991877
307,2524.8500000000004,0.36378452022256347
308,2536.5,0.3776356547307096
309,2542.35,0.37907892270261123
310,2554.0800000000004,0.4172941995078088
311,2565.87,0.39841675803579535
312,2577.72,0.42316049828657043
313,2583.66,0.4158613888426552
314,2595.58,0.4073171911033505
315,2607.56,0.39239427508683455
316,2613.58,0.382914607939971
317,2625.6400000000003,0.41280603422050666
318,2637.76,0.44794494222383113
319,2643.84,0.5019971567997563
320,2656.04,0.5374984071001324
321,2662.1699999999996,0.46766492311171487
322,2674.45,0.4940091157091425
323,2686.7999999999997,0.5066159703164905
324,2692.9900000000002,0.4647753680508616
325,2705.42,0.4918989649552612
326,2717.91,0.4499099435824495
327,2724.18,0.44171148361387236
328,2736.75,0.4702314045381123
329,2743.06,0.3906690657180609
330,2755.72,0.415214809226484
331,2762.0699999999997,0.44379199155495846
332,2774.82,0.46560335764756455
333,2787.6299999999997,0.4103677054629595
334,2794.06,0.3183040300884856
335,2806.95,0.3387012202009322
336,2813.4199999999996,0.4555168659749841
337,2826.41,0.5093898589587451
338,2832.9300000000003,0.49694700616845433
339,2846.0,0.46829774144926706
340,2852.56,0.4230159098075021
341,2865.73,0.5089457479596294
342,2872.3399999999997,0.5349874177535218
343,2884.0315,0.5248232957098671
344,2885.59,0.5235013484286878
345,2892.24,0.5379234354588917
346,2912.29,0.6146306136477017
347,2932.48,0.5816667757739897
348,2952.81,0.5682325218377559
349,2973.27,0.58687736012918
350,2987.0,0.5937936777118414
351,3007.7,0.6044222170389422
352,3028.5499999999997,0.6129844320133407
353,3049.54,0.6253080309252173
354,3070.6800000000003,0.6429007054843915
355,3091.97,0.6485117556908637
356,3113.4,0.6709197898348138
357,3127.7700000000004,0.6533754768459461
358,3149.45,0.6604427037353926
359,3171.28,0.682145506272137
360,3193.2700000000004,0.636549176165999
361,3207.9999999999995,0.6740949647306461
362,3230.24,0.6253194273700045
363,3252.63,0.7169621656566608
364,3267.65,0.7743625138060837
365,3290.2999999999997,0.7692051365480561
366,3311.31121,0.761655014782601
367,3313.1,0.761038755444423
368,3320.74,0.7403128919876913
369,3328.4,0.7791064084695545
370,3336.0699999999997,0.8053482649207152
371,3343.76,0.7506664013104709
372,3351.47,0.7526308176388216
373,3359.19,0.8019695739364695
374,3366.94,0.7689471501420101
375,3374.7,0.6593426663168481
376,3382.48,0.7087963624302809
377,3390.2799999999997,0.7910106384823088
378,3398.09,0.7803170545036342
379,3405.92,0.7776396504635544
380,3413.78,0.7765390663313672
381,3421.65,0.8194004221684772
382,3429.53,0.7984077179748849
383,3437.44,0.8087854336891849
384,3445.36,0.6612285893727824
385,3453.31,0.8438094649642723
386,3461.27,0.7438463805250598
387,3469.25,0.7767845760244422
388,3477.24,0.7253868114931219
389,3485.26,0.7809578668696942
390,3493.29,0.7456714622155638
391,3501.35,0.777177277469326
392,3509.4199999999996,0.8085528326923855
393,3517.5099999999998,0.7485667678540401
394,3525.62,0.7707308829542896
395,3533.7400000000002,0.8442718380238364
396,3541.89,0.8824447130012758
397,3550.06,0.8904368679173101
398,3558.24,0.8442378628026419
399,3566.44,0.8715262376265687
400,3574.66,0.7321500923890902
401,3579.64,0.7971958970992311
402,3582.32,0.8358992088709536
403,3585.01,0.7922542606119733
404,3587.69,0.7744242723836958
405,3590.37,0.6642376841554183
406,3593.06,0.800075135896438
407,3595.7400000000002,0.9519627476681605
408,3598.42,0.9382183594398829
409,3601.1,0.9938652712116052
410,3603.79,0.9151285229526251
411,3606.47,0.9887342347243474
412,3609.1499999999996,0.7693307464960699
413,3611.83,0.8130638582677923
414,3614.52,0.8824025100088122
415,3617.2,0.8755062217805345
416,3619.8799999999997,0.8301891335522569
417,3622.5600000000004,0.7814711453239793
418,3625.25,0.7859172970649992
419,3627.93,0.6056193088367215
420,3630.61,0.6941018206084439
421,3633.2999999999997,0.7086316723494638
422,3635.9799999999996,0.7239091841211862
423,3638.6600000000003,0.7707947958929086
424,3641.34,0.800134807664631
425,3644.0299999999997,0.7918054594056508
426,3646.71,0.8702873711773732
427,3649.3900000000003,0.8773472829490956
428,3652.07,0.805829494720818
429,3654.76,0.8234288464618379
430,3657.44,0.8692755582335603
431,3660.12,1.0285194700052827
432,3662.7999999999997,0.755593081777005
433,3665.4900000000002,0.7114053335180248
434,3668.17,0.9644457452897472
435,3670.85,1.1184712570614697
436,3673.54,1.1725884088024896
437,3676.2200000000003,1.0507848205742119
438,3678.9,0.9038781323459343
439,3681.58,1.1266689441176567
440,3684.27,1.0258521958586766
441,3686.95,0.809259207630399
442,3689.6299999999997,0.9967933194021213
443,3692.31,0.7225445311738438
444,3695.0,0.6662779829148636
445,3697.68,0.7675831946865861
446,3700.3599999999997,0.6888511064583084
447,3703.0400000000004,0.7137161182300307
448,3705.73,0.8910798699710507
449,3708.41,0.7623561817427731
450,3711.09,0.7380910935144954
451,3713.7799999999997,0.8735387452555152
452,3716.4599999999996,1.0249541570272378
453,3719.1400000000003,1.08338766879896
454,3721.82,1.5451111805706825
455,3724.5099999999998,1.9946283323117022
456,3727.19,2.1447228440834247
457,3729.8700000000003,1.7076423558551472
458,3732.55,1.3759988676268695
459,3735.2400000000002,1.2391460193678894
460,3737.92,1.0204866311396117
461,3740.6,0.9506575429113342
462,3743.2799999999997,0.9448948546830565
463,3745.9700000000003,0.9540279064240763
464,3748.65,0.8293542181957988
465,3751.33,0.8895112299675212
466,3754.02,0.886176081708541
467,3756.7,1.1263703934802636
468,3759.38,0.9974698052519858
469,3762.06,0.8663018170237082
470,3764.75,1.0205225687647281
471,3767.43,0.8677122805364506
472,3770.1099999999997,0.8390195923081728
473,3772.79,0.9660533040798953
474,3775.48,0.9306139558209151
475,3778.16,1.0692541675926375
476,3780.8399999999997,1.1085952793643599
477,3783.5200000000004,1.2373887911360821
478,3786.21,1.0292909428771022
479,3788.89,0.9734772546488246
480,3791.57,0.8133224664205468
481,3794.2599999999998,0.8227629181615668
482,3796.9399999999996,0.9503513299332892
483,3799.6200000000003,0.9153536417050115
484,3801.8939600000003,0.9754633236648753
485,3802.3,0.9862007933313395
486,3804.99,0.9741205339524912
487,3807.67,1.1134856301847167
488,3810.35,1.0725296264169422
489,3813.03,1.2408346226491678
490,3815.7200000000003,1.1522778632703197
491,3818.4,1.092241359502545
492,3821.08,0.9546787557347708
493,3823.7599999999998,1.0665801519669962
494,3826.4500000000003,0.9083847925881481
495,3829.13,0.9704356888203736
496,3831.81,0.6680781850525992
497,3834.5,0.8168019256737509
498,3837.18,0.8634204219059765
499,3839.86,0.987045918138202
500,3842.54,0.9335743143704276
501,3845.23,1.1792465549915794
502,3847.91,1.1652940512238048
503,3850.5899999999997,1.0332808474560304
504,3853.2699999999995,1.102145043688256
505,3855.96,0.9545994843094078
506,3858.64,1.2888077805416334
507,3861.3199999999997,1.2179912767738588
508,3864.0099999999998,1.2722555173950107
509,3866.69,1.1935410136272362
510,3869.37,1.1768255098594618
511,3872.05,1.1684460060916873
512,3874.74,1.230821246712839
513,3877.4199999999996,1.1108397429450647
514,3880.1000000000004,1.11867223917729
515,3882.78,0.9870365354095157
516,3885.47,1.0794269760306676
517,3888.15,1.0558750722628931
518,3890.83,0.8951461684951186
519,3893.51,0.9879196647273442
520,3896.2000000000003,1.1012087053484958
521,3898.88,0.8653979015807214
522,3901.56,1.165081697812947
523,3904.25,1.1390209384340988
524,3906.9300000000003,1.2573454346663244
525,3909.61,1.1900249308985498
526,3912.29,1.4852104271307756
527,3914.98,1.2748496677519272
528,3917.66,1.2138221639841527
529,3920.34,1.1389796602163784
530,3923.02,1.1891401564486037
531,3925.71,1.1256273970697557
532,3928.39,1.0114193933019813
533,3931.0699999999997,0.9936766895342067
534,3933.7499999999995,0.9832190857664322
535,3936.44,0.8030744263875841
536,3939.12,1.0060682226198094
537,3941.7999999999997,1.112302118852035
538,3944.49,1.2077263594731869
539,3947.17,1.2697778557054125
540,3949.85,1.229093351937638
541,3952.53,1.3254918481698637
542,3955.22,1.2997970887910153
543,3957.8999999999996,1.1679965850232408
544,3960.5800000000004,0.9281709812554664
545,3963.26,0.9457436774876921
546,3965.95,0.9157049181088437
547,3968.63,0.7613167143410693
548,3971.31,0.9418532105732949
549,3973.9900000000002,0.8723472068055205
550,3976.6800000000003,1.1124115474266723
551,3979.36,1.1000290436588978
552,3982.04,1.2322275398911233
553,3984.73,1.3135647805122752
554,3987.4100000000003,1.2915372767445006
555,3990.09,1.2751757729767261
556,3992.77,1.3996762692089517
557,3995.46,1.2731465098301036
558,3998.14,1.3815890060623288
559,4000.8199999999997,1.3612135022945546
560,4003.5,1.34237299852678
561,4006.19,1.397675239147932
562,4008.87,1.4698687353801574
563,4011.5499999999997,1.331303231612383
564,4014.2299999999996,1.3070317278446086
565,4016.92,1.4433319684657604
566,4019.6,1.5269784646979858
567,4022.2799999999997,1.3963239609302114
568,4024.97,1.4321442015513632
569,4027.6499999999996,1.3656026977835887
570,4030.33,1.2389621940158144
571,4033.01,1.2265206902480397
572,4035.7,1.2658609308691915
573,4038.3799999999997,1.3509244271014171
574,4041.0600000000004,1.5017539233336425
575,4043.7400000000002,1.4139594195658682
576,4046.43,1.2514176601870202
577,4049.11,1.3082621564192456
578,4051.79,1.3674676526514713
579,4054.47,1.4368281488836967
580,4057.1600000000003,1.2753493895048484
581,4059.84,1.137868885737074
582,4062.52,1.3383843819692995
583,4065.21,1.3346506225904513
584,4067.8900000000003,1.2141141188226767
585,4070.57,1.4242516150549025
586,4073.25,1.4733041112871281
587,4075.94,1.2564493519082796
588,4078.62,1.3130568481405054
589,4081.2999999999997,1.2292523443727308
590,4083.98,1.3542488406049564
591,4086.67,1.2882910812261081
592,4089.35,1.2104135774583336
593,4092.0299999999997,1.2622990736905593
594,4094.7099999999996,1.2858465699227848
595,4097.4,1.1735928105439366
596,4100.08,1.1647413067761623
