,lambda (Angstroms),Total Flux (erg/s/cm^2/Angstrom)
0,102.00000000000001,112.80570536357041
1,103.9,112.48421388303363
2,104.712855,112.34667394580951
3,106.08,111.13153411531145
4,108.05,109.3805676581485
5,110.06,107.5940494495426
6,113.91999999999999,104.1632227430496
7,117.92999999999999,100.59907418463477
8,120.22644299999999,98.5579844277177
9,120.95,98.01881304738087
10,124.92,95.06046581128489
11,126.95,93.54775821465337
12,128.12,92.67590320056223
13,131.1,90.45527886951338
14,132.01,89.77718069653581
15,133.85,88.40605834876577
16,136.97,86.0811287778427
17,138.038426,85.28496482931861
18,140.16,84.15493508243725
19,143.09,82.59455581444419
20,147.10000000000002,80.4593225561107
21,150.87,78.45135788418621
22,155.1,76.19840390347781
23,158.489319,74.39322995288222
24,159.07999999999998,74.15539113361629
25,162.04,72.96353564405672
26,165.80999999999997,71.44557533846564
27,170.07000000000002,69.73026621363329
28,172.82999999999998,68.61897178519261
29,176.85,67.0003239347029
30,180.14,65.6755979637972
31,181.81,65.00319380795445
32,181.970086,64.93873548776908
33,186.04,63.688568412268594
34,190.82,62.22030898686999
35,193.92,61.268104462193065
36,197.98,60.020992153532326
37,202.12,58.749327932789576
38,204.93999999999997,57.88313308639961
39,208.929613,56.6575367147646
40,210.19,56.36644872027607
41,216.07999999999998,55.006499462840104
42,220.1,54.07824315430486
43,223.16,53.3715819552855
44,226.79000000000002,52.53342186977233
45,229.94,51.80828099351711
46,234.21999999999997,50.82418507930048
47,239.88329199999998,49.51875468045655
48,240.22000000000003,49.4589803362529
49,245.82,48.46160757351467
50,252.13,47.33948097148284
51,256.81,46.50435910726589
52,259.78999999999996,45.97586085727305
53,264.01,45.225496632316734
54,268.92,44.351628008469454
55,273.92,43.46170754781031
56,275.42287,43.19423058728094
57,279.01,42.70427130107579
58,284.2,41.995344022635656
59,290.15,41.18193624677463
60,296.21999999999997,40.35306932921555
61,301.03000000000003,39.695882749485875
62,308.05,38.73718512015067
63,316.227766,37.62036222692458
64,318.14000000000004,37.42532154416404
65,327.81,36.43869238555491
66,337.77000000000004,35.42234306610847
67,348.03000000000003,34.37535660372691
68,356.96,33.46412814035777
69,363.078055,32.839924987280085
70,366.10999999999996,32.60826084931969
71,374.64,31.95627577195811
72,385.14,31.153378432790877
73,395.02000000000004,30.398717636679226
74,405.15000000000003,29.62468113820646
75,413.63,28.976469849317112
76,416.86938299999997,28.728845092045823
77,422.29999999999995,28.41178033542637
78,430.15,27.953495948750163
79,441.17999999999995,27.309757730057342
80,451.46,26.709588454104292
81,459.84999999999997,26.21973193425545
82,469.47999999999996,25.65758616267686
83,478.630092,25.123575140016374
84,480.42,25.043229018921146
85,490.47,24.591765324613334
86,499.59000000000003,24.18248799936088
87,506.53999999999996,23.870297281904236
88,512.41,23.6076015762538
89,519.54,23.287471183496127
90,530.42,22.798918651966872
91,540.28,22.355935717143492
92,549.5408739999999,21.940469222213
93,550.3199999999999,21.913807103100925
94,560.55,21.5638732478955
95,569.6600000000001,21.252236810894384
96,580.25,20.88930847840901
97,589.68,20.566859540492384
98,600.64,20.191337746635938
99,610.4,19.856655774712685
100,620.3199999999999,19.518358865331674
101,630.4,19.1733237514929
102,630.957344,19.154240530822094
103,640.64,18.891408654821856
104,649.56,18.64967755840798
105,658.59,18.40478607345089
106,664.69,18.239515831508673
107,675.49,17.94624649544704
108,684.8799999999999,17.690985571621226
109,694.4100000000001,17.434071326013132
110,705.69,17.127275818126535
111,715.51,16.862080764540863
112,724.43596,16.620022543636953
113,725.47,16.5992125602279
114,735.56,16.3961524102369
115,745.7900000000001,16.191138301484873
116,754.43,16.017654995090197
117,764.9200000000001,15.80638453721055
118,775.56,15.593391201372668
119,784.54,15.413173292272646
120,795.46,15.19373618891271
121,804.67,15.008717938276723
122,815.86,14.78370095659195
123,825.31,14.594741925222777
124,831.763771,14.462124200077634
125,834.87,14.414095620288151
126,844.53,14.272949667350149
127,854.3100000000001,14.125984746301114
128,864.1999999999999,13.978423327816971
129,874.21,13.829087671221796
130,884.34,13.678440586515588
131,894.5699999999999,13.525623075050191
132,904.9300000000001,13.36896560479784
133,915.41,13.227464866434461
134,926.01,13.347043299960047
135,934.58,13.595373330697246
136,945.4,14.08738075935261
137,954.15,14.604635417923262
138,954.992586,14.59304321910011
139,965.1999999999999,14.455930730925397
140,974.13,12.57673035476524
141,985.4100000000001,13.511656595405045
142,994.53,13.677741372943613
143,1006.04,14.675938094376603
144,1015.35,14.552362825613887
145,1024.75,12.838727692813723
146,1034.23,13.177150014202496
147,1043.8,15.16661647155382
148,1055.89,14.909872735856586
149,1065.6599999999999,13.66076482868025
150,1075.52,14.231498057466462
151,1085.47,13.109593422215225
152,1095.51,14.174717922926542
153,1096.4782,14.144049502208675
154,1105.6499999999999,13.878016054138126
155,1115.88,13.485438843005594
156,1126.2,12.94036307869595
157,1134.01,13.981412186325956
158,1144.5,13.404150932681752
159,1155.09,13.612938508840752
160,1165.78,13.573721914802949
161,1173.8600000000001,12.001756362901595
162,1184.72,13.205483279529238
163,1195.6799999999998,11.546217025960082
164,1203.97,10.61730451664545
165,1215.11,10.273444156722057
166,1226.36,11.456680009582183
167,1234.86,12.996961542854276
168,1246.28,13.29351490637984
169,1254.9199999999998,12.834174801376419
170,1258.92541,12.43544507212324
171,1263.6200000000001,11.984366901256733
172,1275.31,13.275345424466536
173,1284.15,13.512836919348883
174,1296.03,11.872184711113846
175,1305.02,11.720768418013428
176,1314.06,12.991294195585422
177,1326.2199999999998,12.601967383115891
178,1335.4199999999998,11.7259773868396
179,1344.67,12.811289461235717
180,1353.99,12.528936634573217
181,1366.52,11.70748934507953
182,1375.99,11.939504730434262
183,1385.5300000000002,11.888861214730367
184,1395.14,11.155845797967851
185,1404.81,11.21546646601223
186,1414.55,11.168842232997983
187,1424.3500000000001,11.291354084790628
188,1434.22,11.121786035524652
189,1440.84,11.36771239255193
190,1445.43977,11.406397080383432
191,1447.4899999999998,11.428963566028056
192,1454.1699999999998,11.196835774251003
193,1464.25,10.677592471689223
194,1474.3999999999999,10.62632803508188
195,1484.6200000000001,10.701538464428964
196,1494.92,10.733554740581116
197,1505.28,10.364204901837066
198,1512.23,9.76748559302711
199,1515.71,10.082686929047448
200,1526.22,9.836565803062896
201,1533.26,9.226073321908638
202,1543.8899999999999,9.601979966131685
203,1554.5900000000001,9.32150147630916
204,1565.3700000000001,9.278481833291703
205,1576.22,9.44786105622868
206,1583.49,9.640187134638984
207,1594.47,9.64056610863419
208,1605.52,9.517606948583829
209,1616.65,9.476230635338531
210,1624.11,9.163724349910867
211,1635.37,9.381656787723802
212,1646.71,9.3725830723418
213,1654.31,8.969345518823001
214,1659.58691,9.110597880518752
215,1665.78,9.287511385732039
216,1673.47,8.711255335405749
217,1677.32,9.239965292004422
218,1685.07,9.46056202281993
219,1696.75,9.109555418423174
220,1704.58,8.890979857427746
221,1716.39,8.58438377883822
222,1724.32,8.53697285307912
223,1736.27,8.759964263820454
224,1744.28,8.625803046250418
225,1756.37,8.880021946322612
226,1764.48,8.444327363988906
227,1776.71,8.48418075339196
228,1784.91,8.52758084277095
229,1793.15,8.812969786244473
230,1805.58,8.719020446120187
231,1813.9099999999999,8.307535061306403
232,1826.49,8.347946174036611
233,1834.9199999999998,8.130564424459157
234,1843.39,7.779481528976236
235,1856.17,7.706537912179101
236,1864.73,7.792764688408877
237,1873.34,8.100000282256815
238,1886.33,7.7172428994559725
239,1895.03,7.552096165016607
240,1903.78,7.715180248195409
241,1905.46072,7.6879495093939845
242,1916.98,7.5142539059899685
243,1925.82,7.440879251065589
244,1934.71,7.501474570943672
245,1943.64,7.621731670663725
246,1957.12,7.352840477407996
247,1966.15,7.685792526732978
248,1975.23,7.749402550860424
249,1984.34,7.506038159869349
250,1993.5,7.372328743680737
251,2002.7,7.450724107334098
252,2016.5900000000001,7.247501907458571
253,2025.8899999999999,7.402534220716859
254,2035.2500000000002,7.1639647037381025
255,2044.64,7.302638771640825
256,2054.08,7.1070658143460115
257,2063.56,7.064900636893169
258,2073.08,7.296782239282297
259,2077.86,7.117761430397847
260,2082.65,7.260601816473889
261,2097.09,7.004364339425466
262,2106.77,6.96830406118248
263,2116.4900000000002,6.973336562781464
264,2126.26,6.985673039182911
265,2136.08,6.675493490386826
266,2145.94,6.762622721432708
267,2155.84,6.861484732320561
268,2165.79,6.70929171801088
269,2175.79,6.646007678503663
270,2185.83,6.5570354188384155
271,2187.7616199999998,6.580332156441322
272,2195.92,6.686857089568596
273,2206.06,6.566143208094914
274,2216.24,6.355207962197273
275,2226.4700000000003,6.226392510769682
276,2236.75,6.4388398538121425
277,2247.0699999999997,6.260235832430645
278,2257.44,6.072918605519197
279,2262.65,6.141925389298498
280,2273.09,6.2017882746451205
281,2283.58,6.270415954461795
282,2294.12,6.071209428748521
283,2304.71,6.041480697505296
284,2315.35,5.848611760732123
285,2326.04,5.178338618429001
286,2336.77,5.558847111701919
287,2347.56,5.458340558338898
288,2352.9700000000003,5.668791519998403
289,2363.83,5.3943170788934545
290,2374.74,5.4503824322585555
291,2385.71,5.238086738987718
292,2396.72,5.372889681292921
293,2402.24,5.254661390786539
294,2413.33,5.303320604243824
295,2424.47,5.453155612171159
296,2435.66,5.329500414568546
297,2446.9,5.454157011435981
298,2452.54,5.4057296276577205
299,2463.86,5.35031049567724
300,2475.24,5.222506317060821
301,2486.66,5.250211774020441
302,2492.39,5.1051658202882715
303,2503.9,5.358127707293983
304,2511.88643,5.110686330765305
305,2515.46,5.001865924249668
306,2527.07,4.942807460964381
307,2532.89,4.981517936733512
308,2544.5800000000004,4.9134382463110295
309,2556.33,5.089919385535652
310,2562.2200000000003,4.9863741625597395
311,2574.0499999999997,5.1182580746471675
312,2585.9300000000003,5.0495623447738485
313,2597.87,4.981879444547635
314,2603.85,4.880077466042379
315,2615.8700000000003,4.82443633867897
316,2627.95,4.926432040962667
317,2634.0099999999998,5.026546835320217
318,2646.1600000000003,5.244704838858868
319,2652.26,5.329013519647821
320,2664.5099999999998,4.97481323926498
321,2676.81,5.0908423169213926
322,2682.98,5.069873298965301
323,2695.36,4.91771414948452
324,2707.8,4.986398829650843
325,2714.04,4.818649112949706
326,2726.5699999999997,4.783429037586686
327,2732.8599999999997,4.898483678924803
328,2745.47,4.496791376424589
329,2758.14,4.534072903571479
330,2764.4999999999995,4.618901846164551
331,2777.2599999999998,4.707218617782098
332,2783.66,4.538291446806572
333,2796.5099999999998,4.092494462894776
334,2802.96,4.2040516499585046
335,2815.9,4.595559910517364
336,2822.3900000000003,4.751501984012496
337,2835.41,4.642053017434163
338,2841.95,4.560890448968548
339,2855.07,4.422870198468722
340,2868.25,4.683725777616001
341,2874.86,4.69233951040534
342,2884.0315,4.6493107467890535
343,2888.1299999999997,4.6319519127270645
344,2894.79,4.609041040439209
345,2908.15,4.845605428762669
346,2928.31,4.692893409945377
347,2948.6099999999997,4.616632856275188
348,2969.04,4.657589734527306
349,2989.62,4.63190611115132
350,3010.35,4.6476979861472305
351,3031.2099999999996,4.611100293065449
352,3052.23,4.579611131580355
353,3073.38,4.568910402017571
354,3087.57,4.5773625479988524
355,3108.97,4.545327649055894
356,3130.52,4.476597248484829
357,3152.22,4.454518346285661
358,3166.77,4.4363766883594895
359,3188.72,4.264067616780148
360,3210.83,4.335311076797492
361,3233.08,4.161441001961938
362,3248.0,4.319363573353109
363,3270.52,4.385006395586967
364,3293.1899999999996,4.324874716192721
365,3308.39,4.305865217878095
366,3311.31121,4.293288468427835
367,3323.66,4.244073106733359
368,3331.3199999999997,4.2783898523956925
369,3338.9999999999995,4.125128062145917
370,3346.7000000000003,4.279698735984033
371,3354.42,4.175086873910041
372,3362.1499999999996,4.060324243879993
373,3369.9,4.072411077937836
374,3377.6699999999996,4.099136376083573
375,3385.45,4.136318906273253
376,3393.26,4.2413381325947705
377,3401.0800000000004,4.3909865909602335
378,3408.9199999999996,4.144614513413588
379,3416.7799999999997,4.132257899954834
380,3424.65,4.2648715185400246
381,3432.5499999999997,4.3334628332570535
382,3440.46,4.218254380018027
383,3448.39,4.019241390866892
384,3456.34,4.055661865803647
385,3464.31,3.938220804828295
386,3472.2999999999997,4.146711207940833
387,3480.3,3.9563788430973172
388,3488.3199999999997,4.055790942341693
389,3496.36,4.013811505673959
390,3504.4199999999996,4.1066385330941175
391,3512.5,4.023590024602166
392,3520.6,4.127606980198106
393,3528.7200000000003,3.8838153998819376
394,3536.8500000000004,4.071295051609714
395,3545.0,4.162801167425383
396,3553.1800000000003,4.176410979372887
397,3561.37,4.110436023364338
398,3569.58,3.89810253144368
399,3577.81,3.862065503610913
400,3586.05,3.7274197078220914
401,3594.3199999999997,3.8943366081651067
402,3602.61,4.092920972596013
403,3610.91,3.8934635690708657
404,3619.2400000000002,3.9946528616775545
405,3627.5800000000004,4.09068538632819
406,3635.9399999999996,3.8417293750667154
407,3643.5099999999998,4.200026032333539
408,3646.19,4.078727220110961
409,3648.8599999999997,4.245170175844437
410,3651.53,4.358250131577914
411,3654.21,3.7315683193553357
412,3656.88,4.0047362750888125
413,3659.5499999999997,4.250130230822289
414,3662.22,4.189548186555766
415,3664.8999999999996,3.940616374333188
416,3667.57,4.092235330066664
417,3670.2400000000002,3.90854528580014
418,3672.91,3.7858622415336174
419,3675.59,4.174316429311039
420,3678.2599999999998,4.073010385044516
421,3680.93,3.8226943407779927
422,3683.61,3.9022085285554144
423,3686.28,4.107033484288891
424,3688.95,4.091076440022368
425,3691.62,3.943116395755845
426,3694.2999999999997,3.8726845835332666
427,3696.97,4.041935539266744
428,3699.6400000000003,4.1767044950002195
429,3702.31,3.8772384507336963
430,3704.9900000000002,3.944269638511118
431,3707.66,3.8144095942445952
432,3710.33,3.8059415499780718
433,3713.0,4.0118595057115485
434,3715.6800000000003,4.01788269348897
435,3718.3500000000004,3.8064186492224468
436,3721.02,4.7935836049559235
437,3723.7,5.567897792733346
438,3726.37,6.7501007484668225
439,3729.04,7.589663704200299
440,3731.7099999999996,6.534233659933776
441,3734.3900000000003,5.498742847711197
442,3737.06,4.868026803444674
443,3739.73,4.13760575917815
444,3742.4,4.003532714911627
445,3745.08,4.17182690268905
446,3747.7500000000005,3.9444478584225253
447,3750.42,3.766374814156002
448,3753.1,3.6031050019334248
449,3755.77,4.142303957666901
450,3758.44,4.086870913400378
451,3761.1099999999997,4.069040869133855
452,3763.79,4.317379056911276
453,3766.4599999999996,3.9709490126447533
454,3769.13,4.200115968378229
455,3771.8,3.9131329241117063
456,3774.48,4.065200111889128
457,3777.15,4.310127067622605
458,3779.8199999999997,4.362511023356082
459,3782.4999999999995,4.729742211133504
460,3785.17,4.83049716686698
461,3787.84,4.472209122600456
462,3790.51,4.372932078333933
463,3793.19,4.137886266111355
464,3795.8599999999997,4.1178722218448325
465,3798.5299999999997,3.7964061775783087
466,3801.2000000000003,4.152583133311785
467,3801.8939600000003,4.1106692926364135
468,3803.88,3.9911637637181645
469,3806.55,4.1441652540729566
470,3809.22,4.378458744427748
471,3811.89,4.64598723478254
472,3814.5699999999997,4.3833022101199335
473,3817.2400000000002,4.475452700474725
474,3819.9100000000003,4.5585531908295165
475,3822.59,4.18664716616691
476,3825.2599999999998,3.8893446565217022
477,3827.93,3.911280146876494
478,3830.6,3.8650296372312853
479,3833.28,4.002254612568679
480,3835.9500000000003,3.8110521029234707
481,3838.62,3.891342593278263
482,3841.29,3.9427680836330543
483,3843.97,4.128050058970448
484,3846.64,4.05215354932524
485,3849.3100000000004,4.576977039680031
486,3851.9900000000002,4.387783015017424
487,3854.66,4.881087505372217
488,3857.33,4.810809995727008
489,3860.0,4.7269574860818
490,3862.68,5.385944461419194
491,3865.3500000000004,5.272290951773986
492,3868.02,5.526246442128777
493,3870.69,5.662866932483569
494,3873.37,5.356177907820963
495,3876.04,4.978676398175754
496,3878.71,4.829603888530546
497,3881.3799999999997,4.393121378885337
498,3884.06,4.390852354222731
499,3886.73,3.8868088445775233
500,3889.4,4.217373334932314
501,3892.08,4.359589310269708
502,3894.75,4.2130118006245
503,3897.4199999999996,4.442313290979292
504,3900.09,4.391225781334083
505,3902.77,4.682762756671477
506,3905.44,4.959341247026269
507,3908.11,4.93399973738106
508,3910.7799999999997,5.014137227735851
509,3913.4600000000005,5.302394203073246
510,3916.13,5.340090693428038
511,3918.8,4.868814183782829
512,3921.48,4.907736159120223
513,3924.15,4.739471649475014
514,3926.8199999999997,4.669506139829807
515,3929.49,4.493594630184598
516,3932.1699999999996,4.6685766055219915
517,3934.84,4.351146095876783
518,3937.51,4.494941586231574
519,3940.18,4.3471170765863665
520,3942.86,4.514453051923761
521,3945.5299999999997,4.839869542278552
522,3948.2,4.953864032633343
523,3950.8700000000003,4.867982522988134
524,3953.55,4.939671498325529
525,3956.22,4.819619988680321
526,3958.89,4.644957479035113
527,3961.5699999999997,4.304102454372506
528,3964.24,4.341016944727298
529,3966.9100000000003,4.246085435082089
530,3969.58,4.341979925436881
531,3972.26,4.144829900774274
532,3974.93,4.167701391129066
533,3977.6,4.273425881483858
534,3980.27,4.256509371838649
535,3982.9500000000003,4.554289347176043
536,3985.6200000000003,4.764397837530836
537,3988.29,4.795540327885627
538,3990.97,5.031216303223021
539,3993.64,4.997918793577813
540,3996.31,4.871157283932604
541,3998.9799999999996,4.949109774287396
542,4001.6600000000003,4.965562749624789
543,4004.33,4.998889239979581
544,4007.0,4.935008730334372
545,4009.67,5.044011220689164
546,4012.35,4.736232196026558
547,4015.0200000000004,4.92012868638135
548,4017.69,4.9667181767361415
549,4020.36,5.125650667090933
550,4023.04,5.267083642428327
551,4025.71,5.193685132783118
552,4028.3799999999997,4.94990162313791
553,4031.0600000000004,4.941701598475303
554,4033.73,5.0020220888300955
555,4036.4,5.056101579184887
556,4039.07,4.912021069539678
557,4041.75,4.794912044877073
558,4044.42,4.958680535231864
559,4047.0899999999997,4.914616025586656
560,4049.76,4.944198515941447
561,4052.44,4.971105491278841
562,4055.11,5.246123981633633
563,4057.78,5.101420471988424
564,4060.46,5.034396447325818
565,4063.1299999999997,5.24965493768061
566,4065.8,5.264570428035402
567,4068.4700000000003,5.267003918390193
568,4071.15,5.026942893727587
569,4073.82,5.130014384082379
570,4076.49,5.126674874437171
571,4079.16,5.156569364791962
572,4081.8399999999997,5.2262273401293555
573,4084.51,5.074190830484148
574,4087.1800000000003,5.137007320838939
575,4089.85,5.264265811193731
576,4092.5299999999997,5.123282786531125
577,4095.2,4.8529742768859165
578,4097.87,4.891449767240708
579,4100.55,4.6509217425781015
580,4103.22,4.657410232932893
581,4105.889999999999,4.671232723287686
582,4108.56,4.808164213642476
583,4111.24,4.811511188979871
584,4113.91,4.767290679334662
585,4116.58,4.790007169689454
586,4119.25,4.860157660044246
587,4121.929999999999,5.27324063538164
588,4124.6,5.143516125736431
589,4127.27,4.998343616091222
590,4129.95,4.928511591428617
591,4132.62,5.115841081783408
592,4135.29,5.0274635721382
593,4137.96,5.053769062492991
594,4140.64,5.152138037830385
595,4143.31,5.127577528185176
596,4145.9800000000005,5.0081510185399685
597,4148.65,5.14913950889476
598,4151.33,5.101619484232154
599,4154.0,5.104052974586946
600,4156.67,5.151890464941737
601,4159.35,5.139789440279131
602,4162.02,5.087455930633922
603,4164.69,4.904992420988714
604,4167.36,4.9923059113435055
605,4170.04,5.061496886680899
