,lambda (Angstroms),Total Flux (erg/s/cm^2/Angstrom)
0,100.05999999999999,66.29734648368232
1,101.92,66.11291604358695
2,104.05,65.90171344283264
3,104.712855,65.83598729263416
4,105.99000000000001,65.17078279536686
5,107.96,64.14470285956006
6,109.97,63.0977888133829
7,114.09,60.95187544510054
8,118.1,58.863255880345406
9,120.22644299999999,57.75569217637869
10,121.13000000000001,57.36112658211962
11,125.10000000000001,55.62750556071171
12,127.13000000000001,54.741044433905344
13,128.01,54.35676571884985
14,131.0,53.05109144836612
15,131.9,52.65807912621989
16,134.05,51.719216356507495
17,136.85,50.49651135428433
18,138.038426,49.97754906319734
19,140.04000000000002,49.35279380637334
20,142.97,48.43824710589017
21,146.98,47.18659787235395
22,151.1,45.900614116813585
23,154.97,44.69266335815046
24,158.489319,43.59417135592057
25,158.95,43.48546100586848
26,161.9,42.789327386400544
27,166.06,41.807660996876166
28,169.93,40.89442808490129
29,173.08,40.151098972832145
30,177.11999999999998,39.197749893382564
31,179.99,38.520494487441674
32,181.970086,38.053238756965946
33,182.07999999999998,38.03345112678438
34,185.89000000000001,37.347543325307974
35,191.1,36.40959591783149
36,194.2,35.85150821802269
37,197.81,35.20160610178134
38,201.95999999999998,34.45448871557343
39,204.76999999999998,33.94860924592885
40,208.929613,33.19976124882051
41,210.02,33.052179723396215
42,215.9,32.25633452242784
43,219.92000000000002,31.712236277897336
44,222.98,31.298071940321016
45,227.12,30.737731995125717
46,229.75,30.381767981227124
47,234.01999999999998,29.803834258389212
48,239.88329199999998,29.01025191210584
49,240.03,28.99495027192708
50,246.18,28.35350423514736
51,251.92,27.754822176507556
52,257.19,27.205159460340084
53,260.16999999999996,26.894346356439907
54,263.79,26.516780739509162
55,268.69,26.005710626834333
56,273.69,25.484210534138786
57,275.42287,25.303472175175774
58,278.78,25.03474886185797
59,283.96000000000004,24.620113059983776
60,289.90999999999997,24.143841616701796
61,295.98,23.65796572457821
62,300.79,23.272946747856462
63,307.79,22.71262885764295
64,316.227766,22.037224704249756
65,317.88,21.93844433605051
66,328.28999999999996,21.316072417144884
67,338.27000000000004,20.719408633277858
68,347.74,20.15323608901987
69,356.66,19.619946280206136
70,363.078055,19.236237911924732
71,365.81,19.113920382825256
72,375.2,18.693500412866396
73,384.82000000000005,18.26278121622798
74,394.69,17.82087325975877
75,404.82,17.367323099273108
76,414.24999999999994,16.94511271503172
77,416.86938299999997,16.827834736827768
78,421.95000000000005,16.654121192335236
79,429.79,16.386060739277124
80,440.82000000000005,16.008931371057738
81,451.09000000000003,15.657785830908379
82,459.47,15.371261989079986
83,470.17,15.005414303115218
84,478.630092,14.716153789784736
85,480.02000000000004,14.679604798680373
86,490.07,14.415326629131508
87,500.33,14.145530981275053
88,506.13,13.993013496870237
89,511.99,13.83894193203468
90,520.3100000000001,13.6201602083388
91,529.98,13.365878617751287
92,539.83,13.106856911271551
93,549.5408739999999,12.851515670113663
94,549.87,12.844914039175759
95,560.09,12.6399213144834
96,570.5,12.431115022648912
97,579.77,12.245157556767193
98,590.5500000000001,12.028940600519086
99,600.15,11.836371742206302
100,609.9,11.640800045433945
101,619.8100000000001,11.44206050503137
102,629.88,11.240079563798586
103,630.957344,11.21846956045309
104,640.12,11.072775197464987
105,650.52,10.907434882766625
106,658.0500000000001,10.787718528705408
107,665.67,10.666574274873343
108,674.93,10.519333711505766
109,684.32,10.370014646746956
110,695.4399999999999,10.19331533278179
111,705.11,10.039524592980335
112,716.5699999999999,9.85741310929195
113,724.43596,9.732361321718626
114,726.54,9.707534520837454
115,734.95,9.608308427271325
116,745.1800000000001,9.487673109698138
117,755.54,9.365463960288734
118,764.29,9.262247364274032
119,774.9200000000001,9.136909651320172
120,785.7,9.00978069428606
121,794.8,8.902454350750775
122,805.86,8.771997231300192
123,815.1899999999999,8.661952101708518
124,824.63,8.550718761524658
125,831.763771,8.466293184426128
126,834.1800000000001,8.444900613207668
127,845.78,8.343019432816302
128,855.5799999999999,8.256654775468425
129,865.48,8.169513073729238
130,875.51,8.081237827981358
131,885.64,7.9921417498421725
132,895.9,7.901832134694292
133,904.1899999999999,7.828744040755116
134,914.6600000000001,7.738275763285494
135,925.25,7.676839623346307
136,935.96,7.630126260937553
137,944.62,7.637103464050551
138,954.992586,7.618279420312765
139,955.5600000000001,7.617357831062765
140,964.4,7.577994082834525
141,975.57,7.243561542595899
142,984.6,7.368349132358228
143,995.9999999999999,7.2906411117923975
144,1005.22,7.345599739545294
145,1014.52,7.2552608306626425
146,1023.9,6.948777085144441
147,1035.76,6.958074603924198
148,1045.34,7.150878366817123
149,1055.02,7.066047633915609
150,1064.78,6.868166164378546
151,1074.63,6.879211928626489
152,1084.57,6.682449226659441
153,1094.6100000000001,6.748958328897952
154,1096.4782,6.729928551577039
155,1104.74,6.658699891188634
156,1114.96,6.56993010361625
157,1125.28,6.447892091312239
158,1135.69,6.523112936749762
159,1146.2,6.393468857455656
160,1154.14,6.385315973764392
161,1164.82,6.33986969242652
162,1175.6,6.06020428635702
163,1183.75,6.199923370729334
164,1194.7,5.912575762616067
165,1205.76,5.705615347298008
166,1214.1100000000001,5.538238882207066
167,1225.3500000000001,5.704294882372077
168,1233.84,5.90301616265686
169,1245.26,5.908070278304938
170,1253.89,5.818001303965439
171,1258.92541,5.734989197749932
172,1265.49,5.64008978929767
173,1274.2600000000002,5.811776398871329
174,1286.05,5.806760924170468
175,1294.97,5.5659155083662535
176,1303.94,5.5173106507694145
177,1316.01,5.660109902029856
178,1325.1299999999999,5.5801372190551435
179,1334.32,5.433427117570758
180,1343.57,5.5587646859352216
181,1356.0,5.471668056288766
182,1365.3999999999999,5.3245599992753565
183,1374.86,5.333748012110797
184,1384.39,5.3047816064365625
185,1393.99,5.143968882252655
186,1403.6499999999999,5.135767927917599
187,1413.3799999999999,5.106704155072868
188,1426.46,5.075845782122292
189,1436.3500000000001,5.0260010955411625
190,1442.98,5.051123113839151
191,1445.43977,5.053791345619753
192,1446.3000000000002,5.056033464075888
193,1456.3300000000002,4.998195979882381
194,1466.4199999999998,4.891820065673761
195,1476.5900000000001,4.86018597811165
196,1483.4,4.859387171396019
197,1493.69,4.849097423803678
198,1504.0400000000002,4.76574004619622
199,1510.98,4.642993807781172
200,1517.9599999999998,4.682063382689381
201,1524.96,4.633734414259217
202,1535.53,4.489143559929668
203,1546.18,4.539861432246633
204,1553.31,4.472158532117052
205,1564.08,4.450690744403786
206,1574.9199999999998,4.473749555006218
207,1585.84,4.484295792255162
208,1596.83,4.473312527819804
209,1604.2,4.43238590762976
210,1615.3200000000002,4.403949611494984
211,1626.52,4.316408242006722
212,1634.03,4.3554922184480755
213,1645.35,4.337842988929581
214,1656.76,4.222362214388414
215,1659.58691,4.2478465285820555
216,1664.4,4.296308083988205
217,1672.09,4.167269777390916
218,1675.9399999999998,4.281691807247931
219,1683.6799999999998,4.312523332207228
220,1695.35,4.220059617514074
221,1703.17,4.1670600729639045
222,1714.98,4.094763786629188
223,1726.8700000000001,4.067565730785007
224,1734.84,4.115918480904592
225,1746.8600000000001,4.06833538710753
226,1754.93,4.122504300340285
227,1763.03,4.012979812506991
228,1775.2499999999998,4.018662444936268
229,1783.44,4.019192653904826
230,1795.8,4.070982414692539
231,1804.0900000000001,4.043036086774267
232,1816.6,3.935185342231734
233,1824.98,3.940398311115313
234,1833.41,3.879960611555477
235,1846.12,3.769615093239284
236,1854.6399999999999,3.7613506904813
237,1863.2,3.777254752968583
238,1876.11,3.826403260878728
239,1884.77,3.728601586479181
240,1893.4699999999998,3.676446877324902
241,1905.46072,3.6997438205067654
242,1906.6,3.7027071846590207
243,1915.3999999999999,3.657431339695802
244,1924.24,3.6260318868009325
245,1933.1200000000001,3.6277022259744114
246,1946.52,3.668017468871329
247,1955.51,3.593987736232769
248,1969.06,3.6710642993859945
249,1978.1499999999999,3.6822770469183057
250,1982.71,3.619476342710092
251,1996.4499999999998,3.570769918187977
252,2005.6699999999998,3.582881989942423
253,2014.93,3.5326738537652176
254,2024.23,3.5640385096563616
255,2033.5700000000002,3.503762957615855
256,2042.96,3.5351711456607844
257,2057.12,3.4683555378563327
258,2066.61,3.4559932060721343
259,2076.15,3.5181486143733722
260,2085.73,3.5060268147429596
261,2095.36,3.430720755197983
262,2105.0299999999997,3.4181834877213557
263,2114.75,3.4180209603301637
264,2124.51,3.4180772250073215
265,2134.32,3.3171592297699153
266,2144.17,3.342611026600858
267,2154.0699999999997,3.3647035635172378
268,2164.01,3.3117048925019654
269,2174.0,3.28875996157213
270,2184.03,3.265762822710643
271,2187.7616199999998,3.2794156657185107
272,2194.11,3.306349204518671
273,2204.2400000000002,3.2635923913975895
274,2214.42,3.192914513058734
275,2224.64,3.152935282545659
276,2234.9,3.227248199858364
277,2245.22,3.16627033890974
278,2255.58,3.1074136257868967
279,2266.0,3.118237634402724
280,2276.46,3.1416117908443315
281,2286.96,3.1687360951117203
282,2297.52,3.092962121117779
283,2302.81,3.098667421077254
284,2313.44,3.039345955778429
285,2324.12,2.81509832526183
286,2334.85,2.9371669295274563
287,2345.63,2.8851536685753083
288,2356.45,2.9705901554489413
289,2367.33,2.863574764061245
290,2372.79,2.8966565422802866
291,2383.7400000000002,2.802460559587706
292,2394.74,2.856008111677351
293,2405.7999999999997,2.808006285505667
294,2416.9,2.8215188071597628
295,2422.47,2.890652741899702
296,2433.66,2.842081246161804
297,2444.8900000000003,2.891675498249686
298,2456.17,2.8669091851197956
299,2467.5099999999998,2.8466957937285753
300,2473.2000000000003,2.7998412719458545
301,2484.6099999999997,2.808525189249751
302,2496.08,2.7448634282923163
303,2507.6,2.851023502117109
304,2511.88643,2.7463855625357665
305,2513.39,2.710149354833719
306,2519.18,2.719887697488288
307,2524.99,2.6793909406356184
308,2536.64,2.6899680276694227
309,2542.4900000000002,2.6765310718022763
310,2554.22,2.746498360807128
311,2566.01,2.7051610512902653
312,2577.86,2.758248143251688
313,2583.8,2.743787889601971
314,2595.73,2.717394283534442
315,2607.7099999999996,2.6711871786988173
316,2613.72,2.6485226267737665
317,2625.79,2.70053402415557
318,2637.9,2.7348472225228972
319,2643.98,2.8385195723225136
320,2656.19,2.8659087731536506
321,2662.31,2.7357217239387905
322,2674.6,2.7833051267409754
323,2686.9500000000003,2.777888931021445
324,2693.14,2.7116141835312524
325,2705.5699999999997,2.7437531897827703
326,2718.06,2.6656615975125733
327,2724.33,2.6602650519934277
328,2736.9,2.7091036616942787
329,2743.21,2.5340113171606564
330,2755.8700000000003,2.5583614290789356
331,2762.2200000000003,2.6012650855308377
332,2774.98,2.646033799912927
333,2787.78,2.55347411528054
334,2794.2099999999996,2.3328467737034897
335,2807.1099999999997,2.3837000915349122
336,2813.58,2.607808750943385
337,2826.5699999999997,2.676466170992236
338,2833.08,2.6315122313862327
339,2846.16,2.5897217536525123
340,2852.7200000000003,2.5278043152784133
341,2865.89,2.645419939762122
342,2872.49,2.645116102373547
343,2884.0315,2.6305227431519156
344,2885.7500000000005,2.628809208450275
345,2892.4,2.6222245114252227
346,2912.45,2.7315061542293884
347,2932.6400000000003,2.667465824464605
348,2952.97,2.6385505221308736
349,2966.6,2.661810049882533
350,2987.16,2.6584039354712434
351,3007.8700000000003,2.6696824218789375
352,3028.72,2.6604179357176827
353,3049.71,2.65708247698748
354,3070.85,2.662793619076261
355,3092.14,2.6656143619840256
356,3113.57,2.659273132322842
357,3127.95,2.6354836641694206
358,3149.63,2.6382237692065424
359,3171.46,2.6348154750626493
360,3193.44,2.552049781737739
361,3208.18,2.5978689555498784
362,3230.42,2.5185471703112072
363,3252.81,2.60311898589152
364,3267.83,2.655891214565762
365,3290.48,2.6394559382323135
366,3311.31121,2.627358035282324
367,3313.29,2.6265797666000656
368,3320.9300000000003,2.6236029773381806
369,3328.58,2.65407763599611
370,3336.25,2.692353190493668
371,3343.94,2.588291640830855
372,3351.65,2.61153298700767
373,3359.38,2.6386482290241133
374,3367.12,2.6087839189603717
375,3374.89,2.4756139526560728
376,3382.6699999999996,2.521845434271588
377,3390.46,2.636724363806917
378,3398.28,2.6268306371016896
379,3406.11,2.5901563583162766
380,3413.9599999999996,2.613931975370492
381,3421.8399999999997,2.6625269361841495
382,3429.72,2.6213568969978076
383,3437.6299999999997,2.6424092015709086
384,3445.55,2.4596779540638236
385,3453.5,2.674967050316182
386,3461.46,2.528993594488354
387,3469.4399999999996,2.5653070345001554
388,3477.44,2.5001993703515843
389,3485.45,2.552350154122828
390,3493.4900000000002,2.529419281653515
391,3501.5400000000004,2.542736857104016
392,3509.61,2.5495283283941457
393,3517.7000000000003,2.500361695523903
394,3525.81,2.5365099584932906
395,3531.22,2.0525319831128197
396,3533.87,2.971289981863605
397,3536.5099999999998,2.718855232694577
398,3539.1600000000003,2.332045931445363
399,3541.8100000000004,2.448405630196149
400,3544.4500000000003,2.986715881027121
401,3547.1000000000004,2.844190579777907
402,3549.75,2.536701278528693
403,3552.3900000000003,2.6757535293596644
404,3555.04,2.5497072281104507
405,3557.68,2.5118584789414227
406,3560.33,2.1127081776922085
407,3562.98,2.6216198764429945
408,3565.62,2.5232171272739663
409,3568.27,2.5303718260247523
410,3570.91,2.751468076855724
411,3573.56,2.31080977560651
412,3576.21,2.375730474357296
413,3578.85,2.6416547251882676
414,3581.5000000000005,2.792378423939054
415,3584.1400000000003,2.7252716747700254
416,3586.7900000000004,2.3810043735208115
417,3589.44,2.417575072271598
418,3592.0800000000004,2.4715443231025693
419,3594.73,2.4850270218533552
420,3597.37,2.7361972726843273
421,3600.02,2.505081971435113
422,3602.67,2.244269670185899
423,3605.31,2.714160921016871
424,3607.96,2.4928196197676566
425,3610.6,2.1575238705986286
426,3613.25,2.5093655693494146
427,3615.9,2.5239132681002006
428,3618.54,2.5353405189311724
429,3621.19,2.743267217681958
430,3623.83,2.5747554685129304
431,3626.4800000000005,2.648573167263716
432,3629.1299999999997,2.6298518660145023
433,3631.7700000000004,2.7529281168454736
434,3634.42,2.7312928155962597
435,3637.06,2.337950066427232
436,3639.71,2.5642027651780177
437,3642.36,2.3887244639288037
438,3645.0,2.6126397147597755
439,3647.65,2.3138594135105617
440,3650.29,2.492977664341533
441,3652.94,2.519680363092319
442,3655.59,2.531847061843105
443,3658.23,2.4007073126740766
444,3660.88,2.7692140114248627
445,3663.52,2.4683162622558346
446,3666.17,2.7774279610066204
447,3668.8199999999997,2.591265659757407
448,3671.4599999999996,2.4755709105883787
449,3674.1099999999997,2.5493886093391644
450,3676.7499999999995,2.5536738601701363
451,3679.4,2.4745865589209224
452,3682.05,2.765308257671708
453,3684.69,2.53279650850268
454,3687.34,2.6048912072534662
455,3689.98,2.795351458084438
456,3692.63,2.7336491568352237
457,3695.28,2.43834585558601
458,3697.92,2.5039061064169816
459,3700.57,2.7863578051677678
460,3703.21,2.6193190559987394
461,3705.86,2.462917754749525
462,3708.5099999999998,2.4714194535003116
463,3711.1499999999996,2.4750467043312834
464,3713.7999999999997,2.417167403082069
465,3716.4399999999996,2.945640653913041
466,3719.0899999999997,2.925916352663827
467,3721.7400000000002,3.089264051414613
468,3724.38,3.3763053022455844
469,3727.03,3.8524780009963706
470,3729.67,4.091655251827342
471,3732.32,3.6689749505781286
472,3734.9700000000003,3.1262216493289143
473,3737.61,2.736075900159886
474,3740.26,2.8470775989106722
475,3742.9,2.928802849741644
476,3745.55,2.75520254849243
477,3748.2,2.751236247243216
478,3750.8399999999997,2.786190498074188
479,3753.49,2.719633196824974
480,3756.1299999999997,2.8444014476559456
481,3758.7799999999997,2.8096091464067317
482,3761.43,2.8436408451575175
483,3764.0699999999997,2.8591740959884895
484,3766.7200000000003,2.7439037947392753
485,3769.36,2.6617910455702467
486,3772.01,2.572365744321033
487,3774.6600000000003,2.7676664430718185
488,3777.3,2.8581006939027906
489,3779.9500000000003,3.034857392653577
490,3782.59,3.2569886434845485
491,3785.2400000000002,3.1080423422353345
492,3787.89,3.0609380409861204
493,3790.5299999999997,3.1551012918170924
494,3793.18,3.0537079905678786
495,3795.8199999999997,2.78654924139885
496,3798.47,2.6758849401496363
497,3801.12,2.549994638900422
498,3801.8939600000003,2.5911277547690608
499,3803.7599999999998,2.690547251582967
500,3806.41,3.027668813630718
501,3809.0499999999997,3.119423607519799
502,3811.7000000000003,3.18932916956755
503,3814.3500000000004,3.066827731615301
504,3816.9900000000002,3.1386585255043817
505,3819.6400000000003,3.146068087552133
506,3822.28,3.136355881441214
507,3824.9300000000003,3.022281443488965
508,3827.58,2.9160690055367167
509,3830.22,2.791920799425797
510,3832.87,2.547496361473548
511,3835.5099999999998,2.471778155362629
512,3838.16,2.4179767174103803
513,3840.81,2.5844002794581313
514,3843.45,2.8924640733472122
515,3846.1,3.053561635394963
516,3848.74,3.2121984292840438
517,3851.39,3.188061991331795
518,3854.0400000000004,3.139302553379546
519,3856.6800000000003,3.375066347268627
520,3859.3300000000004,3.493057909316378
521,3861.9700000000003,3.4881397032054586
522,3864.6200000000003,3.67342026525321
523,3867.27,3.5622578273009617
524,3869.91,3.691919621190042
525,3872.56,3.481264183237793
526,3875.2,3.235819977126874
527,3877.85,3.139099539174625
528,3880.5,3.0652791012223766
529,3883.14,2.9863348951114568
530,3885.79,2.880467457159208
531,3888.43,2.6736792510482887
532,3891.08,2.81795581309604
533,3893.7300000000005,2.955683375143791
534,3896.37,2.8616711690328716
535,3899.0200000000004,3.088398731080623
536,3901.6600000000003,3.1499235249697035
537,3904.31,3.316722087017455
538,3906.96,3.3284536490652066
539,3909.6,3.3470614429542866
540,3912.25,3.615296005002038
541,3914.89,3.7321137988911186
542,3917.54,3.43740736093887
543,3920.19,3.399424922986621
544,3922.83,3.2578277168757017
545,3925.48,3.4885642789234534
546,3928.12,2.9907840728125334
547,3930.77,2.829187634860285
548,3933.42,2.7168361969080363
549,3936.06,2.770683990797117
550,3938.7100000000005,3.0061515528448677
551,3941.35,3.0060253467339484
552,3943.9999999999995,3.1391489087817
553,3946.65,3.2794454708294514
554,3949.29,3.2973322647185315
555,3951.94,3.4771628267662833
556,3954.58,3.3094396206553633
557,3957.23,3.166951182703115
558,3959.88,3.201081744750866
559,3962.52,3.0208285386399467
560,3965.17,2.644613100687698
561,3967.81,2.5525418945767786
562,3970.46,2.5088894566245297
563,3973.11,2.528017018672281
564,3975.75,2.7494618125613615
565,3978.4,3.043008374609113
566,3981.04,3.0822911684981937
567,3983.6899999999996,3.334141730545945
568,3986.3399999999997,3.355741292593696
569,3988.9799999999996,3.279493086482777
570,3991.63,3.6022036485305278
571,3994.27,3.5132364424196085
572,3996.92,3.65115200446736
573,3999.57,3.652263566515111
574,4002.21,3.728012360404192
575,4004.86,3.833283922451943
576,4007.51,3.6942094844996944
577,4010.15,3.413994278388775
578,4012.8,3.729154840436526
579,4015.44,4.023657634325607
580,4018.09,3.849026196373358
581,4020.74,3.7102027584211092
582,4023.3799999999997,3.95950055231019
583,4026.0299999999997,3.8377801143579413
584,4028.6699999999996,3.8781299082470215
585,4031.3199999999997,3.7896154702947733
586,4033.9700000000003,3.789788032342524
587,4036.61,3.6276738262316046
588,4039.26,3.7632703882793557
589,4041.9,3.8818741821684366
590,4044.55,3.6193727442161876
591,4047.2000000000003,3.7637713062639393
592,4049.84,3.5975851001530197
593,4052.4900000000002,3.638919662200771
594,4055.13,3.6198114560898516
595,4057.78,3.7288740181376028
596,4060.43,3.9074505801853543
597,4063.0699999999997,3.860744374074435
598,4065.72,3.678344936122186
599,4068.3599999999997,3.5398197300112666
