,lambda (Angstroms),Total Flux (erg/s/cm^2/Angstrom)
0,101.98,8.029936832791243
1,104.11999999999999,8.004161974164965
2,104.712855,7.997021451449019
3,106.05,7.912423903950397
4,108.03,7.787154717733947
5,110.03,7.660620409614067
6,113.9,7.415776339959263
7,117.9,7.1627076548779005
8,120.22644299999999,7.0155261499343835
9,120.92999999999999,6.978209286453468
10,124.89,6.768161993214957
11,126.92,6.660486033789153
12,128.09,6.598426725105957
13,131.08,6.439830204274455
14,131.99,6.391564765475302
15,134.13,6.278054388855096
16,136.94,6.129010694677162
17,138.038426,6.070748056445924
18,140.13,5.99144982148464
19,143.06,5.880428556360484
20,147.07,5.728555642952375
21,150.84,5.5856437545095865
22,155.07,5.425297335308264
23,158.489319,5.295685801356107
24,159.04999999999998,5.279619340880218
25,162.0,5.195086436116106
26,166.16,5.075887293190443
27,170.03,4.964993713898539
28,173.19,4.874447591203084
29,176.82,4.770436545818431
30,180.10999999999999,4.676162471694049
31,181.970086,4.622865235926772
32,182.19,4.618058571411331
33,186.01,4.534566728289123
34,191.22,4.420691209478205
35,193.88,4.362563302444415
36,197.94,4.273824707334947
37,202.08,4.183344987129726
38,204.89000000000001,4.1219352083914
39,208.929613,4.033614604918655
40,210.14999999999998,4.013555899312436
41,216.04000000000002,3.9168402763684864
42,220.05,3.8509756150251526
43,223.11,3.800694899301811
44,226.74,3.741082988806473
45,229.89,3.689906895855975
46,234.17000000000002,3.620791545831169
47,239.88329199999998,3.5275653103975855
48,240.17,3.523968239534474
49,245.77,3.4528593900108446
50,252.07,3.3733099309217622
51,256.76,3.3133233294332234
52,259.73,3.276210453934084
53,263.95,3.222953674925207
54,268.86,3.160775433658953
55,273.86,3.0974386816199986
56,275.42287,3.0776412006626583
57,278.95,3.043353169467696
58,284.14,2.99290920335923
59,290.09,2.9348910123716827
60,296.16,2.8759541780348057
61,300.96999999999997,2.8291494543658815
62,307.98,2.76104616062593
63,316.227766,2.680921281701101
64,318.07,2.667557997346469
65,327.73999999999995,2.597323118371421
66,337.7,2.5249541842451033
67,347.96,2.4503885601691984
68,356.88,2.3855824390681186
69,363.078055,2.3405709955949012
70,366.03999999999996,2.3244621274210755
71,375.43,2.2733301813104583
72,385.06,2.220780544506918
73,394.94,2.167116599981583
74,405.07,2.1119972467344534
75,413.55,2.0658090452511697
76,416.86938299999997,2.0477239002140024
77,422.21000000000004,2.0254909218613095
78,430.06,1.9928216964605454
79,441.09000000000003,1.9469623452757772
80,451.36,1.904212803341274
81,459.76000000000005,1.8692478843646598
82,470.46,1.8247320275254018
83,478.630092,1.7907625390388848
84,480.32,1.7853569211484699
85,490.36999999999995,1.753138512548112
86,499.49,1.723985748391369
87,506.44,1.7017157559363951
88,512.3,1.6831321455067338
89,519.4300000000001,1.6603068127723504
90,530.3100000000001,1.6254624372169377
91,540.1700000000001,1.593832291244845
92,549.5408739999999,1.5638688831275922
93,550.21,1.5622362234541953
94,560.4399999999999,1.5373414853470861
95,569.54,1.5151873299018566
96,580.13,1.4892778478936164
97,589.5600000000001,1.466312535122351
98,600.52,1.4394988280212835
99,610.28,1.4154744509239823
100,620.1899999999999,1.3916185159512104
101,630.27,1.3670064437195713
102,630.957344,1.365330748094747
103,640.51,1.346866446371499
104,649.42,1.3296490370116107
105,658.46,1.3121498782514098
106,664.55,1.3004225091906108
107,675.35,1.279529767087716
108,684.7399999999999,1.2612783816343658
109,694.27,1.2430498889037558
110,705.5500000000001,1.2211091237073988
111,715.36,1.2023356864222692
112,724.43596,1.1847979752362412
113,725.3199999999999,1.183529806258654
114,735.41,1.1690619770092332
115,745.6400000000001,1.1544633319337545
116,754.27,1.1421214185846464
117,764.76,1.126977709403633
118,775.4,1.1119295506232725
119,784.3799999999999,1.0990804272090209
120,795.2900000000001,1.0834988135498353
121,804.4999999999999,1.070348933349918
122,815.69,1.0543395350386173
123,825.14,1.0409359722797447
124,831.763771,1.0311330814722757
125,834.69,1.0278619505068904
126,844.36,1.0179832398613635
127,854.14,1.0075392756645434
128,864.03,0.9970969969164294
129,874.03,0.9865357906170221
130,884.15,0.9758882088980219
131,894.3900000000001,0.9650577797594285
132,904.75,0.9539449102012426
133,915.22,0.9443312450917632
134,925.8199999999999,0.9582140006943916
135,934.39,0.9850428675617993
136,945.2099999999999,1.0339857840618407
137,953.9499999999999,1.0788388671681586
138,954.992586,1.0796360874434816
139,965.0,1.0875200090483879
140,973.93,0.9089148952895392
141,985.2099999999999,1.0296729884362563
142,994.32,1.0327569203127274
143,1005.84,1.1083357409732044
144,1015.14,1.0895702321314018
145,1024.54,0.9333647597536664
146,1034.02,0.988278996547184
147,1045.99,1.144362931295961
148,1055.6699999999998,1.1263780410176119
149,1065.43,1.041006459910516
150,1075.29,1.0826835152674867
151,1085.24,1.0022731934421176
152,1095.28,1.0772133944344084
153,1096.4782,1.074295474629695
154,1105.42,1.054219442409213
155,1115.6499999999999,1.0313037531052616
156,1125.97,0.9904280923411577
157,1133.78,1.0617691467435173
158,1144.27,1.019424428776904
159,1154.8500000000001,1.0311808393501385
160,1165.54,1.031322407027632
161,1176.32,0.9131568032449733
162,1184.48,1.004187557524519
163,1195.44,0.8882768108215561
164,1203.72,0.8175282364875658
165,1214.86,0.759378346864299
166,1226.1,0.8629946000630853
167,1234.6,0.972829239937612
168,1246.03,0.9970423644982995
169,1254.6599999999999,0.9717951900414958
170,1258.92541,0.9494917916016764
171,1266.27,0.9128981883976166
172,1275.0500000000002,1.0003401881673268
173,1283.89,1.0138517642452585
174,1295.77,0.9161962732730673
175,1304.75,0.9069088607368483
176,1313.79,0.985978924508851
177,1325.9499999999998,0.9609428563083587
178,1335.1399999999999,0.9092813108509143
179,1344.4,0.9719985210863946
180,1353.7099999999998,0.953107328245393
181,1366.24,0.9016442972789316
182,1375.71,0.9144963745931864
183,1385.25,0.913024807600366
184,1394.85,0.8525400169157669
185,1404.52,0.8550002819240925
186,1414.25,0.8689693232406395
187,1424.06,0.8720622996348146
188,1433.9299999999998,0.8660216523372113
189,1440.55,0.8809462050109563
190,1445.43977,0.8832121505296888
191,1447.1899999999998,0.8843467208380853
192,1453.87,0.8699599499937222
193,1463.95,0.8378772101567192
194,1474.1000000000001,0.8343700644875149
195,1484.3200000000002,0.8381917129861092
196,1494.6100000000001,0.8405167556525022
197,1504.97,0.8179411924866937
198,1511.9099999999999,0.7798713428370112
199,1515.4,0.7992958234886837
200,1525.9,0.7856787486584723
201,1536.48,0.7397738957343165
202,1543.57,0.7535940621584882
203,1554.2700000000002,0.7367925420934156
204,1565.05,0.7451040439343988
205,1575.89,0.7613374122049232
206,1586.82,0.7726826301197605
207,1594.14,0.7766380345238417
208,1605.19,0.7656101852977621
209,1616.32,0.7624046579777383
210,1623.78,0.7453850507174167
211,1635.0300000000002,0.7607740562564758
212,1646.3700000000001,0.7607703114398476
213,1653.9699999999998,0.7385723925151233
214,1659.58691,0.7490673330221519
215,1665.43,0.760732817249152
216,1673.12,0.7230201958323194
217,1676.9800000000002,0.7639704967856387
218,1684.72,0.7736601142412584
219,1696.4,0.7514664948461212
220,1704.2199999999998,0.7385338744976646
221,1716.04,0.7185066639453939
222,1723.96,0.7153609213418419
223,1735.9099999999999,0.7338910118579473
224,1743.9199999999998,0.7258489392248095
225,1756.01,0.7420128385837814
226,1764.1200000000001,0.7158200436955482
227,1776.34,0.7177564441228961
228,1784.54,0.7234617192050772
229,1796.9099999999999,0.739236636249782
230,1805.2099999999998,0.7358927890768677
231,1813.54,0.7106610652274248
232,1826.11,0.713483737761939
233,1834.54,0.7019433916574007
234,1843.01,0.6782147766508243
235,1855.78,0.6774672046751478
236,1864.35,0.6842263674134761
237,1872.9499999999998,0.7028171534752757
238,1885.94,0.6761880525383893
239,1894.6399999999999,0.6650641163450937
240,1903.39,0.6797363190242502
241,1905.46072,0.6776185571879977
242,1916.58,0.667135629039133
243,1925.4299999999998,0.6582231423104961
244,1934.31,0.6695822773217619
245,1943.24,0.6798238485661994
246,1956.71,0.6567861097826129
247,1965.74,0.6823907534933933
248,1974.82,0.6898010334373454
249,1983.93,0.6733648351212004
250,1993.09,0.6647707730382271
251,2006.91,0.6716716878868412
252,2016.1699999999998,0.6630036982702109
253,2025.48,0.673548044886752
254,2034.82,0.6564521132431962
255,2044.22,0.665178225079446
256,2053.65,0.6255153586555988
257,2063.13,0.6357765284649233
258,2072.65,0.670955127260785
259,2077.4300000000003,0.6570674911519843
260,2087.02,0.6669445406742862
261,2096.66,0.6503317264297596
262,2106.33,0.6515595339251358
263,2116.06,0.6553987849003179
264,2125.8199999999997,0.6566931576154029
265,2135.63,0.6401014665636595
266,2145.49,0.6429746117450876
267,2155.4,0.6519472931596872
268,2165.34,0.6394797963141898
269,2175.34,0.6389745429484983
270,2185.38,0.632540118569344
271,2187.7616199999998,0.6352493380371103
272,2195.47,0.644564746636404
273,2205.6,0.6378915568879271
274,2215.7799999999997,0.6228526496184803
275,2226.0099999999998,0.6180421248280639
276,2236.2799999999997,0.6316261660208716
277,2246.61,0.6216240061885155
278,2256.98,0.6085515123393838
279,2267.39,0.6143957844734762
280,2272.62,0.6194289117800375
281,2283.1099999999997,0.6237916158805782
282,2293.65,0.605492502460149
283,2304.24,0.6079312715187503
284,2314.87,0.5981392065605755
285,2325.56,0.5548883405772371
286,2336.29,0.582179740577123
287,2347.08,0.5751271395518449
288,2352.4900000000002,0.588322063782915
289,2363.3399999999997,0.5710854617324733
290,2374.25,0.5739769586568679
291,2385.21,0.5550306380602927
292,2396.22,0.5682813999427477
293,2407.28,0.560527044304233
294,2412.83,0.5649587994765877
295,2423.97,0.5764470758045213
296,2435.1600000000003,0.5669026346114849
297,2446.4,0.5761627758974791
298,2457.69,0.5720254996625033
299,2463.35,0.5695825362887246
300,2474.73,0.5615587085160032
301,2486.15,0.559006546726506
302,2497.62,0.5234725674160392
303,2503.38,0.5657462690003208
304,2511.88643,0.5431493859498744
305,2514.94,0.5351532143086183
306,2520.73,0.545607724482678
307,2526.54,0.5404293239837639
308,2532.37,0.5449842128118758
309,2544.0600000000004,0.5413672744586389
310,2555.7999999999997,0.5553421094229671
311,2567.6,0.5469819123683739
312,2573.5200000000004,0.5572281531681033
313,2585.3900000000003,0.5526806187581014
314,2597.33,0.5473755469926909
315,2603.32,0.5412640504370116
316,2615.33,0.5360643413161926
317,2627.41,0.5446313948399648
318,2633.46,0.555833866265364
319,2645.6200000000003,0.5708929770972407
320,2657.83,0.5832103612466828
321,2663.95,0.5530709953166734
322,2676.25,0.5597899314377328
323,2682.4199999999996,0.5640601388252888
324,2694.8,0.5462311322544526
325,2707.2400000000002,0.5545111936646949
326,2713.4799999999996,0.5392697636968423
327,2726.0099999999998,0.5338982770787022
328,2732.29,0.5394588257649016
329,2744.9,0.5157113964548659
330,2757.5699999999997,0.5202308351259084
331,2763.93,0.5279101411202124
332,2776.69,0.5342729317628725
333,2783.0899999999997,0.5180174164112287
334,2795.93,0.48279336436199316
335,2802.3799999999997,0.49311832232791464
336,2815.32,0.5250232169138098
337,2821.7999999999997,0.5378093588702704
338,2834.83,0.5274599054277831
339,2847.9100000000003,0.5165539253028608
340,2854.48,0.503682219230939
341,2867.6600000000003,0.5267903857411476
342,2874.27,0.5349394583232779
343,2884.0315,0.5313782215285917
344,2887.5299999999997,0.5302154796242413
345,2894.1899999999996,0.5362236779848351
346,2907.5499999999997,0.5589983521736538
347,2927.7,0.5442866764928677
348,2948.0,0.5349827913156986
349,2968.4300000000003,0.5365985579083308
350,2989.0099999999998,0.53399471500458
351,3009.73,0.5314074432375384
352,3030.59,0.5321588426072059
353,3051.59,0.5320438131135827
354,3072.75,0.5353692934904842
355,3086.93,0.5324380557657424
356,3108.3300000000004,0.5401177009484311
357,3129.88,0.5288074366347367
358,3151.57,0.5278048434577516
359,3173.42,0.5311075601512912
360,3188.06,0.5121214133043082
361,3210.1600000000003,0.5177279141705428
362,3232.41,0.5002224055403943
363,3247.33,0.5291571009668296
364,3269.84,0.5414812958762839
365,3292.51,0.536831600656263
366,3307.71,0.5275111383561166
367,3311.31121,0.5272048358351404
368,3322.9700000000003,0.5264786596496356
369,3330.63,0.5313111107617148
370,3338.31,0.5091414560020239
371,3346.0099999999998,0.526805895370563
372,3353.7200000000003,0.5115805818032171
373,3361.4500000000003,0.5102398623641011
374,3369.2,0.5055504370532153
375,3376.9700000000003,0.5000576058705593
376,3384.7500000000005,0.5012336217520182
377,3392.5499999999997,0.5256725317617073
378,3400.38,0.5377987829637412
379,3408.2200000000003,0.5116086812298901
380,3416.07,0.5043151265601541
381,3423.9500000000003,0.5317650130827629
382,3431.8399999999997,0.5330984466694868
383,3439.7499999999995,0.5289831743844406
384,3447.6800000000003,0.48831919622762443
385,3455.63,0.5052247121990382
386,3463.5899999999997,0.483317775234567
387,3471.5800000000004,0.5119508794624407
388,3479.58,0.48232333075442935
389,3487.6000000000004,0.49402387617464805
390,3495.64,0.4976748157230967
391,3503.7000000000003,0.5186961493997753
392,3511.7799999999997,0.509450877204684
393,3519.87,0.5089492520737074
394,3527.99,0.480142868135076
395,3536.12,0.5131410312605595
396,3544.27,0.5224294885142731
397,3552.44,0.5273434398962165
398,3560.63,0.5160191854063899
399,3568.8399999999997,0.4865158250447934
400,3577.07,0.48030725881142666
401,3585.31,0.45489863964217503
402,3593.58,0.4825200616652684
403,3601.86,0.5188019307524767
404,3606.05,0.4954692506166558
405,3608.7799999999997,0.45628289912004694
406,3611.5000000000005,0.48224970055932304
407,3614.23,0.5047559490627143
408,3616.96,0.4842431975661054
409,3619.69,0.4822660460694965
410,3622.42,0.48089749457288766
411,3625.14,0.49336379601216385
412,3627.8700000000003,0.48831574451555493
413,3630.6,0.4870578930189461
414,3633.3300000000004,0.4840570415223372
415,3636.06,0.46285279002572843
416,3638.7799999999997,0.5030670914650046
417,3641.51,0.5146733399683957
418,3644.2400000000002,0.5022663884717868
419,3646.97,0.507399036975178
420,3649.7000000000003,0.5008571854785692
421,3652.42,0.5129086869178453
422,3655.1499999999996,0.5148321354212364
423,3657.88,0.5129932839246276
424,3660.61,0.5251527324280187
425,3663.34,0.5293447809314099
426,3666.07,0.528391129434801
427,3668.79,0.48580453087407716
428,3671.52,0.5020583793774683
429,3674.25,0.5139413278808596
430,3676.9800000000005,0.4916027763842506
431,3679.71,0.4930836248876418
432,3682.43,0.500349126326918
433,3685.1600000000003,0.47651657483030907
434,3687.89,0.4716622233337002
435,3690.62,0.5182091718370914
436,3693.3500000000004,0.5349334203404824
437,3696.07,0.5138977217797587
438,3698.7999999999997,0.5114778702831498
439,3701.53,0.5082557187865409
440,3704.2599999999998,0.4922800672899321
441,3706.99,0.49215641579332325
442,3709.71,0.4955210172325994
443,3712.44,0.49808086573599053
444,3715.17,0.5278353142393817
445,3717.9,0.5244194627427728
446,3720.6299999999997,0.566235811246164
447,3723.36,0.6299623597495552
448,3726.08,0.6812986611888313
449,3728.8100000000004,0.6996273096922224
450,3731.54,0.6292622581956135
451,3734.27,0.5319795066990047
452,3736.9999999999995,0.5215091552023958
453,3739.7200000000003,0.547642156641672
454,3742.45,0.5198259051450632
455,3745.1800000000003,0.5060357536484543
456,3747.91,0.48776390215184545
457,3750.64,0.5258730506552366
458,3753.36,0.5233728520945128
459,3756.09,0.5525186005979039
460,3758.82,0.5652314491012951
461,3761.55,0.5826195976046862
462,3764.2799999999997,0.5540010461080773
463,3767.0,0.5253022475473534
464,3769.73,0.5476147960507446
465,3772.46,0.5427604445541357
466,3775.19,0.557852393057527
467,3777.92,0.6060591415609181
468,3780.6499999999996,0.6293121900643092
469,3783.37,0.6570501915035853
470,3786.1,0.6092874400069765
471,3788.8300000000004,0.5766573885103676
472,3791.56,0.5670445370137588
473,3794.29,0.51358298551715
474,3797.01,0.515481486956426
475,3799.74,0.5264791354598173
476,3801.8939600000003,0.5421409877170975
477,3802.47,0.5463387217944611
478,3805.2000000000003,0.5963322507285861
479,3807.93,0.6103336796627112
480,3810.65,0.6328866011648431
481,3813.38,0.6169822300989681
482,3816.1099999999997,0.6064724590330932
483,3818.84,0.5962394879672182
484,3821.57,0.5681350169013433
485,3824.29,0.5698283384034751
486,3827.02,0.5429687673376001
487,3829.75,0.5336763962717253
488,3832.4799999999996,0.49655322520585027
489,3835.21,0.47248795413997524
490,3837.94,0.4956464830741003
491,3840.6600000000003,0.5417141045762321
492,3843.39,0.5811950335103573
493,3846.12,0.6232763624444823
494,3848.85,0.6239432913786074
495,3851.58,0.6301155203127323
496,3854.2999999999997,0.6360419418148643
497,3857.03,0.6369854707489893
498,3859.7599999999998,0.6506825996831143
499,3862.4900000000002,0.6773545286172393
500,3865.22,0.6727373575513644
501,3867.94,0.6584684790534963
502,3870.67,0.6455796079876214
503,3873.4,0.6241699369217464
504,3876.1299999999997,0.6147945658558713
505,3878.86,0.6056127947899964
506,3881.58,0.5633466162921283
507,3884.3100000000004,0.5372062452262534
508,3887.04,0.5605862741603784
509,3889.77,0.5425517030945034
510,3892.5,0.5447957320286285
511,3895.23,0.5963660609627535
512,3897.95,0.6023198824648854
513,3900.6800000000003,0.6245378113990104
514,3903.41,0.6372943403331355
515,3906.1400000000003,0.6405617692672605
516,3908.87,0.6647160982013856
517,3911.5899999999997,0.6675994197035174
518,3914.32,0.6504778486376425
519,3917.05,0.6555987775717674
520,3919.7799999999997,0.6434015065058925
521,3922.51,0.6378715354400175
522,3925.23,0.6160776569421496
523,3927.9599999999996,0.5548027858762745
524,3930.69,0.5151897148103995
525,3933.42,0.4949421437445246
526,3936.15,0.5227483726786496
527,3938.87,0.5678201941807816
528,3941.6,0.6029023231149065
529,3944.33,0.6411659520490316
530,3947.06,0.6515155809831565
531,3949.7900000000004,0.6353070099172816
532,3952.52,0.6389340388514068
533,3955.24,0.6287040603535387
534,3957.9700000000003,0.6088712892876635
535,3960.7,0.5595755182217886
536,3963.43,0.4956727471559137
537,3966.1600000000003,0.4800451760900387
538,3968.88,0.4805761975921706
539,3971.6099999999997,0.48934912652629564
540,3974.34,0.5236013554604207
541,3977.0699999999997,0.5694727843945457
542,3979.8,0.6023417133286708
543,3982.52,0.6333876348308027
544,3985.25,0.6407219637649277
545,3987.98,0.6664532926990527
546,3990.71,0.6885604216331778
547,3993.4399999999996,0.6885634505673028
548,3996.1600000000003,0.6744881720694347
549,3998.89,0.6866913010035598
550,4001.6200000000003,0.6924208299376847
551,4004.35,0.6967948588718098
552,4007.08,0.7043502878059349
553,4009.81,0.7009228167400599
554,4012.53,0.7182196382421918
555,4015.2599999999998,0.7155390671763168
556,4017.9900000000002,0.7398870961104418
557,4020.72,0.732973825044567
558,4023.4500000000003,0.7119237539786918
559,4026.17,0.7076142754808238
560,4028.9,0.7174660044149489
561,4031.63,0.7032491333490739
562,4034.36,0.6860997622831989
563,4037.0899999999997,0.703586891217324
564,4039.81,0.7109520127194559
565,4042.54,0.7055326416535809
566,4045.2700000000004,0.7036543705877059
567,4048.0,0.7062024995218309
568,4050.73,0.7051541284559559
569,4053.4500000000003,0.696279949958088
570,4056.18,0.691247878892213
571,4058.91,0.6979181078263379
572,4061.6400000000003,0.6937436367604629
573,4064.37,0.6940231656945881
574,4067.1000000000004,0.6965712946287131
575,4069.82,0.6961348161308449
576,4072.5499999999997,0.68078374506497
577,4075.28,0.674423773999095
578,4078.01,0.67332020293322
579,4080.74,0.6900603318673452
580,4083.46,0.684063253369477
581,4086.19,0.6812443823036021
582,4088.9199999999996,0.672947911237727
583,4091.65,0.652949140171852
584,4094.38,0.6319268691059772
585,4097.1,0.6022758906081089
586,4099.83,0.6098868195422341
587,4102.56,0.6231690484763591
588,4105.29,0.6281239774104841
589,4108.02,0.6332173063446092
590,4110.74,0.6475813278467412
591,4113.47,0.6682777567808661
