,lambda (Angstroms),Total Flux (erg/s/cm^2/Angstrom)
0,101.98,4.139344636120185
1,104.11999999999999,4.126057964124921
2,104.712855,4.122377097162971
3,106.05,4.078767973310213
4,108.02000000000001,4.014519187908377
5,110.03,3.948965957903105
6,113.9,3.8227514564603715
7,117.9,3.6922972513025947
8,120.22644299999999,3.616426020423814
9,120.92999999999999,3.5971893511967306
10,124.89,3.4889120939041987
11,126.92,3.4334062917525605
12,128.09,3.4014153480063354
13,131.07,3.3199340566281133
14,131.98,3.2950534150658264
15,134.13,3.236266687607293
16,136.94,3.1594359391728375
17,138.038426,3.129402260284511
18,140.13,3.088525028506181
19,143.06,3.031287697130942
20,147.07,2.952979017525446
21,150.84,2.879311278847784
22,155.07,2.7966560356309387
23,158.489319,2.7298448169996727
24,159.04000000000002,2.7217107868794947
25,162.0,2.677989555568937
26,166.16,2.6165469062946394
27,170.03,2.5593876591990785
28,173.19,2.5127157620445644
29,176.80999999999997,2.45925434557895
30,180.10000000000002,2.410663083040862
31,181.970086,2.38304449383093
32,182.19,2.3805670938133705
33,185.99999999999997,2.337649874759519
34,191.20999999999998,2.2789611613423104
35,193.87,2.2490052664619307
36,197.93,2.203274021918194
37,202.08,2.1565335668660985
38,204.89000000000001,2.1248888469717877
39,208.929613,2.0793735765008536
40,210.14000000000001,2.0691221663574635
41,216.03,2.019296384043048
42,220.05,1.9852777091827838
43,223.11,1.9593720148578069
44,227.26,1.924259544494848
45,229.89,1.9023940086710933
46,234.16,1.8670868423287235
47,239.88329199999998,1.8191535212358074
48,240.17,1.817309685208544
49,245.76000000000002,1.7807533114065286
50,252.07,1.7397975535656132
51,256.76,1.7087723868122233
52,259.73,1.689811474151761
53,263.95,1.6624604529237639
54,268.86,1.6304594811584872
55,273.85,1.5979378153888888
56,275.42287,1.5876819658138515
57,278.95,1.5700401265545176
58,284.13,1.5441468103986418
59,290.08,1.5142474364222982
60,296.15,1.4839483421102972
61,300.96999999999997,1.4597817709613934
62,307.98,1.424767131686743
63,316.227766,1.3835719146664127
64,318.07,1.376707473764355
65,327.72999999999996,1.3406314454963586
66,337.69,1.3033895049219024
67,347.95,1.265007280040987
68,356.88,1.231622173052042
69,363.078055,1.2084687077208507
70,366.03,1.2002163453420711
71,375.42,1.173900288317367
72,385.04999999999995,1.1467840786051313
73,394.93,1.1192311548017158
74,405.06,1.0908779629071206
75,413.54,1.0670851516143105
76,416.86938299999997,1.0577332171189384
77,422.2,1.0462919715216739
78,430.05,1.0294578191767532
79,441.08000000000004,1.0058614707787312
80,451.36,0.9837973807894593
81,459.75,0.9657894831902384
82,470.46,0.9428238383132832
83,478.630092,0.92532466156692
84,480.30999999999995,0.9225570244191938
85,490.36,0.9059208949353693
86,499.48,0.8909213631112419
87,506.43,0.8794082514930747
88,512.29,0.8698989874437999
89,519.4200000000001,0.8581144740527875
90,530.3,0.8401125842275132
91,540.16,0.8237420594483579
92,549.5408739999999,0.8082342941265468
93,550.2,0.8074020587164458
94,560.4300000000001,0.7946094611537297
95,569.53,0.7831956769728192
96,580.12,0.7698031716512976
97,589.55,0.7579419927748156
98,600.51,0.744040684673411
99,610.27,0.7314081101013571
100,620.18,0.7193331872131348
101,630.26,0.7065799299665873
102,630.957344,0.7057045083085309
103,640.5,0.6962093043387337
104,649.41,0.6872697259853652
105,658.4399999999999,0.6781903609639377
106,664.54,0.6721524211709469
107,675.3299999999999,0.6613863856846564
108,684.73,0.6518778790200475
109,694.25,0.6424539196873799
110,705.5400000000001,0.6310476892508442
111,715.35,0.6213669103870344
112,724.43596,0.6122821888080591
113,725.3,0.6116399928967255
114,735.39,0.6041551306064264
115,745.62,0.5965340305826642
116,754.2600000000001,0.5901022610318036
117,764.75,0.5821021795030387
118,775.39,0.5744077457598492
119,784.3700000000001,0.5676777068562924
120,795.28,0.5596196481271385
121,804.4900000000001,0.5528000461614638
122,815.6800000000001,0.5444928729653841
123,825.12,0.5374975109375918
124,831.763771,0.5324408549642423
125,834.68,0.5307656020593703
126,844.3399999999999,0.5255569971533782
127,854.12,0.5201136969193613
128,864.0100000000001,0.5146382723013218
129,874.02,0.5090909723552574
130,884.1400000000001,0.5034775520251703
131,894.37,0.4978036163110606
132,904.73,0.49203629032492413
133,915.21,0.4866106530107628
134,925.8,0.48389833831257895
135,934.3700000000001,0.48314879030281144
136,945.19,0.4829159008925801
137,953.94,0.48280119489077566
138,954.992586,0.4824408063984207
139,964.98,0.47914046980840835
140,973.9100000000001,0.4583929793827067
141,985.1899999999999,0.4652074407923469
142,994.3000000000001,0.4608327985540329
143,1005.82,0.46195073654685687
144,1015.12,0.4560513778952303
145,1024.52,0.437207893236597
146,1034.0,0.4391868537723583
147,1045.97,0.44712798973365175
148,1055.65,0.44118977825539957
149,1065.42,0.42960691637084136
150,1075.27,0.42870199968067785
151,1085.22,0.4170190569835075
152,1095.26,0.41924091388003104
153,1096.4782,0.4184208323190458
154,1105.4,0.41328887435852835
155,1115.6299999999999,0.40761054623980586
156,1125.95,0.4000920055276633
157,1133.75,0.4031723574312766
158,1144.24,0.39566243737600776
159,1154.83,0.39260418888360576
160,1165.52,0.3886406719540706
161,1176.3,0.3740691824311156
162,1184.46,0.3791127039610494
163,1195.4199999999998,0.36516958925125487
164,1203.7,0.35574700065662884
165,1214.84,0.3450394207599945
166,1226.08,0.35101233242622687
167,1234.58,0.35730793526990806
168,1246.0,0.35518672174930077
169,1254.6399999999999,0.3499050027809955
170,1258.92541,0.3463925890013581
171,1266.2499999999998,0.3413199583478035
172,1275.03,0.34625066149575356
173,1283.86,0.3450641790921546
174,1295.74,0.3336523180440506
175,1304.73,0.3304522138754939
176,1313.77,0.334642174155388
177,1325.9299999999998,0.32916161001860833
178,1335.12,0.32234109364385455
179,1344.3700000000001,0.32498726660724164
180,1353.6899999999998,0.32091451379846
181,1366.22,0.3132163705802157
182,1375.69,0.3116461011167861
183,1385.22,0.3088817509914974
184,1394.82,0.30110354509403975
185,1404.49,0.2989772634244131
186,1414.23,0.2971554559826175
187,1424.03,0.29466939787896285
188,1433.8999999999999,0.29140319400313924
189,1440.5200000000002,0.29095159097801726
190,1445.43977,0.28975617686203975
191,1447.17,0.28950061998508847
192,1453.85,0.2869921807469719
193,1463.93,0.282274908064305
194,1474.0700000000002,0.27989657155614595
195,1484.29,0.2781576566139976
196,1494.5800000000002,0.27633670554210843
197,1504.9399999999998,0.2723096983404786
198,1511.8899999999999,0.2676299568876477
199,1515.3700000000001,0.2686308250091079
200,1525.87,0.26545379554799653
201,1536.45,0.25950860765289574
202,1543.54,0.2599085339405834
203,1554.24,0.2561689283944985
204,1565.02,0.2543868044144242
205,1575.8600000000001,0.2536057966088577
206,1586.79,0.25236710806505325
207,1594.11,0.2513578413550213
208,1605.1599999999999,0.24825555516023268
209,1616.29,0.2458041005314546
210,1623.75,0.24267914156194115
211,1635.0,0.241816169282179
212,1646.34,0.2396528562641787
213,1653.94,0.2359057550351838
214,1659.58691,0.23578341484386664
215,1665.3999999999999,0.23604104802447315
216,1673.0900000000001,0.23177884662566844
217,1676.95,0.2345308872369316
218,1684.69,0.23437955354034534
219,1696.3600000000001,0.23072929323812816
220,1704.1899999999998,0.22847749740553513
221,1716.01,0.22534160020997318
222,1723.9299999999998,0.2239371822413733
223,1735.8799999999999,0.22378250307157932
224,1743.8899999999999,0.22184603296697264
225,1755.98,0.22173331936339025
226,1764.0800000000002,0.21811091712277667
227,1776.3100000000002,0.21684534908540593
228,1784.51,0.21608831224922934
229,1796.8799999999999,0.21603252977807022
230,1805.17,0.21441425080588672
231,1813.5100000000002,0.21098178953592167
232,1826.08,0.2095487978736363
233,1834.51,0.2072470644676645
234,1842.9699999999998,0.2036503636830237
235,1855.75,0.2020186403700557
236,1864.3100000000002,0.2015674249898518
237,1872.9199999999998,0.20206991731186638
238,1885.9,0.19806037480777208
239,1894.61,0.19602457253422353
240,1903.3500000000001,0.19590175288200593
241,1905.46072,0.19545370829052983
242,1916.54,0.19355849707828582
243,1925.3899999999999,0.19181529582304063
244,1934.28,0.1909227632061898
245,1943.21,0.19185247922773335
246,1956.68,0.18884783070703812
247,1965.71,0.1903038133245676
248,1974.78,0.1895967045804915
249,1983.9,0.18768335413440826
250,1993.0500000000002,0.18603624266712088
251,2006.8700000000001,0.18496334223237643
252,2016.1299999999999,0.18330639702067356
253,2025.44,0.1826188901069636
254,2034.79,0.18119708183164807
255,2044.1799999999998,0.18143408219472693
256,2053.6099999999997,0.17894975119620016
257,2063.09,0.17793821849566627
258,2072.62,0.17892485409312542
259,2077.39,0.1821191617216543
260,2086.98,0.18435912527670495
261,2096.62,0.18106785712974863
262,2106.29,0.17967197796158804
263,2116.02,0.18019413675101906
264,2125.7799999999997,0.17784756451924585
265,2135.6,0.17466919024506417
266,2145.4500000000003,0.1772658349496782
267,2155.36,0.17679171761188392
268,2165.3,0.17300178925288534
269,2175.3,0.17194621885147834
270,2185.34,0.17406243708846572
271,2187.7616199999998,0.1739293383576074
272,2195.43,0.1737882274169084
273,2205.56,0.1720136657214494
274,2215.74,0.1665623403749763
275,2225.97,0.16746498137748905
276,2236.24,0.17283929345919058
277,2246.56,0.17021710188987793
278,2256.93,0.16420747666955118
279,2267.35,0.16268707779821037
280,2272.58,0.16420277390213428
281,2283.07,0.16934776191937367
282,2293.61,0.16383109628559894
283,2304.19,0.16700575173101295
284,2314.83,0.16202481879521002
285,2325.51,0.1544485869385958
286,2336.25,0.15418706670076468
287,2347.0299999999997,0.14904767754212223
288,2352.44,0.15734952850239534
289,2363.3,0.1486715915021303
290,2374.21,0.15105513085085118
291,2385.17,0.14443021654855792
292,2396.18,0.14629731859525058
293,2407.24,0.1448837769909291
294,2412.79,0.14652416172836275
295,2423.92,0.1548213770126215
296,2435.11,0.15370966391566332
297,2446.35,0.1577304271676911
298,2457.6400000000003,0.15834407676870466
299,2463.31,0.15366910474370443
300,2474.68,0.14968374650309546
301,2486.1,0.14139361461147237
302,2497.58,0.14246360433863237
303,2503.34,0.15220860974180672
304,2511.88643,0.14062817238910238
305,2514.8900000000003,0.13661687834789965
306,2520.69,0.13453599079644482
307,2526.5,0.1345593734561082
308,2532.32,0.1405649563268897
309,2544.0099999999998,0.14076189312404372
310,2555.75,0.1557256409767886
311,2567.55,0.14605389009624256
312,2573.47,0.15335220507820593
313,2585.3500000000004,0.14879214588660533
314,2597.28,0.14508005775059568
315,2603.2699999999995,0.14093399421038635
316,2615.2799999999997,0.1380910477633221
317,2627.36,0.14497974279408515
318,2633.41,0.16541392052058487
319,2645.5699999999997,0.18252127724029338
320,2657.78,0.20825070501559276
321,2663.91,0.17240271443103797
322,2676.2000000000003,0.18051276389528276
323,2682.37,0.1907304241552007
324,2694.75,0.16871502551950918
325,2707.19,0.18191276815052676
326,2713.43,0.16164418988827192
327,2725.96,0.15054869441935312
328,2732.2400000000002,0.161649477001571
329,2744.85,0.13750525322159768
330,2757.52,0.14711505070833342
331,2763.88,0.15935472497949674
332,2776.6400000000003,0.16249670436629615
333,2783.04,0.1398887194819322
334,2795.88,0.12041827055767704
335,2802.33,0.123552416728904
336,2815.2599999999998,0.1538504597047125
337,2821.75,0.17709815672041218
338,2834.78,0.17227639180740242
339,2847.8599999999997,0.15259640794998366
340,2854.43,0.13137111665462878
341,2867.6000000000004,0.17175745469727358
342,2874.21,0.19629326424639146
343,2884.0315,0.1885982708365051
344,2887.48,0.18595414575606709
345,2894.14,0.2052713721415369
346,2907.49,0.24266985768898763
347,2927.65,0.22308210350446378
348,2947.94,0.21299981801815482
349,2968.38,0.21851709641440148
350,2988.9500000000003,0.219701043508863
351,3009.67,0.21999055448588017
352,3030.53,0.22792143175328256
353,3051.54,0.23297057290324064
354,3072.69,0.2447911803435839
355,3086.87,0.24120746604117577
356,3108.27,0.26439031328577844
357,3129.8199999999997,0.25086922441293674
358,3151.51,0.24986640183048028
359,3173.36,0.26555904072274983
360,3188.01,0.24057691325234928
361,3210.1000000000004,0.2571229943567078
362,3232.35,0.2284824369357924
363,3247.27,0.287527044453992
364,3269.7799999999997,0.3215241244295063
365,3292.4500000000003,0.3159270658797466
366,3307.64,0.3006852083865464
367,3311.31121,0.2977046097853154
368,3322.91,0.28842387291829574
369,3330.5699999999997,0.3088105380943805
370,3338.25,0.2758914332056508
371,3345.95,0.3076924582521067
372,3353.66,0.28388179826615545
373,3361.3900000000003,0.28359966821538973
374,3369.14,0.2862443680998097
375,3376.9100000000003,0.2777750979194152
376,3384.69,0.2678176427066135
377,3392.4900000000002,0.30867391742899747
378,3400.3100000000004,0.32821982208656697
379,3408.1499999999996,0.30164335667932207
380,3416.0099999999998,0.28064992120726284
381,3423.88,0.3369271007027963
382,3431.7799999999997,0.32525782510110823
383,3439.69,0.31974666446701294
384,3447.6200000000003,0.25129723376810326
385,3455.56,0.3004150180367864
386,3463.53,0.2632017472082479
387,3471.5099999999998,0.31010529134730225
388,3479.52,0.2548032803891349
389,3487.54,0.28588218439856045
390,3495.58,0.2734875183431716
391,3503.64,0.33142968222296826
392,3511.71,0.32047246107035776
393,3519.81,0.31614758482052574
394,3527.92,0.25608912353828645
395,3536.05,0.31269819219123274
396,3544.21,0.3384595057469575
397,3552.38,0.344444834270275
398,3560.57,0.3256537927287781
399,3568.77,0.269433166154874
400,3577.0,0.2806243844837483
401,3585.25,0.23025343274780824
402,3593.5099999999998,0.286006395979461
403,3601.8,0.3555418041138921
404,3610.1,0.29363162721591596
405,3618.42,0.3337326802531255
406,3626.4,0.4404727243921798
407,3629.1400000000003,0.319668125512607
408,3631.88,0.24416532663303414
409,3634.62,0.3211057277534613
410,3637.36,0.3946934288738885
411,3640.1099999999997,0.4063524449619085
412,3642.8500000000004,0.4361359460823356
413,3645.59,0.3744626472027628
414,3648.3300000000004,0.24278144832318993
415,3651.07,0.2667127494436171
416,3653.81,0.4845656505640443
417,3656.55,0.4242508516844715
418,3659.29,0.5865783528048987
419,3662.03,0.5377587539253258
420,3664.77,0.465068955045753
421,3667.5099999999998,0.3266557561661802
422,3670.25,0.37764475728660735
423,3672.99,0.4165636584070345
424,3675.73,0.4129151595274617
425,3678.47,0.5220337606478889
426,3681.2200000000003,0.4516230767359088
427,3683.96,0.41523067785633605
428,3686.7,0.3814419789767632
429,3689.44,0.23707248009719034
430,3692.18,0.1869552812176175
431,3694.92,0.3611348823380447
432,3697.66,0.28269748345847184
433,3700.3999999999996,0.26497598457889904
434,3703.14,0.3855721856993262
435,3705.8799999999997,0.39918398681975337
436,3708.6200000000003,0.28993568794018054
437,3711.36,0.22539698906060773
438,3714.1000000000004,0.3367273901810349
439,3716.84,0.37874659130146204
440,3719.58,0.39063409242188923
441,3722.32,0.41896349354231643
442,3725.0699999999997,0.4264945096303364
443,3727.81,0.4965375107507636
444,3730.55,0.5036963118711907
445,3733.2900000000004,0.28360631299161787
446,3736.03,0.16642471411204507
447,3738.77,0.2601114152324722
448,3741.51,0.24227671635289938
449,3744.25,0.33442201747332656
450,3746.9900000000002,0.3114231185937537
451,3749.73,0.2054231197141809
452,3752.47,0.26387522083460807
453,3755.21,0.19674142195503524
454,3757.95,0.29148202307546245
455,3760.69,0.3041446241958896
456,3763.43,0.17970842531631678
457,3766.1699999999996,0.19906782643674395
458,3768.92,0.24527454252476388
459,3771.66,0.4343281436451911
460,3774.4,0.3671858447656182
461,3777.14,0.2711834458860454
462,3779.88,0.36038524700647256
463,3782.62,0.3552039481268998
464,3785.3599999999997,0.407734249247327
465,3788.1,0.4055400503677541
466,3790.8399999999997,0.4853194514881813
467,3793.58,0.3969803526086084
468,3796.32,0.3145195537290356
469,3799.0600000000004,0.46247815484946275
470,3801.8,0.41801265596989
471,3801.8939600000003,0.4108747342769127
472,3804.54,0.20988313134440809
473,3807.28,0.2530569834664109
474,3810.02,0.3822801355884137
475,3812.77,0.4484773853458983
476,3815.5099999999998,0.3653862374679011
477,3818.2500000000005,0.4065222895899039
478,3820.9900000000002,0.47659664171190674
479,3823.73,0.48868109383390956
480,3826.4700000000003,0.4167368459559123
481,3829.21,0.22690519807791515
482,3831.9500000000003,0.28454385019991796
483,3834.69,0.2855161023219208
484,3837.43,0.13808689444392358
485,3840.17,0.2028570065659264
486,3842.91,0.3223177586879292
487,3845.65,0.40904311080993205
488,3848.39,0.24114776293193485
489,3851.1299999999997,0.28621141505393766
490,3853.88,0.37719346481142224
491,3856.62,0.40053791693342505
492,3859.36,0.29045916905542785
493,3862.1,0.22072692117743067
494,3864.84,0.3771462732994335
495,3867.58,0.5098699254214363
496,3870.3199999999997,0.31623257754343914
497,3873.06,0.2501143296654419
498,3875.7999999999997,0.22015378178744474
499,3878.54,0.2993809339094476
500,3881.2799999999997,0.2649877860314504
501,3884.0200000000004,0.36695303815345315
502,3886.76,0.34907129027545597
503,3889.5,0.35863024239745883
504,3892.2400000000002,0.2808335945194616
505,3894.98,0.34190354664146444
506,3897.73,0.207238996398949
507,3900.47,0.3538960485209518
508,3903.2099999999996,0.42284700064295466
509,3905.9500000000003,0.43123895276495744
510,3908.69,0.35415670488696027
511,3911.4300000000003,0.29796615700896306
512,3914.17,0.4082915091309659
513,3916.9100000000003,0.42824836125296867
514,3919.65,0.4498163133749715
515,3922.39,0.3663505654969743
516,3925.13,0.3772070176189771
517,3927.87,0.41500776974097997
518,3930.61,0.3946005218629828
519,3933.35,0.4702311739849856
520,3936.0899999999997,0.4034074261069884
521,3938.83,0.42296367822899117
522,3941.58,0.20062142798647578
523,3944.32,0.3036574801084786
524,3947.06,0.3076429322304814
525,3949.8,0.2510169843524842
526,3952.54,0.425524036474487
527,3955.2799999999997,0.26961208859648983
528,3958.02,0.32718984071849266
529,3960.7599999999998,0.37496179284049547
530,3963.5,0.42198474496249827
531,3966.24,0.4247683970845011
532,3968.9799999999996,0.4721223492065039
533,3971.7200000000003,0.3917220013285067
534,3974.46,0.20723705345050952
535,3977.2000000000003,0.20490870557251234
536,3979.94,0.19111985769451514
537,3982.69,0.21129350745199973
538,3985.43,0.36463865957400254
539,3988.1699999999996,0.36232781169600536
540,3990.91,0.4454562638180082
541,3993.65,0.482725715940011
542,3996.3900000000003,0.44732236806201375
543,3999.13,0.5646669201840167
544,4001.8700000000003,0.6307963723060195
545,4004.61,0.45386202442802226
546,4007.35,0.49214167655002505
547,4010.09,0.40131722867202785
548,4012.83,0.48847798079403065
549,4015.57,0.6217069329160334
550,4018.31,0.5935404850380362
551,4021.0499999999997,0.5298083371600391
552,4023.79,0.7092101892820419
553,4026.54,0.5706512390395265
554,4029.28,0.5042370911615293
555,4032.02,0.5853365432835321
556,4034.76,0.6400751954055349
557,4037.5,0.5329312475275377
558,4040.24,0.6644531996495405
559,4042.98,0.5752573517715434
560,4045.72,0.5752543038935461
561,4048.46,0.542785856015549
562,4051.2,0.6208113081375517
563,4053.9399999999996,0.48939636025955463
564,4056.68,0.5289824123815574
565,4059.42,0.5780780645035603
566,4062.1600000000003,0.5533776166255631
567,4064.9,0.5488374687475659
568,4067.6400000000003,0.5685070208695686
569,4070.39,0.5990246706270532
570,4073.1299999999997,0.617361822749056
571,4075.87,0.5097648748710588
572,4078.6099999999997,0.5004349269930617
573,4081.3500000000004,0.5093233791150644
574,4084.09,0.5267461312370673
575,4086.8300000000004,0.5764513833590701
576,4089.57,0.5651620354810729
577,4092.31,0.5841696876030757
578,4095.05,0.6121734397250785
579,4097.79,0.6477534918470814
580,4100.53,0.6038420439690841
581,4103.2699999999995,0.563370296091087
582,4106.01,0.5574106482130898
583,4108.75,0.5601073003350927
584,4111.5,0.5180742500925772
585,4114.24,0.52954020221458
586,4116.9800000000005,0.5913764543365828
587,4119.72,0.6433284064585857
