,lambda (Angstroms),Total Flux (erg/s/cm^2/Angstrom)
0,102.05000000000001,95.83948779989504
1,103.95,95.56632842215441
2,104.712855,95.45665421315107
3,105.88,94.57523474529357
4,108.10000000000001,92.89870679148865
5,110.11,91.38076931980042
6,113.98,88.45817329222159
7,117.97999999999999,85.43740220428481
8,120.22644299999999,83.74090468801036
9,121.01,83.24479568549644
10,124.97,80.73752225171286
11,127.0,79.45222804197029
12,127.88000000000001,78.89505616779617
13,130.86,77.0082695938884
14,132.07,76.24215826689908
15,133.91,75.07716252998966
16,137.03,73.10173497609999
17,138.038426,72.46325019838886
18,139.9,71.62076665128704
19,143.16,70.14540420878147
20,147.17,68.3306178914739
21,150.94,66.62444721410203
22,155.17,64.71009656018391
23,158.489319,63.20788840458357
24,159.14999999999998,62.98183800960842
25,162.10999999999999,61.969081219079065
26,165.89,60.675763425778726
27,170.14000000000001,59.221636277231866
28,172.91,58.273887523959026
29,176.93,56.89845431524699
30,179.81,55.913069329916574
31,181.89000000000001,55.20140239607121
32,181.970086,55.17400116623316
33,186.13000000000002,54.088155760132736
34,190.9,52.84306209068959
35,194.0,52.03388171854436
36,198.07000000000002,50.97150619772998
37,202.21,49.890858862124674
38,205.03,49.15476574953584
39,208.929613,48.13686565340719
40,209.79999999999998,47.96605826965223
41,216.17999999999998,46.71402772686453
42,220.20000000000002,45.92513073923753
43,222.75,45.42471100838783
44,226.89000000000001,44.61226485720522
45,230.04,43.99409930979273
46,233.78,43.26015037681848
47,239.78,42.08269219349144
48,239.88329199999998,42.06242185830149
49,245.93,41.147998679647856
50,252.24,40.193758747788856
51,256.93,39.48450592349463
52,259.9,39.03536288674898
53,264.13,38.395674313990476
54,269.04,37.65315164332021
55,274.04,36.897018578058486
56,275.42287,36.687891831854
57,279.13,36.25764351033927
58,284.32,35.65529377308423
59,290.28000000000003,34.963578079281824
60,295.67,34.33801641205005
61,301.17,33.69968817393193
62,308.19,32.88494923284299
63,316.227766,31.952088701621346
64,318.28000000000003,31.774190385015316
65,327.95,30.93594449790952
66,337.92,30.071693052983406
67,348.19000000000005,29.18143605166676
68,357.12,28.40733723214657
69,363.078055,27.890862063725574
70,366.28000000000003,27.682998130483295
71,374.81,27.129247407545158
72,385.31,26.447608155804843
73,395.2,25.805568970861316
74,405.33,25.14794945784342
75,413.82,24.596795484059836
76,416.86938299999997,24.398835579440625
77,421.51,24.1687749649485
78,430.34000000000003,23.731023858006758
79,441.37999999999994,23.183711098308073
80,450.62,22.725634108296486
81,460.06,22.257641998428
82,469.68999999999994,21.78023061061666
83,478.630092,21.337021750090077
84,479.53000000000003,21.30271001422227
85,489.57,20.919904328495644
86,499.82,20.52909190017653
87,505.61,20.308331126585266
88,511.46,20.085288977828437
89,519.77,19.768446112340342
90,529.43,19.40013081359198
91,540.52,18.97729102081992
92,549.5408739999999,18.633350877605015
93,550.57,18.603418711709526
94,559.52,18.343106597458448
95,569.92,18.040620087323727
96,580.51,17.732600277501973
97,589.9499999999999,17.458044043422767
98,599.53,17.17940799056838
99,610.68,16.85511814259591
100,620.6,16.566602538958943
101,630.68,16.27343310570606
102,630.957344,16.265366506341902
103,639.46,16.069321997189647
104,649.85,15.829782122076438
105,657.37,15.656410406947725
106,664.99,15.480727628796553
107,674.24,15.267454865819342
108,685.1899999999999,15.01498310756038
109,694.72,14.795328610160292
110,704.39,14.572362753748767
111,715.8299999999999,14.308663071399767
112,724.43596,14.110260529018074
113,725.7900000000001,14.087090251777584
114,734.2,13.943183672343302
115,744.41,13.768524469727494
116,754.77,13.591273235204884
117,765.27,13.41162914682927
118,774.13,13.260080264074608
119,784.9000000000001,13.07584349344676
120,795.82,12.889014405612121
121,805.0300000000001,12.731459668874937
122,814.3499999999999,12.572018792546107
123,825.6800000000001,12.378261102306226
124,831.763771,12.27400235473184
125,835.24,12.22945417307505
126,844.91,12.106106379370743
127,854.7,11.980949831180965
128,864.5899999999999,11.854598740753294
129,874.61,11.72659637171636
130,884.7299999999999,11.597374205441534
131,894.9799999999999,11.466429598557445
132,905.34,11.33393832631167
133,915.8199999999999,11.201455545580432
134,924.3,11.120188251607056
135,935.0,11.024011749152447
136,945.83,10.957639143088574
137,954.58,10.915866384772889
138,954.992586,10.91162482868421
139,965.63,10.805207407695187
140,974.57,10.48688663351359
141,985.85,10.51286786904285
142,994.98,10.42398257265829
143,1004.18,10.4383144817779
144,1015.8100000000001,10.290077724828015
145,1025.21,9.970693921102399
146,1034.7,9.945577081596431
147,1044.27,10.091375376952374
148,1053.93,9.970602836527963
149,1066.14,9.703621882326924
150,1076.0,9.676582229057288
151,1085.96,9.44211156936504
152,1096.0,9.472818644534701
153,1096.4782,9.46625198791142
154,1106.15,9.355380946044098
155,1113.81,9.258292468741745
156,1124.12,9.104456923704241
157,1134.52,9.154823325800258
158,1145.02,8.992584891377966
159,1155.61,8.936922304089203
160,1166.31,8.857622396630298
161,1174.39,8.56735660595105
162,1185.26,8.662160276411022
163,1196.22,8.330218294004519
164,1204.52,8.115801462984994
165,1215.6599999999999,7.915060174845539
166,1224.0900000000001,8.072273956352213
167,1235.41,8.228316162479802
168,1243.98,8.227721272860848
169,1255.49,8.074212389603652
170,1258.92541,7.993356628376615
171,1264.19,7.884940243500013
172,1275.89,8.029854342867754
173,1284.73,8.02287198461227
174,1293.64,7.736779814130778
175,1305.6100000000001,7.650130723483928
176,1314.66,7.803501728550429
177,1323.77,7.700586080280353
178,1336.02,7.495728940729483
179,1345.2800000000002,7.6187659091179665
180,1354.6,7.525939124169878
181,1363.99,7.348463326995781
182,1373.45,7.338288817595681
183,1386.1599999999999,7.2650996691310645
184,1395.77,7.074163476389525
185,1405.44,7.045564630311409
186,1415.18,6.996059272007288
187,1424.9899999999998,6.961156301477164
188,1434.8700000000001,6.888567618721032
189,1441.49,6.902229133918849
190,1445.43977,6.884824750937928
191,1448.15,6.878861872868429
192,1454.83,6.818833866626353
193,1464.92,6.689761535491236
194,1475.07,6.643598028551553
195,1485.29,6.615964949839871
196,1495.59,6.588509903388763
197,1505.96,6.479898885165657
198,1512.91,6.341067887803015
199,1516.3999999999999,6.389738295170553
200,1523.4,6.32961621797077
201,1533.95,6.161508172333956
202,1544.5900000000001,6.189952562990287
203,1555.29,6.09515247784205
204,1566.07,6.058686224954385
205,1573.3,6.077902840503752
206,1584.21,6.07245944003952
207,1595.19,6.0337348678032905
208,1606.25,5.967817127827635
209,1613.66,5.944994515963293
210,1624.85,5.839928628411071
211,1636.1100000000001,5.844428469086848
212,1643.66,5.823422113678512
213,1655.06,5.697266410810297
214,1659.58691,5.707436418166223
215,1666.53,5.733643013214688
216,1670.37,5.622354369529031
217,1678.0800000000002,5.690611531816424
218,1685.8300000000002,5.712559626982093
219,1693.6100000000001,5.629024071806466
220,1705.35,5.5468670715800075
221,1713.22,5.4623958653805
222,1725.09,5.418140947008432
223,1733.06,5.452308673004609
224,1745.07,5.388719719706502
225,1753.12,5.423430411459229
226,1765.28,5.30213010645465
227,1773.42,5.2912143471834945
228,1785.72,5.269869607252876
229,1793.96,5.303345080177406
230,1806.3899999999999,5.256251822101182
231,1814.73,5.140379727221397
232,1823.11,5.141319565219886
233,1835.7499999999998,5.058224054754603
234,1844.22,4.95556514172921
235,1857.0,4.901831196337885
236,1865.57,4.8969593155081785
237,1874.19,4.953725550776315
238,1882.8400000000001,4.839861635703158
239,1895.89,4.749459637240185
240,1904.6399999999999,4.781648454362715
241,1905.46072,4.77489961964834
242,1913.43,4.716972725142682
243,1926.69,4.666389987257912
244,1935.5900000000001,4.685450752176883
245,1944.5200000000002,4.684617195516928
246,1953.5,4.5992092695587665
247,1967.04,4.6472442636040325
248,1976.1200000000001,4.653305799049453
249,1985.24,4.571510639056309
250,1994.4,4.523194583624597
251,2003.6100000000001,4.532939058894677
252,2012.85,4.4744642125858345
253,2026.81,4.487003304526152
254,2036.1599999999999,4.400833845761251
255,2045.56,4.40738011769814
256,2055.0,4.346934394196464
257,2064.49,4.3281430013965805
258,2074.02,4.356000113158129
259,2078.8,4.282834708249441
260,2083.5899999999997,4.307618729481113
261,2093.21,4.233536676505887
262,2102.87,4.221455128092096
263,2112.58,4.201850210380096
264,2127.22,4.174115079864785
265,2137.04,4.095045149696727
266,2146.9,4.076386524090103
267,2156.81,4.083423729185272
268,2166.77,4.035054064982232
269,2176.77,3.999646605340626
270,2186.8199999999997,3.950064976400812
271,2187.7616199999998,3.950739076990785
272,2196.91,3.9650333447794135
273,2207.05,3.9251477465605777
274,2217.2400000000002,3.875430208902794
275,2227.47,3.8268894396938515
276,2232.6099999999997,3.860309785369905
277,2242.91,3.8088658609464336
278,2253.27,3.767658189196223
279,2263.67,3.771917685894853
280,2274.12,3.7717205431545353
281,2284.61,3.7701762688630573
282,2295.16,3.715854547244842
283,2305.75,3.695361294075466
284,2316.3900000000003,3.6473749014671415
285,2327.09,3.487177861532079
286,2332.4500000000003,3.5863813336767576
287,2343.22,3.561239138527167
288,2354.03,3.577216511826416
289,2364.9,3.5211666377989266
290,2375.81,3.515270532220279
291,2386.78,3.466078579314892
292,2392.2799999999997,3.496663741030515
293,2403.33,3.4497873250228093
294,2414.42,3.4465397774639452
295,2425.56,3.451455890466132
296,2436.76,3.40525795614158
297,2442.38,3.432603923203725
298,2453.65,3.4014306336646443
299,2464.98,3.3828248967988257
300,2476.35,3.342383628381848
301,2487.78,3.351749512638131
302,2493.52,3.299700085046798
303,2505.0299999999997,3.338830406200764
304,2510.8,3.2764711549460612
305,2511.88643,3.2800728173117415
306,2516.59,3.2977889836591783
307,2522.39,3.2590678339761334
308,2534.0299999999997,3.2496801590949875
309,2545.73,3.2205011209412575
310,2557.4799999999996,3.2386708133937097
311,2563.38,3.224555324923025
312,2575.21,3.2424029663453653
313,2587.1,3.2233065444951228
314,2593.06,3.2137435927518556
315,2605.0299999999997,3.1785750198715017
316,2617.05,3.1610180775973284
317,2623.09,3.16893087482395
318,2635.19,3.1593200815196663
319,2647.36,3.1798585310640344
320,2653.46,3.170028665018073
321,2665.71,3.115461063532331
322,2678.01,3.1238172926527694
323,2684.19,3.110569775576697
324,2696.58,3.075992659788261
325,2702.79,3.0775391610758973
326,2715.27,3.0446647003785854
327,2727.8,3.031199370287455
328,2734.09,3.05082272054498
329,2746.71,2.9729354455449744
330,2753.04,2.969153220287444
331,2765.75,2.9678876003785635
332,2772.1200000000003,2.9835831996059774
333,2784.92,2.9600222347882226
334,2797.77,2.8504826005766484
335,2804.2200000000003,2.879713048773951
336,2817.17,2.9301700757747384
337,2823.66,2.9265199484569857
338,2836.69,2.8798004244276614
339,2843.23,2.8647405277160893
340,2856.36,2.8488369648991263
341,2862.94,2.865919792672499
342,2876.16,2.838498084946662
343,2882.79,2.834560643326215
344,2884.0315,2.8321484873528684
345,2896.09,2.8133932551666105
346,2909.46,2.8287382250679247
347,2929.6299999999997,2.798023922368561
348,2949.9399999999996,2.7722499669980065
349,2970.38,2.757851077004203
350,2990.97,2.738387216291268
351,3011.71,2.7237246848592
352,3032.5800000000004,2.7056631188038835
353,3046.58,2.687448751684841
354,3067.7,2.6642030344309706
355,3088.96,2.6457369645059092
356,3110.37,2.618936023861716
357,3131.93,2.5952986124983894
358,3146.39,2.5832488151740067
359,3168.2,2.557756852612126
360,3190.1600000000003,2.5195074193311124
361,3212.27,2.509661515330967
362,3227.1,2.4877110502327238
363,3249.47,2.471273676986082
364,3272.0,2.4515362149723647
365,3287.1,2.4356448625796823
366,3309.88,2.414081049367411
367,3311.31121,2.4137718520651172
368,3325.16,2.4145439539261044
369,3332.83,2.4045511510772193
370,3340.5099999999998,2.374303548094242
371,3348.2099999999996,2.3941620448430796
372,3355.93,2.3669685413237316
373,3363.66,2.360228637670292
374,3371.42,2.336754133614575
375,3379.19,2.3574870294247656
376,3386.98,2.3743805249667713
377,3394.79,2.362695120240592
378,3402.6099999999997,2.3479220153803206
379,3410.46,2.320981810117772
380,3418.32,2.3341861047211308
381,3426.2,2.338298899056305
382,3434.1,2.331380593123294
383,3442.0099999999998,2.316607087056191
384,3449.95,2.3096821805868104
385,3457.8999999999996,2.2842648739833376
386,3465.87,2.2800878671116793
387,3473.8599999999997,2.286590659971837
388,3481.8700000000003,2.274734652563809
389,3489.9,2.282853344887597
390,3497.94,2.274005837077292
391,3506.0099999999998,2.2559759288647103
392,3514.09,2.245675420518036
393,3522.19,2.253570611903177
394,3530.31,2.2431830030201327
395,3538.4500000000003,2.2450216938689036
396,3546.6,2.2438323845835826
397,3554.78,2.2426357748959838
398,3562.97,2.2367922650742926
399,3568.73,2.0348760878370595
400,3571.4,1.9489595520343836
401,3574.0699999999997,2.193708516231708
402,3576.74,2.502999280429032
403,3579.3999999999996,2.201330344760449
404,3582.07,1.7118213089577727
405,3584.7400000000002,1.537838860155097
406,3587.41,1.9576424373524215
407,3590.07,1.9143625016838377
408,3592.74,2.727095665881162
409,3595.41,2.723569430078486
410,3598.0800000000004,2.3351913942758102
411,3600.75,1.7703542584731344
412,3603.4100000000003,1.674940522804551
413,3606.08,1.9169157870018754
414,3608.75,2.0811769511991995
415,3611.42,2.4960558153965238
416,3614.08,1.7088453797279404
417,3616.7500000000005,1.8418053439252642
418,3619.42,1.7088181081225886
419,3622.09,1.8433681723199127
420,3624.76,1.988058036517237
421,3627.42,1.4214893008486535
422,3630.09,2.0855822650459777
423,3632.7599999999998,1.756258729243302
424,3635.43,1.4743092234406263
425,3638.09,1.3132377577720427
426,3640.76,2.282104221969367
427,3643.43,2.6855855861666913
428,3646.1,2.0561644503640153
429,3648.7599999999998,1.8457788146954321
430,3651.43,1.7469616788927562
431,3654.1,2.0889058430900804
432,3656.7699999999995,2.4635811072874048
433,3659.44,2.3194516714847286
434,3662.1,2.1757333358161453
435,3664.77,1.7758169000134694
436,3667.44,2.5506886642107935
437,3670.1099999999997,2.441695128408118
438,3672.77,1.9900068927395345
439,3675.4399999999996,2.195093256936859
440,3678.11,2.4266211211341826
441,3680.78,2.523454085331507
442,3683.45,1.7333590495288311
443,3686.11,2.1617894138602476
444,3688.7799999999997,2.037791878057572
445,3691.45,1.898610542254896
446,3694.1200000000003,2.22306590645222
447,3696.78,2.4051262707836365
448,3699.4500000000003,1.8618010349809608
449,3702.12,2.0210942991782854
450,3704.79,1.9583345633756093
451,3707.46,1.9181907275729335
452,3710.12,2.03785029190435
453,3712.7900000000004,2.216394256101674
454,3715.46,2.3525302202989984
455,3718.13,1.8718462844963226
456,3720.79,2.1837317488277392
457,3723.46,2.628318713025063
458,3726.13,2.7773354772223877
459,3728.7999999999997,3.3897072414197122
460,3731.4700000000003,3.1400090056170358
461,3734.13,2.9002013699484523
462,3736.8,2.279372534145777
463,3739.47,2.047002798343101
464,3742.14,2.101649462540425
465,3744.7999999999997,2.142223926871842
466,3747.47,2.359829991069166
467,3750.1400000000003,2.35163625526649
468,3752.81,2.114418919463814
469,3755.4700000000003,1.9486247837952306
470,3758.14,2.313345347992555
471,3760.81,2.403948912189879
472,3763.48,2.283156376387203
473,3766.1499999999996,2.330831740584528
474,3768.8100000000004,2.046349504915944
475,3771.48,1.8486948691132683
476,3774.15,2.1435437333105924
477,3776.82,2.3008732975079167
478,3779.48,2.020637761839333
479,3782.15,2.2559722260366577
480,3784.8199999999997,2.3902451902339816
481,3787.4900000000002,2.2377422544313057
482,3790.1600000000003,2.08233511862863
483,3792.82,1.6050931829600465
484,3795.4900000000002,2.0837470471573702
485,3798.16,2.4106067113546947
486,3800.83,1.8976308755520193
487,3801.8939600000003,1.8507216248565301
488,3803.49,1.7806588595260517
489,3806.1600000000003,2.2705488246016645
490,3808.8300000000004,2.3695360896772777
491,3811.5,2.4250739547528912
492,3814.17,2.471517819828504
493,3816.83,2.3029289708027108
494,3819.5,2.4386542358783236
495,3822.1699999999996,2.5686511009539372
496,3824.8399999999997,1.9069693660295506
497,3827.5,2.107225917003757
498,3830.17,2.07055758207937
499,3832.84,2.1847491471549834
500,3835.5099999999998,2.0221407122305965
501,3838.18,1.9483736773062095
502,3840.8399999999997,2.196446328280416
503,3843.5099999999998,2.3669073933560294
504,3846.1800000000003,1.7516592584316424
505,3848.85,2.092771423507256
506,3851.51,2.487898674481462
507,3854.18,2.6420535395570752
508,3856.85,2.4270414046326882
509,3859.52,2.133424469708302
510,3862.18,2.390612820682508
511,3864.8500000000004,2.2099547857581214
512,3867.52,2.6360225508337347
513,3870.19,2.580203415909348
514,3872.86,2.5043322809849613
515,3875.52,2.535982831959167
516,3878.19,2.1596532970347804
517,3880.8599999999997,2.542451562110394
518,3883.53,2.441520427186007
519,3886.19,2.4461079781602133
520,3888.86,2.0922143432358267
521,3891.53,1.6732981083114395
522,3894.2,1.6318828733870532
523,3896.87,2.4375724384626665
524,3899.5299999999997,2.2923414894368728
525,3902.2000000000003,2.3680918545124854
526,3904.87,1.8302865195880993
527,3907.54,2.1877847846637124
528,3910.2,2.248820735637919
529,3912.87,2.6709620007135317
530,3915.54,2.5250398657891453
531,3918.2099999999996,2.4811197308647586
532,3920.88,2.4120195959403716
533,3923.54,2.317007746914578
534,3926.21,2.561486011990191
535,3928.88,2.689318877065804
536,3931.5499999999997,2.0350690421414175
537,3934.21,1.808706893115624
538,3936.8799999999997,2.415763158191237
539,3939.55,1.8613912232668501
540,3942.2200000000003,2.037461288342463
541,3944.89,2.136368353418077
542,3947.55,2.107741604392283
543,3950.22,2.5360131694678962
544,3952.89,2.4300340345435094
545,3955.5600000000004,2.5021178996191225
546,3958.2200000000003,2.146551850593329
547,3960.8900000000003,2.4924723156689423
548,3963.56,2.4624941807445557
549,3966.23,2.1054764458201687
550,3968.9,2.196130310895782
551,3971.56,1.7519421618699886
552,3974.2300000000005,1.9659128269456014
553,3976.9,1.9827096920212148
554,3979.57,1.879896457096828
555,3982.23,2.410218608071035
556,3984.9,2.3536984731466477
557,3987.5699999999997,2.121598838222261
558,3990.24,2.211411503297874
559,3992.8999999999996,2.4802387542720807
560,3995.57,2.4020436193476935
561,3998.2400000000002,3.024903484423307
562,4000.91,2.33842234949892
563,4003.58,2.295523414574533
564,4006.24,2.29730556554874
565,4008.91,2.413880630624353
566,4011.58,2.2952417956999662
567,4014.2499999999995,2.6938643607755797
568,4016.9100000000003,2.5893189117497855
569,4019.58,2.377992776825399
570,4022.25,2.6079276419010124
571,4024.92,2.671437506976625
572,4027.5899999999997,2.3864143720522386
573,4030.25,2.237677723026445
574,4032.9199999999996,2.3307157881020584
575,4035.59,2.6009546531776713
576,4038.26,2.4116635182532846
577,4040.92,2.3750650692274906
578,4043.59,2.5398169343031043
579,4046.2599999999998,2.4531887993787174
580,4048.93,2.3929626644543305
581,4051.6000000000004,2.3306525295299436
582,4054.26,1.9810761805041501
583,4056.9300000000003,2.0676439455797633
584,4059.6,2.4505628106553767
585,4062.27,2.50119267573099
586,4064.93,2.5261922267051964
587,4067.6,2.81073509178081
588,4070.2700000000004,2.2991109568564227
589,4072.94,2.1886246219320356
590,4075.6,2.0862805729062424
591,4078.27,2.400070237981855
592,4080.94,2.5517611030574687
593,4083.6099999999997,2.314993968133082
594,4086.2799999999997,2.291946833208695
595,4088.9399999999996,2.512698384182902
596,4091.61,2.303254249258515
597,4094.28,2.295912114334128
598,4096.95,2.379995979409741
599,4099.610000000001,2.3565185303839473
600,4102.28,2.2227547954595606
601,4104.95,2.136266960535174
602,4107.62,1.9991789256107872
603,4110.29,1.9395543906864006
604,4112.95,2.140292041660607
605,4115.62,2.1770604067362203
606,4118.29,2.349845271811833
607,4120.96,2.542000136887446
