,lambda (Angstroms),Total Flux (erg/s/cm^2/Angstrom)
0,102.02,73.39458209048196
1,103.92,73.18548789691087
2,104.712855,73.0982404743695
3,106.09,72.30190442769995
4,108.07000000000001,71.15701652526212
5,110.08,69.99494718642676
6,113.94,67.76307653174288
7,117.95,65.4444744190713
8,120.22644299999999,64.13182357245584
9,120.97,63.77256128882194
10,124.94,61.84894437420043
11,126.97,60.865134652890184
12,128.14000000000001,60.29825174590349
13,131.13,58.849118239604174
14,132.04,58.40953235294786
15,133.87,57.52263109996867
16,136.98999999999998,56.01254307800417
17,138.038426,55.50448741481696
18,139.86,54.87367083948782
19,143.12,53.769329712649395
20,147.13,52.433237415372666
21,150.9,51.12980312663621
22,155.13,49.668187817364256
23,158.489319,48.50821613781808
24,159.11,48.346376417051275
25,162.07,47.57408948789101
26,165.84,46.59228653554837
27,170.09,45.48284220280134
28,172.85999999999999,44.76070963463449
29,176.89,43.70887183040613
30,180.17,42.85247261430962
31,181.83999999999997,42.41702688873609
32,181.970086,42.383067245761715
33,186.07999999999998,41.56546155580426
34,190.85000000000002,40.6167981282294
35,193.95,40.00111626292918
36,198.01,39.19296486063276
37,202.16000000000003,38.36795968611795
38,204.97000000000003,37.809127942410335
39,208.929613,37.01578191532911
40,210.23,36.819747492652475
41,216.12,35.94673536079926
42,220.14,35.34726565756497
43,223.2,34.88780478346126
44,226.82999999999998,34.34749165143628
45,229.98000000000002,33.96016618397656
46,234.26,33.484742566602755
47,239.88329199999998,32.73111933702834
48,240.27,32.692624089017045
49,245.86,32.002249997784325
50,252.17,31.291987287645064
51,256.86,30.656268720045517
52,259.83,30.376699742056047
53,264.05,29.907028875687157
54,268.96,29.32939572453284
55,273.96,28.739302671015203
56,275.42287,28.56678256812733
57,279.06,28.23579310654304
58,284.24,27.769064117591306
59,290.2,27.208760910998198
60,296.27,26.664420380122326
61,301.09000000000003,26.22074070700507
62,308.1,25.593058595894718
63,316.227766,24.866274653481774
64,318.19,24.73495045170627
65,327.86,24.07867591472693
66,337.82,23.400281163712023
67,348.09,22.701279983900463
68,357.02,22.09821679308087
69,363.078055,21.693013360998478
70,366.17999999999995,21.537239518379874
71,374.71,21.100384795752014
72,385.2,20.55341178597871
73,395.09000000000003,20.06448005798462
74,405.22,19.55545991727885
75,413.71,19.12281858010294
76,416.86938299999997,18.96112960307754
77,422.36999999999995,18.744248334518577
78,430.21999999999997,18.436501480917403
79,441.26,18.011482561840083
80,450.5,17.65040634804711
81,459.93,17.280919210918565
82,469.56,16.90746361764732
83,478.630092,16.559747139453165
84,480.5,16.504452900401017
85,490.56,16.197009380465907
86,499.68,15.930724374123143
87,505.47,15.75240010529369
88,512.5,15.560247148321144
89,519.63,15.345409066498346
90,530.51,15.017258302791191
91,540.37,14.714040532556579
92,549.5408739999999,14.439693109153623
93,550.42,14.41948118900912
94,559.36,14.225947425104772
95,569.76,13.995525443381593
96,580.35,13.75246847372309
97,589.78,13.539712193564476
98,599.37,13.312810818302427
99,610.51,13.04483254672587
100,620.4300000000001,12.844448550312991
101,630.51,12.61230465879668
102,630.957344,12.602427586992906
103,639.28,12.457088453479841
104,649.67,12.267928804330749
105,658.71,12.100938434811232
106,664.8,11.997531324482265
107,675.5999999999999,11.805875987445674
108,685.0,11.627988970024935
109,694.53,11.464781368639867
110,704.1899999999999,11.280688783290474
111,715.63,11.087751194429487
112,724.43596,10.930461784650284
113,725.59,10.915099885074486
114,735.68,10.78085349530243
115,744.2,10.664448826832862
116,754.56,10.525694479257192
117,765.0500000000001,10.375399085331633
118,775.7,10.244187649744674
119,784.68,10.11906288649858
120,795.59,9.978009658211846
121,804.81,9.856917132473653
122,814.13,9.733074155697084
123,825.4499999999999,9.583524958153012
124,831.763771,9.491895300300433
125,835.0100000000001,9.455527991503068
126,844.6800000000001,9.369617198711946
127,854.4599999999999,9.27114087977739
128,864.35,9.174251954699397
129,874.36,9.075093895646745
130,884.49,8.974133102619438
131,894.73,8.872539853448695
132,905.09,8.768560160303295
133,915.57,8.669007513183239
134,924.04,8.659794150138687
135,934.74,8.630956170731759
136,945.5600000000001,8.593893477350173
137,954.3100000000001,8.553357625031422
138,954.992586,8.548026415040155
139,965.36,8.469247608278577
140,974.3000000000001,8.181311636683613
141,985.58,8.206154779906079
142,994.7,8.111722978681689
143,1003.9,8.090381064288664
144,1015.5300000000001,7.981457399898349
145,1024.92,7.767912904229816
146,1034.41,7.748949492100488
147,1043.98,7.770616466802526
148,1056.0700000000002,7.639080726692561
149,1065.84,7.481732368473012
150,1075.7,7.420418045438748
151,1085.6499999999999,7.26449755758977
152,1095.7,7.234085053279997
153,1096.4782,7.225206361566716
154,1105.84,7.134659307952671
155,1116.07,7.043362918763936
156,1123.81,6.941728820785364
157,1134.2,6.915550572723687
158,1144.7,6.812065759186865
159,1155.29,6.731427637534011
160,1165.98,6.64261962908557
161,1174.06,6.477764556001995
162,1184.93,6.475671931321493
163,1195.89,6.3339412985249615
164,1204.18,6.225111573170651
165,1215.32,6.087100324142061
166,1223.75,6.107684597273925
167,1235.0700000000002,6.076074432013272
168,1243.63,6.019666682310873
169,1255.1399999999999,5.917802922138605
170,1258.92541,5.879180840239245
171,1263.84,5.840111688174242
172,1275.53,5.8154544455019845
173,1284.37,5.771654553951704
174,1296.26,5.6517257883936916
175,1305.24,5.599422250823385
176,1314.29,5.592242590243066
177,1326.45,5.508817878789287
178,1335.6499999999999,5.430663726044653
179,1344.9,5.410143542578578
180,1354.2299999999998,5.347438189958206
181,1363.6100000000001,5.2687708066163905
182,1376.23,5.200204172525381
183,1385.77,5.1441102508749665
184,1395.3799999999999,5.031532506214539
185,1405.05,4.974199984688384
186,1414.79,4.959006340152216
187,1424.6000000000001,4.900402772606035
188,1434.4699999999998,4.849530228194128
189,1441.09,4.817543880675705
190,1445.43977,4.7936244719299435
191,1447.7400000000002,4.784861750565401
192,1454.4299999999998,4.749321185224346
193,1464.51,4.693803607401048
194,1474.66,4.654166772092867
195,1484.88,4.616001079299802
196,1495.17,4.574074829021853
197,1505.54,4.520578870189753
198,1512.49,4.4729305770476975
199,1515.97,4.4680606049420355
200,1526.48,4.4223594311401655
201,1533.53,4.366127727305419
202,1544.16,4.3180406406723195
203,1554.8600000000001,4.271574096554336
204,1565.64,4.242526743882199
205,1576.49,4.210315133725179
206,1583.77,4.186677955297243
207,1594.75,4.145260681239723
208,1605.8,4.096332649697319
209,1613.2099999999998,4.064567007368884
210,1624.39,4.014462611925982
211,1635.6499999999999,3.9788201079289265
212,1643.2,3.949335750630722
213,1654.59,3.8960681827331682
214,1659.58691,3.880383864002366
215,1666.06,3.867639821766556
216,1673.75,3.8281202873175224
217,1677.61,3.840338493952988
218,1685.36,3.820600054943884
219,1693.1299999999999,3.788009014414756
220,1704.87,3.749561222160964
221,1716.6899999999998,3.7068442238270793
222,1724.6100000000001,3.682263621897774
223,1736.5700000000002,3.658458612923724
224,1744.58,3.6322539541543155
225,1756.6799999999998,3.6052092345401006
226,1764.78,3.5723955189305845
227,1777.02,3.5372639886762065
228,1785.2199999999998,3.5177389654665734
229,1793.46,3.5015647392168927
230,1805.89,3.4658525445222907
231,1814.23,3.4294384106724936
232,1826.8000000000002,3.397456905337726
233,1835.23,3.3688618146478233
234,1843.71,3.333296970157861
235,1856.49,3.297975798862848
236,1865.05,3.2774756482927927
237,1873.66,3.2622020439226778
238,1886.65,3.213696106667418
239,1895.3600000000001,3.1842882946971858
240,1904.11,3.1677311796869065
241,1905.46072,3.1630094501036368
242,1912.8999999999999,3.142440235538272
243,1926.16,3.1107755867286735
244,1935.0500000000002,3.097007072029025
245,1943.9799999999998,3.0846933849347797
246,1952.95,3.055757625445933
247,1966.49,3.040282369874141
248,1975.5700000000002,3.0246002363001474
249,1984.68,2.9996094734302057
250,1993.8500000000001,2.9774540519683637
251,2003.0500000000002,2.9620926012105726
252,2016.93,2.930856180284689
253,2026.24,2.9149234554417514
254,2035.6,2.889770715105564
255,2044.9899999999998,2.874955345473428
256,2054.43,2.8437274603480427
257,2063.91,2.8272252028280587
258,2073.44,2.820319729814825
259,2078.2200000000003,2.8199501286602335
260,2083.0099999999998,2.8240528844069934
261,2092.62,2.794781166604562
262,2107.13,2.7656980304637413
263,2116.86,2.752670695477513
264,2126.63,2.7284962880966854
265,2136.44,2.701451208321259
266,2146.31,2.693258269953933
267,2156.21,2.675363502290659
268,2166.17,2.645139776035485
269,2176.16,2.624016520484363
270,2186.21,2.6160225063413414
271,2187.7616199999998,2.613094790618497
272,2196.2999999999997,2.6025193247079006
273,2206.44,2.5856285527907494
274,2216.62,2.5534378403532156
275,2226.85,2.546666327265203
276,2237.13,2.5569444135267108
277,2247.46,2.5363511991377403
278,2252.64,2.5073678517481115
279,2263.04,2.48857291644847
280,2273.48,2.480542340628445
281,2283.98,2.4915225040278455
282,2294.52,2.455262226906863
283,2305.11,2.4575618491354003
284,2315.75,2.42574857071346
285,2326.44,2.38551899164104
286,2337.1800000000003,2.375115511918141
287,2342.56,2.3504913619265957
288,2353.38,2.36806270116293
289,2364.24,2.3238471998788817
290,2375.15,2.3199916979443533
291,2386.12,2.2829911352292513
292,2397.13,2.278265031993765
293,2402.66,2.2690396800507835
294,2413.75,2.2597230957745302
295,2424.8900000000003,2.2802599108477986
296,2436.08,2.264894225270589
297,2447.32,2.269748239042899
298,2452.97,2.2691474655387673
299,2464.29,2.231361498270311
300,2475.6600000000003,2.203371230351376
301,2487.09,2.152117801651866
302,2492.82,2.150024147106967
303,2504.3300000000004,2.177103837366691
304,2511.88643,2.1304410450474
305,2515.89,2.1071019340977304
306,2527.4999999999995,2.0905776316887996
307,2533.33,2.113662221865882
308,2545.02,2.103844891877906
309,2556.77,2.172121441205645
310,2562.66,2.1198561106984446
311,2574.49,2.1465046324471393
312,2586.37,2.1147013369589303
313,2592.34,2.094827978872684
314,2604.2999999999997,2.0657907558054305
315,2616.3199999999997,2.0429848120538927
316,2622.35,2.0712591332833625
317,2634.46,2.172225858505399
318,2646.62,2.243219866490532
319,2652.7200000000003,2.402111063588337
320,2664.96,2.1822331439944254
321,2677.27,2.210956800268849
322,2683.44,2.2711495732349896
323,2695.8199999999997,2.132695405377749
324,2702.04,2.2052638611069866
325,2714.5099999999998,2.0840639622233197
326,2727.04,2.0014495426553687
327,2733.33,2.056010674252942
328,2745.94,1.942265927105946
329,2752.27,1.9876043449139966
330,2764.98,2.038746863293194
331,2777.7400000000002,2.039888764435488
332,2784.14,1.9243442581118746
333,2796.99,1.8275298282277437
334,2803.4399999999996,1.8364974046672264
335,2816.38,1.9644901437566684
336,2822.87,2.0671951064066287
337,2835.9,2.0233644144696457
338,2842.44,1.9075585598827027
339,2855.56,1.8047686369192937
340,2862.1400000000003,1.9832424685428274
341,2875.35,2.126135514552993
342,2881.98,2.0758943289396243
343,2884.0315,2.0939757523293197
344,2895.29,2.1965469479668887
345,2908.6499999999996,2.4094185720996704
346,2928.81,2.2805558827671004
347,2949.1099999999997,2.1985039969808327
348,2969.56,2.205608279279888
349,2990.14,2.1997787005862235
350,3010.87,2.1686763899778816
351,3031.74,2.216345182915842
352,3052.75,2.2273464794001034
353,3066.84,2.313332414881457
354,3088.1,2.2648239248412576
355,3109.5099999999998,2.418846502886381
356,3131.06,2.3114072844778057
357,3152.76,2.3056676341545543
358,3167.32,2.3954177029699206
359,3189.27,2.229213566122207
360,3211.3799999999997,2.298549661898839
361,3233.64,2.1248245257607934
362,3248.56,2.473097017980935
363,3271.08,2.66210795985745
364,3293.76,2.618463734358309
365,3308.96,2.4952058336710543
366,3311.31121,2.483898030399587
367,3324.23,2.4244557607399715
368,3331.8999999999996,2.437565212275796
369,3339.58,2.2806806096415224
370,3347.27,2.582439952837153
371,3354.99,2.5511721335224937
372,3362.73,2.1255349058676405
373,3370.48,2.2725945240426904
374,3378.25,2.4660321338775475
375,3386.04,2.4183739353722107
376,3393.84,2.464032682696777
377,3401.6600000000003,2.65955732168115
378,3409.51,2.4216657981552334
379,3417.3700000000003,2.22336072045922
380,3425.24,2.47947958859311
381,3433.14,2.6671567942167087
382,3441.0499999999997,2.337216945670212
383,3448.9900000000002,2.2623939346134243
384,3456.94,2.3989818693865406
385,3464.91,2.204751895819463
386,3472.8900000000003,2.514080468082289
387,3480.9,2.2261528778348247
388,3488.9199999999996,2.383557633417264
389,3496.97,2.2746970264894126
390,3505.03,2.580395365391465
391,3513.1099999999997,2.391901595953324
392,3521.21,2.6235567181749886
393,3529.32,2.1407045862265575
394,3537.46,2.530856691767836
395,3545.61,2.537668543139018
396,3553.79,2.5885412319999093
397,3561.98,2.429194866690704
398,3570.1899999999996,2.1412604930413064
399,3574.56,2.343943720709044
400,3576.5099999999998,2.3072371575401855
401,3578.4700000000003,2.2917345402012304
402,3580.43,2.2082699228622755
403,3582.39,2.1874413055233206
404,3584.35,2.1357532881843655
405,3586.3,2.189325125015507
406,3588.2599999999998,2.2438045076765523
407,3590.2200000000003,2.305997890337597
408,3592.18,2.3190572729986423
409,3594.1299999999997,2.2814327098297835
410,3596.09,2.3846790924908285
411,3598.0499999999997,2.4228104751518735
412,3600.01,2.5231168578129184
413,3601.96,2.4738292946440597
414,3603.92,2.444458677305105
415,3605.88,2.4362110599661495
416,3607.84,2.375798442627195
417,3609.79,2.4066868794583365
418,3611.7500000000005,2.465482262119381
419,3613.71,2.4838676447804264
420,3615.67,2.4799370274414714
421,3617.62,2.579888464272613
422,3619.58,2.662837846933658
423,3621.54,2.681683229594703
424,3623.5,2.606391612255748
425,3625.4500000000003,2.574922049086889
426,3627.41,2.5642864317479344
427,3629.37,2.5068118144089793
428,3631.33,2.491400197070024
429,3633.2799999999997,2.543963633901166
430,3635.2400000000002,2.423303016562211
431,3637.2,2.4314033992232558
432,3639.1600000000003,2.459431781884301
433,3641.12,2.5984031645453456
434,3643.0699999999997,2.6292926013764877
435,3645.03,2.6698119840375325
436,3646.99,2.598286366698577
437,3648.9500000000003,2.5196887493596223
438,3650.9,2.5538841861907637
439,3652.86,2.724724568851809
440,3654.8199999999997,2.9056659515128542
441,3656.78,2.8858463341738987
442,3658.73,2.9847897710050404
443,3660.6899999999996,3.0489121536660857
444,3662.65,3.17153553632713
445,3664.6099999999997,2.9890659189881754
446,3666.56,2.934453355819317
447,3668.52,2.724524738480362
448,3670.48,2.794891121141407
449,3672.44,2.8088685038024517
450,3674.3900000000003,2.8147779406335935
451,3676.35,2.8325203232946383
452,3678.3100000000004,2.834925705955683
453,3680.27,2.8995980886167283
454,3682.22,2.75378752544787
455,3684.1800000000003,2.6060349081089145
456,3686.14,2.55728529076996
457,3688.1000000000004,2.6934096734310047
458,3690.05,2.8883261102621463
459,3692.01,2.927467492923191
460,3693.97,2.8732988755842364
461,3695.93,2.811508258245281
462,3697.89,2.7839736409063263
463,3699.8399999999997,2.885305077737468
464,3701.8,2.7419594603985127
465,3703.7599999999998,2.7896418430595578
466,3705.7200000000003,2.728402225720602
467,3707.67,2.839835662551744
468,3709.6299999999997,2.8674050452127897
469,3711.59,2.848503427873834
470,3713.5499999999997,2.845122810534879
471,3715.5,2.7287932473660206
472,3717.46,2.721463630027066
473,3719.42,2.690072012688111
474,3721.38,2.6934873953491554
475,3723.3300000000004,2.690579832180297
476,3725.29,2.6422892148413424
477,3727.2499999999995,2.6045605975023873
478,3729.21,2.491155980163432
479,3731.16,2.474747416994574
480,3733.12,2.4992857996556186
481,3735.08,2.449618182316664
482,3737.04,2.3655115649777088
483,3738.99,2.2950990018088504
484,3740.9500000000003,2.3974273844698955
485,3742.91,2.5020517671309404
486,3744.8700000000003,2.503998149791985
487,3746.83,2.4580955324530303
488,3748.7799999999997,2.385204969284172
489,3750.7400000000002,2.4580513519452167
490,3752.7,2.502887734606262
491,3754.6600000000003,2.4773741172673063
492,3756.61,2.416054554098448
493,3758.57,2.489819936759493
494,3760.53,2.581494319420538
495,3762.49,2.5718687020815834
496,3764.44,2.561154138912725
497,3766.3999999999996,2.6176535215737697
498,3768.36,2.7928099042348142
499,3770.3199999999997,2.8327782868958593
500,3772.27,2.8598107237270014
501,3774.23,2.862767106388046
502,3776.1899999999996,2.8925404890490913
503,3778.15,3.033531871710136
504,3780.1,3.0460543085412777
505,3782.06,3.1276256912023226
506,3784.02,3.012200073863368
507,3785.98,2.9006314565244127
508,3787.93,2.7008198933555545
509,3789.8900000000003,2.600915276016599
510,3791.85,2.601850658677644
511,3793.8100000000004,2.601318041338689
512,3795.76,2.605664478169831
513,3797.72,2.5713348608308757
514,3799.68,2.5621682434919206
515,3801.64,2.576696626152966
516,3801.8939600000003,2.5881822758777817
517,3803.6,2.665590090374257
518,3805.5499999999997,2.7185313698834603
519,3807.51,2.7216830610824543
520,3809.47,2.668353752281448
521,3811.4300000000003,2.5696544434804416
522,3813.38,2.471518722989645
523,3815.3399999999997,2.430220414188639
524,3817.3,2.4309851053876335
525,3819.2599999999998,2.3835327965866275
526,3821.21,2.2809880760958303
527,3823.17,2.197718767294824
528,3825.13,2.2110654584938185
529,3827.09,2.165910149692812
530,3829.0400000000004,2.195614429202015
531,3831.0,2.1649691204010093
532,3832.96,2.2173488116000035
533,3834.92,2.2398795027989977
534,3836.87,2.223203782308201
535,3838.83,2.264469473507195
536,3840.79,2.285531164706189
537,3842.75,2.2751828559051828
538,3844.7,2.314530135414386
539,3846.66,2.37995082661338
540,3848.62,2.432788517812374
541,3850.58,2.385796209011368
542,3852.53,2.341110488520571
543,3854.49,2.307159179719565
544,3856.4500000000003,2.411610870918559
545,3858.41,2.4829085621175535
546,3860.3700000000003,2.5603592533165473
547,3862.32,2.4520285328257505
548,3864.2799999999997,2.375004224024744
549,3866.2400000000002,2.3858709152237383
550,3868.2,2.4180446064227326
551,3870.15,2.3918188859319356
552,3872.11,2.3321525771309295
553,3874.07,2.3701122683299234
554,3876.0299999999997,2.4847579595289178
555,3877.9799999999996,2.547250239038121
556,3879.94,2.507971930237115
557,3881.8999999999996,2.481643621436109
558,3883.86,2.4843363126351026
559,3885.81,2.4986125921443065
560,3887.77,2.5331742833432997
561,3889.73,2.7215679745422943
562,3891.69,2.8377746657412883
563,3893.64,2.958677945250491
564,3895.6000000000004,2.989748636449485
565,3897.56,3.0706893276484792
566,3899.52,3.0800860188474735
567,3901.4700000000003,3.019055298356676
568,3903.43,3.035798989555671
569,3905.3900000000003,3.079910680754664
570,3907.35,3.1115323719536585
571,3909.3,3.1296686514628616
572,3911.2599999999998,3.1221663426618558
573,3913.2200000000003,3.15865603386085
574,3915.18,3.1314077250598435
575,3917.14,3.0781694162588376
576,3919.09,3.0248526957680406
577,3921.0499999999997,2.912653386967035
578,3923.01,2.7927400781660285
579,3924.97,2.6259877693650227
580,3926.92,2.564496048874226
581,3928.88,2.41464274007322
582,3930.8399999999997,2.2676364312722144
583,3932.8,2.133764122471208
584,3934.75,2.1591514019804112
585,3936.71,2.2960230931794054
586,3938.67,2.3844947843783992
587,3940.63,2.4851814755773933
588,3942.58,2.5617247550865967
589,3944.5400000000004,2.7584754462855905
590,3946.5,2.8711921374845844
591,3948.4599999999996,2.9800518286835787
592,3950.41,2.9768801081927814
593,3952.37,3.063605799391776
594,3954.33,3.07245149059077
595,3956.29,3.038959181789764
596,3958.2400000000002,2.9258544612989668
597,3960.2,2.783164152497961
598,3962.1600000000003,2.7178948436969548
599,3964.12,2.555459534895949
600,3966.0699999999997,2.5277648144051525
601,3968.03,2.448811505604146
602,3969.99,2.43846419680314
603,3971.9500000000003,2.3929408880021343
604,3973.91,2.4824225792011285
