,lambda (Angstroms),Total Flux (erg/s/cm^2/Angstrom)
0,100.03,4.982774489027576
1,101.89,4.968913692543895
2,104.02,4.953040844901399
3,104.712855,4.947877661024603
4,105.96,4.899058814374374
5,107.93,4.821944182543284
6,109.92999999999999,4.743655217225447
7,114.05999999999999,4.581988503391223
8,118.07,4.425019129011564
9,120.22644299999999,4.340606314181366
10,121.09,4.312265647390745
11,125.06,4.181976067956981
12,127.09,4.1153544443412295
13,127.97,4.086474137849708
14,130.96,3.9883467247447255
15,131.85999999999999,3.958810066627935
16,134.01,3.8882502246211046
17,137.13,3.7858564444029534
18,138.038426,3.756043242668538
19,140.0,3.7100283628106197
20,142.93,3.641296552391362
21,146.93,3.547465493391659
22,151.05,3.4508182972582646
23,154.93,3.359801141147253
24,158.489319,3.2763065952119033
25,158.9,3.2690233107667317
26,161.85000000000002,3.2167061188459747
27,166.01000000000002,3.142930117559986
28,169.86999999999998,3.0744745354882954
29,173.03,3.0184332025556304
30,177.06,2.946962847075203
31,179.94,2.895887323651749
32,181.970086,2.8598846651631997
33,182.01999999999998,2.8592093432868473
34,185.82999999999998,2.8076612520394333
35,191.04,2.7371715993988075
36,194.14000000000001,2.695229741914979
37,198.20999999999998,2.6401640683990837
38,201.89,2.5903752769604105
39,205.17000000000002,2.545998145710941
40,208.929613,2.4951316671012824
41,209.95,2.484752525144196
42,215.84,2.4248426526789273
43,219.85000000000002,2.3840548309832004
44,222.91,2.3529295679367115
45,227.04999999999998,2.310819679567932
46,230.21,2.278690530986786
47,233.95,2.2406775341366325
48,239.88329199999998,2.1803446855638557
49,239.95,2.1798220178346024
50,246.11,2.131535743059984
51,251.84,2.086630725964438
52,257.11,2.0453089992067364
53,260.09000000000003,2.0219652336020024
54,263.71,1.9935976100567887
55,269.23,1.9503322634226499
56,274.24,1.9110639305476433
57,275.42287,1.9017928814804672
58,278.69,1.882141343714065
59,283.87,1.8509832313167391
60,289.82,1.815187393115756
61,295.89,1.778677988598619
62,300.69,1.749804266552448
63,307.7,1.707639795908769
64,316.227766,1.6563460482468946
65,317.78000000000003,1.6493729154332641
66,328.19,1.6026048517818925
67,338.15999999999997,1.557811839827121
68,347.63,1.5152651876957577
69,357.37,1.471504683143754
70,363.078055,1.4458603681793287
71,365.7,1.4370391510290919
72,375.08,1.405478372804999
73,384.7,1.3731051817832751
74,394.57,1.3399009265056852
75,404.69,1.305851473072229
76,414.11999999999995,1.2741213075569633
77,416.86938299999997,1.2648696308909388
78,421.82,1.252147846015286
79,429.65999999999997,1.2320019717691142
80,440.68,1.2036862313955408
81,450.94,1.177320437458076
82,460.39,1.1530364998577793
83,470.03000000000003,1.128264765573456
84,478.630092,1.1061663992722515
85,479.87,1.103716106251076
86,489.92,1.0838510600601234
87,500.18,1.0635761534726436
88,505.97,1.0521315286969604
89,511.83,1.040568691622435
90,520.14,1.0241464084884233
91,529.8100000000001,1.005034435534044
92,539.66,0.9855625603254985
93,549.5408739999999,0.9660463923189669
94,549.6999999999999,0.9658066754447284
95,559.92,0.9504091019770616
96,570.33,0.9347255937618548
97,579.5899999999999,0.9207590836817577
98,590.37,0.904524668821342
99,599.96,0.8900675806955174
100,609.7099999999999,0.8753687023717651
101,619.62,0.8604619323500842
102,629.68,0.8453056479803458
103,630.957344,0.8433800453680025
104,639.92,0.8326693621858557
105,650.3100000000001,0.8202732162913393
106,657.8399999999999,0.8112876469198563
107,665.4599999999999,0.8021927942542919
108,674.72,0.7911247804076871
109,685.6800000000001,0.7780219066173215
110,695.22,0.7666906386446857
111,704.89,0.7551196253028211
112,716.35,0.7414780119231138
113,724.43596,0.7318267256641255
114,726.3100000000001,0.7301671078765739
115,734.7199999999999,0.7227223449901156
116,744.94,0.7137090778441458
117,755.3100000000001,0.7045420510612002
118,765.81,0.6952494222728753
119,774.68,0.6874385309596903
120,785.46,0.67791795932901
121,794.55,0.66988445956826
122,805.6099999999999,0.6601046941952246
123,814.9399999999999,0.6518539061553129
124,824.37,0.6435650706574172
125,831.763771,0.6369043946171513
126,835.84,0.6341455262478956
127,845.52,0.6279279004340352
128,855.31,0.6214610216416081
129,865.21,0.6149691028706146
130,875.23,0.6084034074139119
131,885.37,0.6017831899715004
132,895.62,0.5950560991505219
133,905.99,0.5881651066438348
134,914.37,0.5834239712584888
135,924.9599999999999,0.5902470109946684
136,935.67,0.602757311045139
137,944.33,0.631545759059805
138,954.992586,0.6576798268948756
139,955.26,0.6583390908353626
140,964.0999999999999,0.6575106409387669
141,975.27,0.5562514217820954
142,984.2900000000001,0.6149257967066095
143,995.69,0.6218596720435787
144,1004.9,0.6767048337237092
145,1014.1999999999999,0.6706712328143947
146,1025.94,0.5760667439245718
147,1035.44,0.6004946517053794
148,1045.02,0.709505314962236
149,1054.6899999999998,0.7003027556296477
150,1064.45,0.6373607037076142
151,1074.29,0.6699475472616299
152,1084.23,0.6122812101607065
153,1094.27,0.6717348924048443
154,1096.4782,0.6683621675255671
155,1104.3899999999999,0.6572083599084383
156,1114.6100000000001,0.6389388800210865
157,1124.9199999999998,0.6109681911132003
158,1135.33,0.6681323810713871
159,1145.8400000000001,0.6379548498956465
160,1153.78,0.6531785318618333
161,1164.46,0.6542205947584167
162,1175.23,0.5668086486344657
163,1186.11,0.637023269263195
164,1194.33,0.5475435120543857
165,1205.38,0.4937804167554387
166,1213.73,0.47120533207252413
167,1224.96,0.5451703087325084
168,1236.3,0.6346015721451729
169,1244.87,0.6550538909676187
170,1256.39,0.6302509363392141
171,1258.92541,0.6166624680367083
172,1265.0900000000001,0.5845637186003566
173,1273.86,0.6586687922060532
174,1285.65,0.6712647168139396
175,1294.56,0.5828166735786783
176,1303.54,0.5784041219229378
177,1315.6000000000001,0.6488917997661192
178,1324.72,0.6283490312694207
179,1333.9,0.5820295412694543
180,1346.24,0.6420666854307197
181,1355.5700000000002,0.6277235916725838
182,1364.97,0.5847036894939692
183,1374.43,0.5982825658120867
184,1383.9599999999998,0.5983742337097252
185,1393.55,0.5551659801040959
186,1406.4499999999998,0.5605615569015289
187,1416.2,0.5607668126205188
188,1426.01,0.5679609468362411
189,1435.8999999999999,0.5618841857142731
190,1442.52,0.5768190465203975
191,1445.43977,0.5806691592043067
192,1445.85,0.581257017167648
193,1455.87,0.5680241176161669
194,1465.96,0.5403756148742064
195,1476.1299999999999,0.5387915656288409
196,1486.36,0.5428437565059215
197,1496.6599999999999,0.5459006441925229
198,1503.57,0.5255024149609127
199,1510.51,0.49191395579052555
200,1517.48,0.5091887666813616
201,1524.49,0.4992847043204951
202,1535.05,0.46289016587103005
203,1545.69,0.4840264809181598
204,1556.41,0.4692890494618847
205,1563.59,0.47053005078128257
206,1574.43,0.4821689995698998
207,1585.3400000000001,0.4927889451680376
208,1596.33,0.49405324426277053
209,1603.7,0.4894880226365813
210,1614.82,0.489163558663281
211,1626.01,0.4709721914995012
212,1633.52,0.4868600634923532
213,1644.84,0.4870800332605403
214,1656.24,0.46396705652532233
215,1659.58691,0.47331681122788305
216,1663.88,0.48564976863392095
217,1671.56,0.454555543233179
218,1675.42,0.48350952786249346
219,1683.1499999999999,0.4961379457859654
220,1694.82,0.476658837657494
221,1706.57,0.46343701884776495
222,1714.44,0.4461364180790358
223,1726.3300000000002,0.4429830805771057
224,1734.3,0.45830166645680437
225,1746.3200000000002,0.44999986159783045
226,1754.38,0.4661716854611142
227,1766.54,0.44131496190993935
228,1774.6899999999998,0.44424952375680815
229,1786.99,0.4480400815134321
230,1795.2399999999998,0.46462903000872885
231,1803.5300000000002,0.4619847731633965
232,1816.03,0.43559770421687627
233,1824.4099999999999,0.4411108853551291
234,1837.0600000000002,0.4282587463812505
235,1845.54,0.4067040141679312
236,1854.06,0.40336797661398294
237,1866.9099999999999,0.40812911093696014
238,1875.53,0.42960456003143976
239,1884.18,0.4063016551204477
240,1892.88,0.3948726935336696
241,1905.46072,0.4068458072115896
242,1906.0,0.40738571704999504
243,1914.8000000000002,0.39523103015277294
244,1923.64,0.39094671649692714
245,1936.97,0.3976295491855668
246,1945.9099999999999,0.4038558686331617
247,1954.8899999999999,0.3875821613221328
248,1968.4399999999998,0.408032346838342
249,1977.5300000000002,0.41428671594109767
250,1982.09,0.3989488654579918
251,1995.8300000000002,0.3905585738707381
252,2005.04,0.39774196269762274
253,2014.3,0.3866787680762277
254,2023.5900000000001,0.39859540338586485
255,2032.93,0.38188995524722225
256,2047.03,0.38966642283235503
257,2056.47,0.3786967077971532
258,2065.9700000000003,0.3774060526240156
259,2075.5,0.3920410273819104
260,2080.29,0.37682067303671785
261,2085.08,0.3859277186915254
262,2094.71,0.37171522655286077
263,2104.3700000000003,0.3721986643452283
264,2114.09,0.37314006199966027
265,2123.85,0.3750347328954685
266,2133.65,0.358562577032653
267,2143.5,0.3611177377215578
268,2153.39,0.3687247716518389
269,2163.33,0.36151272213384034
270,2173.32,0.357947789167562
271,2183.35,0.35096712944266006
272,2187.7616199999998,0.35477248292602565
273,2193.4300000000003,0.3599106279257387
274,2203.5499999999997,0.3532301470566558
275,2213.7200000000003,0.3425299768552157
276,2223.94,0.3346961173214185
277,2234.21,0.3456756684552642
278,2244.52,0.3364184481232242
279,2254.88,0.327146538458827
280,2265.29,0.3316931394620728
281,2275.74,0.3351894689994328
282,2286.25,0.33836549133796423
283,2296.7999999999997,0.3268416422106101
284,2307.4,0.32487830375089866
285,2312.7200000000003,0.31530619878810007
286,2323.4,0.27434921739661733
287,2334.12,0.3015116645392488
288,2344.89,0.2976173223495232
289,2355.7200000000003,0.30728847296096906
290,2366.59,0.2939315521065292
291,2377.52,0.29681382405326073
292,2383.0,0.2867704332269194
293,2394.0,0.295898180108351
294,2405.04,0.28766065552389686
295,2416.15,0.29079190587414283
296,2427.3,0.297556984758503
297,2432.89,0.28984769740097605
298,2444.12,0.2980670333535648
299,2455.4100000000003,0.29435096210732503
300,2466.7400000000002,0.29278291939519957
301,2472.43,0.2864666533729583
302,2483.84,0.2907732677290614
303,2495.3,0.2800309927528074
304,2506.82,0.29440021057772486
305,2511.88643,0.2797669698181908
306,2512.6,0.2777226797308966
307,2518.39,0.2834335083506486
308,2524.2,0.2754616691936122
309,2535.85,0.27646243921435676
310,2547.55,0.27194538979313027
311,2553.43,0.28087466341733436
312,2565.21,0.2768683428889542
313,2577.05,0.28483301903020875
314,2582.99,0.2824082893240476
315,2594.92,0.2800318104697542
316,2606.89,0.2739594960618841
317,2612.9,0.2719706791369634
318,2624.96,0.2767084097335453
319,2637.08,0.27917893699976193
320,2643.16,0.2897473328560819
321,2655.36,0.2910060890151448
322,2667.62,0.27546044184384255
323,2673.76,0.2822330343697972
324,2686.1099999999997,0.280135132202947
325,2692.3,0.2734479052869306
326,2704.73,0.27628583201292667
327,2717.21,0.2686879392969517
328,2723.4700000000003,0.26801122516217585
329,2736.04,0.274272877450653
330,2742.35,0.2552823438739061
331,2755.0099999999998,0.25647584116683536
332,2767.73,0.2599608351293993
333,2774.11,0.2659675143338929
334,2786.9100000000003,0.25957723718930326
335,2793.34,0.23463389695182577
336,2806.23,0.2420867648116882
337,2812.7000000000003,0.26218618902063384
338,2825.68,0.2663155018849484
339,2832.2000000000003,0.258440006651923
340,2845.2699999999995,0.25443216452068973
341,2851.8300000000004,0.25117043373408743
342,2864.9900000000002,0.2607332366073062
343,2878.21,0.2593365361501596
344,2884.0315,0.25872448793110847
345,2884.85,0.25865487783128494
346,2898.17,0.25683933582363216
347,2911.5400000000004,0.2669415788685032
348,2931.72,0.2605442060671195
349,2952.0499999999997,0.2570672884233071
350,2972.5099999999998,0.2577734919160567
351,2993.11,0.256731933555873
352,3006.93,0.25696944207345856
353,3027.77,0.25626999196538924
354,3048.7599999999998,0.2541539970148914
355,3069.8900000000003,0.2534416402114602
356,3091.1699999999996,0.2527266385656006
357,3112.6,0.25129689207731243
358,3126.9700000000003,0.24837593617266002
359,3148.64,0.2479851979364862
360,3170.4700000000003,0.2465467318683886
361,3192.44,0.23836510394735777
362,3207.18,0.24186867743138168
363,3229.41,0.23543079178347476
364,3251.8,0.24101267830364403
365,3266.81,0.2439704110712966
366,3289.45,0.241450622854085
367,3311.31121,0.23970458714077283
368,3312.25,0.239642832450706
369,3319.89,0.23845406057040214
370,3327.54,0.24037824658030732
371,3335.21,0.24375844837063054
372,3342.8999999999996,0.2359388659413718
373,3350.6000000000004,0.24238594140232209
374,3358.33,0.23630399053389947
375,3366.0699999999997,0.23243139755568587
376,3373.83,0.22447592035789035
377,3381.6099999999997,0.23177195894051283
378,3389.4,0.23913815541334438
379,3397.2200000000003,0.233128525556803
380,3405.05,0.23364395359047063
381,3412.8999999999996,0.23045769740455635
382,3420.77,0.23468925699906007
383,3428.6499999999996,0.23487247448377285
384,3436.5499999999997,0.2343647077489037
385,3444.4799999999996,0.2220065146846616
386,3452.42,0.23822837951062853
387,3460.37,0.22714720222680446
388,3468.35,0.2279697986136075
389,3476.3500000000004,0.22582811078082857
390,3484.36,0.22796698083825873
391,3492.3900000000003,0.22746646667610687
392,3500.44,0.2233636682943731
393,3508.51,0.22745998569305736
394,3516.6,0.2210938188721597
395,3524.7099999999996,0.22612256783168008
396,3532.83,0.2293131746814095
397,3540.98,0.23222945520176597
398,3549.14,0.23486779361233148
399,3557.3199999999997,0.22914234780331505
400,3565.52,0.23277681777471665
401,3573.7400000000002,0.21986360352653633
402,3581.98,0.21809140505877406
403,3590.2400000000002,0.2084014223714298
404,3598.5099999999998,0.22391179757429464
405,3606.81,0.2201243464477865
406,3615.12,0.22026945321148741
407,3623.46,0.2197632336458154
408,3631.81,0.23937627197035238
409,3637.82,0.22282716398597724
410,3640.56,0.22039072590325048
411,3643.31,0.2243791457107327
412,3646.05,0.22142080762800595
413,3648.7999999999997,0.2188962274354882
414,3651.54,0.22042678935276142
415,3654.2799999999997,0.22724065127003462
416,3657.03,0.22342277107751685
417,3659.77,0.23504463299479011
418,3662.5200000000004,0.22353655280227236
419,3665.26,0.22857001471954558
420,3668.0099999999998,0.22001963452702783
421,3670.75,0.21761799644430105
422,3673.5,0.22228491625178332
423,3676.2400000000002,0.22307887816905653
424,3678.98,0.22205764008632975
425,3681.7299999999996,0.22706095989381203
426,3684.4700000000003,0.22655572181108521
427,3687.22,0.23630894161856747
428,3689.96,0.22293450353584068
429,3692.71,0.24335312334332293
430,3695.4500000000003,0.23522738526059617
431,3698.2,0.22254190506807842
432,3700.9399999999996,0.21859756698535165
433,3703.68,0.23302642890262484
434,3706.43,0.22699304871010711
435,3709.17,0.22884261062738032
436,3711.92,0.23037773043486257
437,3714.6600000000003,0.2416747923521358
438,3717.41,0.26884991215961807
439,3720.1499999999996,0.3660451740768913
440,3722.9,0.5354723938843735
441,3725.64,0.6465640558016468
442,3728.38,0.5995469177189199
443,3731.1299999999997,0.43801923752640226
444,3733.8700000000003,0.31897619944367545
445,3736.62,0.25158851925115766
446,3739.36,0.25354828116843087
447,3742.11,0.22406720097591315
448,3744.85,0.2214393628931864
449,3747.6,0.21221048270066867
450,3750.3399999999997,0.22293914461794184
451,3753.08,0.23301830653521508
452,3755.83,0.24335142634269735
453,3758.57,0.25311738825997054
454,3761.32,0.2418064080674528
455,3764.0600000000004,0.23772286998472603
456,3766.81,0.23547668979220826
457,3769.5499999999997,0.2384861517094815
458,3772.3,0.23907017151696375
459,3775.04,0.251625733434237
460,3777.79,0.2623937532417192
461,3780.5299999999997,0.28820731515899245
462,3783.2700000000004,0.2742413770762656
463,3786.02,0.2665375968837479
464,3788.7599999999998,0.2649422588010212
465,3791.51,0.2499368786085034
466,3794.25,0.2399030405257766
467,3797.0,0.22689276033325884
468,3799.74,0.2383869222505321
469,3801.8939600000003,0.24509499581145067
470,3802.4900000000002,0.24695715608792285
471,3805.23,0.268279904841565
472,3807.97,0.2807989535952071
473,3810.7200000000003,0.2815783594610888
474,3813.46,0.27911700821473096
475,3816.21,0.28768521408061265
476,3818.95,0.2705509628342548
477,3821.7000000000003,0.2713824687001365
478,3824.44,0.2622458174537786
479,3827.1899999999996,0.23912512331966032
480,3829.93,0.2372668720733025
481,3832.67,0.2182011208269446
482,3835.42,0.22468752669282632
483,3838.16,0.22948137544646843
484,3840.9100000000003,0.24461488131235012
485,3843.65,0.2588679300659923
486,3846.3999999999996,0.27647203593187397
487,3849.14,0.2774788846855161
488,3851.89,0.2829094905513978
489,3854.63,0.2846296393050399
490,3857.37,0.2856538880586821
491,3860.1200000000003,0.29104969392456376
492,3862.86,0.3043808426782059
493,3865.6099999999997,0.3145786485440876
494,3868.35,0.3063873972977298
495,3871.1,0.28977950316361145
496,3873.84,0.2781142519172536
497,3876.5899999999997,0.26619825778313533
498,3879.33,0.2562496065367775
499,3882.07,0.25269215529041955
500,3884.82,0.24578706115630128
501,3887.56,0.2350960099099434
502,3890.31,0.24371081577582515
503,3893.05,0.24384756452946724
504,3895.7999999999997,0.25499097039534896
505,3898.54,0.2671968191489911
506,3901.29,0.2739091250148728
507,3904.03,0.2722655737685149
508,3906.77,0.2833405225221571
509,3909.5200000000004,0.28816802838803873
510,3912.26,0.2935071771416809
511,3915.0099999999998,0.29272648300756265
512,3917.75,0.28435533176120475
513,3920.5,0.27956123762708646
514,3923.2400000000002,0.27629378638072855
515,3925.99,0.2673066922466103
516,3928.7300000000005,0.2592486410002524
517,3931.4700000000003,0.24917828975389456
518,3934.22,0.25315909561977623
519,3936.96,0.2635090443734184
520,3939.71,0.2687541502393001
521,3942.4500000000003,0.2754619989929422
522,3945.2,0.280370704858824
523,3947.9399999999996,0.2821082536124661
524,3950.69,0.2825686594783478
525,3953.43,0.27639560823198994
526,3956.17,0.26311795698563206
527,3958.92,0.25364366285151374
528,3961.6600000000003,0.23895671160515589
529,3964.41,0.2255851174710376
530,3967.1499999999996,0.21479546622467977
531,3969.9,0.22225617209056142
532,3972.64,0.2241212208442036
533,3975.39,0.23444682671008527
534,3978.13,0.2549692754637274
535,3980.8700000000003,0.26292402421736955
536,3983.62,0.27425863008325124
537,3986.36,0.2753292788368934
538,3989.11,0.2773555847027751
539,3991.85,0.27905843345641723
540,3994.6,0.27994213932229894
541,3997.3399999999997,0.28695738807594107
542,4000.09,0.28840949394182275
543,4002.83,0.2890045426954649
544,4005.57,0.288845691449107
545,4008.32,0.2899730973149887
546,4011.0600000000004,0.28624744606863084
547,4013.81,0.28455615193451256
548,4016.5499999999997,0.2977248006881547
549,4019.3,0.2859364065540364
550,4022.04,0.27861505530767855
551,4024.79,0.28881866117356025
552,4027.53,0.2896458099272024
553,4030.2700000000004,0.2871960586808445
554,4033.02,0.2874592645467262
555,4035.7599999999998,0.2918357133003684
556,4038.51,0.29435491916625006
557,4041.25,0.2918820679198922
558,4044.0,0.2931194737857739
559,4046.74,0.292751922539416
560,4049.4900000000002,0.28887992840529775
561,4052.23,0.28896467715893986
562,4054.97,0.288834825912582
563,4057.7200000000003,0.2823878317784637
564,4060.46,0.28173598053210586
565,4063.21,0.2898576863979876
566,4065.95,0.29179243515162967
567,4068.7000000000003,0.29059414101751135
568,4071.44,0.2865495897711535
569,4074.1899999999996,0.28376789563703525
570,4076.9300000000003,0.27841844439067737
571,4079.67,0.2761252931443195
572,4082.42,0.2711281990102012
573,4085.16,0.27058074776384333
574,4087.9100000000003,0.26343795362972505
575,4090.65,0.2571024023833672
576,4093.3999999999996,0.2472338082492489
577,4096.139999999999,0.24258005700289104
578,4098.89,0.24159066286877273
579,4101.63,0.24472591162241486
580,4104.37,0.245199160376057
581,4107.12,0.2485593662419387
582,4109.860000000001,0.25323151499558083
583,4112.61,0.26086612086146255
584,4115.349999999999,0.26742896961510465
585,4118.1,0.2672339754809864
