,lambda (Angstroms),Total Flux (erg/s/cm^2/Angstrom)
0,100.02000000000001,0.05123384175399756
1,102.11,0.0510737023147523
2,104.01,0.05092812092705479
3,104.712855,0.05087426701981889
4,105.95,0.05037633531098083
5,107.92,0.04958344116654456
6,109.92,0.04877847404262498
7,114.05,0.047116214722967766
8,118.06,0.04550225401006382
9,120.22644299999999,0.04463032768524289
10,121.08000000000001,0.044342315792874856
11,125.05000000000001,0.04300268919956651
12,127.08000000000001,0.042317689542534266
13,127.96,0.04202074630419739
14,130.94,0.041015180796956784
15,131.85,0.040708127503287846
16,133.98999999999998,0.039986010051714746
17,137.10999999999999,0.038933226626021236
18,138.038426,0.03861994228378703
19,139.98999999999998,0.03814923792192001
20,142.92,0.0374428069970272
21,146.92000000000002,0.036478601973136335
22,151.04,0.03548495772768775
23,154.91,0.034551638140276085
24,158.489319,0.03368843730437042
25,158.89000000000001,0.0336153868964669
26,161.84,0.033077550465062305
27,165.98999999999998,0.03232096026544228
28,169.86,0.03161540812697252
29,173.02,0.031039292635705217
30,177.04999999999998,0.03030461030600675
31,179.92000000000002,0.029781399844216502
32,181.970086,0.029407658710683435
33,182.01,0.029402107839541242
34,185.82000000000002,0.028872277204985135
35,191.02,0.02814915042298469
36,194.13,0.027716706680717115
37,198.19,0.027152148821843684
38,201.88000000000002,0.026639116413879907
39,205.16,0.026183053343356546
40,208.929613,0.025658855411754528
41,209.93,0.025554282615752398
42,215.82,0.024938993760795815
43,219.82999999999998,0.024520065916130974
44,222.89,0.02420030954597526
45,227.03,0.023767888593588117
46,230.19000000000003,0.023440259879799856
47,233.93,0.023054691758942876
48,239.88329199999998,0.022436521595324617
49,239.93,0.022432792200008086
50,246.08,0.02193788181965974
51,251.82,0.021478834236001283
52,257.09,0.02105344847318246
53,260.07,0.02081707523041204
54,264.29,0.02048550621521366
55,269.21,0.020093623804934988
56,274.21000000000004,0.019695500055789985
57,275.42287,0.019597479737739894
58,279.31,0.019356188530859776
59,283.85,0.019087669902690653
60,289.79,0.01872897459728877
61,295.86,0.018356093330000982
62,300.67,0.018057802240222683
63,307.67,0.01764011079405884
64,316.227766,0.017124609146917283
65,317.75,0.017056744070223995
66,328.15999999999997,0.01659699199276305
67,338.13000000000005,0.016149091277653953
68,347.59999999999997,0.015724312392490156
69,357.34000000000003,0.015345083653155895
70,363.078055,0.015177843527652836
71,365.67,0.015132368306879715
72,375.04999999999995,0.014845017993630779
73,384.67,0.014474182840810434
74,395.44000000000005,0.014319319115043793
75,404.65000000000003,0.014204672046491264
76,414.08,0.013943721208331619
77,416.86938299999997,0.013841634957682812
78,421.78000000000003,0.013702069253457731
79,429.62,0.013516162374479432
80,440.64,0.013452407114997181
81,450.9,0.013290673845824053
82,460.35,0.012979773045269852
83,469.99,0.012825106147138374
84,478.630092,0.012802559184878368
85,479.83,0.012806748521524604
86,489.87,0.012471273593856894
87,500.13,0.012649517131917584
88,505.91999999999996,0.01236308979813312
89,511.78000000000003,0.013153836021625872
90,520.1,0.012967781543717968
91,529.77,0.012704845241870684
92,539.62,0.012193883230164815
93,549.5408739999999,0.012020528349141482
94,549.65,0.01201914739238905
95,559.87,0.012590274458823186
96,570.28,0.012869101229036433
97,579.54,0.0127709197921656
98,590.32,0.012775447985527636
99,599.9100000000001,0.012199208034167885
100,609.66,0.012026895833358968
101,619.56,0.01277345039869145
102,629.63,0.012492774698984185
103,630.957344,0.012534969064013992
104,639.86,0.012846574509513656
105,650.26,0.012659988773355202
106,657.7900000000001,0.012312532676886628
107,665.4,0.012765919482447605
108,674.66,0.012964264892368058
109,685.62,0.012264669470416455
110,695.16,0.012882252037440332
111,704.83,0.011931400070262228
112,716.28,0.012968101173241625
113,724.43596,0.01299041710314058
114,726.25,0.013001125465134709
115,734.6600000000001,0.013013871888393536
116,744.88,0.012831105802270495
117,755.2399999999999,0.012774800660173165
118,765.75,0.012191786243817669
119,774.61,0.012753335844301996
120,785.39,0.0122750665342818
121,794.48,0.012637849114236942
122,805.53,0.01273935291055205
123,814.86,0.012751033251694126
124,824.3000000000001,0.012820291191713545
125,831.763771,0.011988207374014747
126,835.77,0.011550809143365835
127,845.4399999999999,0.01264480384692974
128,855.23,0.012521085350331043
129,865.14,0.01272811365356975
130,875.15,0.012734238123339622
131,885.29,0.01272509320960001
132,895.54,0.012715713279044687
133,905.9100000000001,0.012554459148326761
134,914.29,0.012363636503638604
135,924.88,0.02104806833928925
136,935.59,0.030390183974777295
137,944.2399999999999,0.04038325537972329
138,954.992586,0.04728378879443655
139,955.1800000000001,0.04740409040086609
140,964.02,0.051263948291531934
141,975.18,0.021941219339024105
142,984.1999999999999,0.04267570644013336
143,995.5999999999999,0.04217376643488343
144,1004.8100000000001,0.05270443603590519
145,1014.11,0.05296935524214867
146,1025.85,0.035370577078847415
147,1035.34,0.04508384878500339
148,1044.92,0.06360550009638108
149,1054.59,0.06168482101298047
150,1064.35,0.05219871153480159
151,1074.2,0.057651081661844406
152,1084.1399999999999,0.049836861394108936
153,1094.17,0.05912016073159518
154,1096.4782,0.058574148025622705
155,1104.29,0.05673568506485633
156,1114.51,0.055262734091565305
157,1124.82,0.0494956215441455
158,1135.23,0.05839501280324926
159,1145.74,0.0548591578688766
160,1153.68,0.05575230010684815
161,1164.35,0.0556947412629132
162,1175.13,0.03998817160615418
163,1186.0,0.053154300375266375
164,1194.22,0.043684843271503924
165,1205.27,0.03683537889235854
166,1213.62,0.029479221737076747
167,1224.85,0.04226666420967379
168,1236.19,0.05276729586944676
169,1244.76,0.05513660708851682
170,1256.27,0.05345013021937987
171,1258.92541,0.052297534889857895
172,1264.98,0.04967900165064427
173,1273.7499999999998,0.05729041370543187
174,1285.54,0.058618046718652596
175,1294.45,0.049988583652307954
176,1306.42,0.04962422579550152
177,1315.48,0.05725149867080091
178,1324.6,0.05492165792275792
179,1333.78,0.05080598355137253
180,1346.1200000000001,0.05603291501728803
181,1355.45,0.05433182658754667
182,1364.85,0.050035675597239204
183,1374.31,0.05075638098358933
184,1383.8400000000001,0.05050023380937335
185,1393.4299999999998,0.04138088301181498
186,1406.3200000000002,0.04115586293042526
187,1416.0700000000002,0.047129529137287185
188,1425.8799999999999,0.04658935172080673
189,1435.7700000000002,0.04725430280653641
190,1442.4,0.04846471742720252
191,1445.43977,0.04874071649556962
192,1445.72,0.04876648977966247
193,1455.74,0.04729172678048223
194,1465.83,0.0444108835308087
195,1475.99,0.0444784700306419
196,1486.22,0.04493011627998182
197,1496.53,0.044804555100186584
198,1503.43,0.042721951837278026
199,1510.3700000000001,0.039206729859801885
200,1517.3500000000001,0.04089571916775816
201,1524.35,0.040013174118430646
202,1534.9099999999999,0.035123933472587986
203,1545.55,0.03458171539761015
204,1556.27,0.033686519893497156
205,1563.45,0.035721605628615496
206,1574.2900000000002,0.037721793980799743
207,1585.2,0.03875394208249071
208,1596.19,0.0390568027550465
209,1603.56,0.038047562095968816
210,1614.67,0.037692296624821854
211,1625.8600000000001,0.036475003724539726
212,1633.3700000000001,0.03804832256447548
213,1644.69,0.038179416341848696
214,1656.0900000000001,0.03647069269008674
215,1659.58691,0.037266200101244214
216,1663.74,0.03821436295039937
217,1671.42,0.03491246368870267
218,1675.27,0.03893823502235732
219,1686.88,0.03933852481033926
220,1694.67,0.037343266158175556
221,1706.4099999999999,0.03621609848469648
222,1714.29,0.03446032851305976
223,1726.1699999999998,0.03399827434262268
224,1734.14,0.03562278305151295
225,1746.1599999999999,0.03491883238411786
226,1754.22,0.03604701977353512
227,1766.3799999999999,0.03406818260918201
228,1774.53,0.03397865867912627
229,1786.8400000000001,0.03446839598231815
230,1795.08,0.03558286073278939
231,1803.37,0.035338950305775635
232,1815.87,0.0330379059345245
233,1824.25,0.03345010418803773
234,1836.8999999999999,0.03243663428433158
235,1845.3700000000001,0.03027477121837181
236,1853.8899999999999,0.030323312974927033
237,1866.74,0.03082209236128086
238,1875.3600000000001,0.03222458376286608
239,1884.0199999999998,0.029942469022463288
240,1897.07,0.028789597698877095
241,1905.46072,0.030163956356200578
242,1905.83,0.030224630417962833
243,1914.6299999999999,0.02906906482844415
244,1923.4699999999998,0.028200423440791284
245,1936.8,0.029163428712577186
246,1945.74,0.029909987829588883
247,1954.72,0.027858411148466402
248,1968.27,0.029814109530514336
249,1977.35,0.030450113354056417
250,1981.91,0.02897512236676037
251,1995.6499999999999,0.028221585707670967
252,2004.86,0.02888237818727698
253,2014.1200000000001,0.02813483091921527
254,2023.4099999999999,0.028980021802552932
255,2032.75,0.02739583293822287
256,2046.8400000000001,0.027969588045459428
257,2056.29,0.025715355736260385
258,2065.78,0.026314817628927165
259,2075.32,0.028352129773926225
260,2080.1,0.026863491896892213
261,2084.9,0.02761766612079111
262,2094.52,0.026274636669521817
263,2104.19,0.026487417470584806
264,2113.9,0.02664518247351362
265,2123.66,0.02674557772877471
266,2133.46,0.02555445718590163
267,2143.31,0.025485406895360826
268,2153.2000000000003,0.02613560080668585
269,2163.14,0.025457884970343153
270,2173.12,0.025280413335866277
271,2183.15,0.024676761953721683
272,2187.7616199999998,0.025014997228715207
273,2193.23,0.025418538154951882
274,2203.35,0.02486874736727915
275,2213.52,0.023968879391920293
276,2223.74,0.0234016742288753
277,2234.0099999999998,0.02405191187814418
278,2244.3199999999997,0.023382271777264155
279,2254.68,0.022634214488698005
280,2265.08,0.022966999449982945
281,2275.54,0.023153067786044527
282,2286.04,0.02324395837195721
283,2296.6,0.022077352332646537
284,2307.2000000000003,0.02216814854318696
285,2312.51,0.02146885721091994
286,2323.19,0.018425457921162555
287,2333.91,0.020477820881256263
288,2344.6800000000003,0.02012859665366384
289,2355.51,0.020733765800848063
290,2366.3799999999997,0.01978100719788338
291,2377.3,0.01990339140723257
292,2382.7799999999997,0.018992979636832715
293,2393.78,0.019644508345884094
294,2404.83,0.019064649867249345
295,2415.93,0.019181744200928465
296,2427.08,0.019631471346921454
297,2432.6800000000003,0.019012576326074882
298,2443.91,0.019499687971770065
299,2455.19,0.019206462429779116
300,2466.52,0.01907957970010204
301,2472.2,0.01859651917895766
302,2483.62,0.018750581511445548
303,2495.08,0.01693181609378453
304,2506.6,0.01882089405090016
305,2511.88643,0.017686566202458575
306,2512.38,0.017580777896037555
307,2518.17,0.018109936503566137
308,2523.97,0.017615638079328796
309,2535.62,0.017613176072024478
310,2547.32,0.01727756890589053
311,2553.2,0.017759674227525776
312,2564.98,0.017532260807264416
313,2576.82,0.017944725196407493
314,2582.76,0.017791408327447182
315,2594.68,0.017563116462462853
316,2606.6600000000003,0.017154622406882963
317,2612.67,0.016935996315561166
318,2624.73,0.017223496005853864
319,2636.8399999999997,0.01725770053731693
320,2642.92,0.017855005223633647
321,2655.1200000000003,0.017814366469203376
322,2667.3799999999997,0.016887155524177546
323,2673.53,0.01717607098813278
324,2685.8700000000003,0.017100013788979535
325,2692.06,0.01656128112587106
326,2704.48,0.016664287672590407
327,2716.9700000000003,0.01624131499694827
328,2723.23,0.01620512311147831
329,2735.7999999999997,0.01648017418170876
330,2742.1099999999997,0.015363027137409169
331,2754.7599999999998,0.015392041953512205
332,2767.48,0.015552727547253758
333,2773.86,0.01591878128059268
334,2786.6600000000003,0.015514520620206824
335,2793.0899999999997,0.013809649194716115
336,2805.98,0.014339355248436918
337,2812.4500000000003,0.015573385695882503
338,2825.43,0.01566967846370997
339,2831.94,0.015143540784091847
340,2845.01,0.014979890266025975
341,2858.1499999999996,0.014754850525598618
342,2864.7299999999996,0.015198853623619012
343,2877.96,0.015002080597298316
344,2884.0315,0.014971025231204306
345,2884.59,0.014968283903039208
346,2897.9100000000003,0.014777339036568651
347,2911.28,0.015158769339518248
348,2931.46,0.014774407717493034
349,2951.7799999999997,0.014522936569844254
350,2972.24,0.01445934589657191
351,2992.8500000000004,0.014304070731560035
352,3006.66,0.014211582525407001
353,3027.5,0.014088793139727841
354,3048.49,0.013907529262309145
355,3069.6200000000003,0.013758045859266887
356,3090.8999999999996,0.013638827964485095
357,3112.32,0.013463110544079738
358,3126.6899999999996,0.013262074235432447
359,3148.36,0.013174862662127867
360,3170.1800000000003,0.013004826597083755
361,3192.16,0.012593411074184142
362,3206.89,0.01264488598536197
363,3229.12,0.012349256309563133
364,3251.51,0.012424687175908795
365,3266.51,0.012395988001955465
366,3289.16,0.012261199749285936
367,3311.31121,0.01215649151585883
368,3311.9500000000003,0.01215356450166392
369,3319.59,0.012362407066261285
370,3327.2400000000002,0.012388696113273043
371,3334.91,0.012468168125113591
372,3342.6,0.011897023101782927
373,3350.3100000000004,0.012388271043281053
374,3358.03,0.011770775467193574
375,3365.77,0.011670822855934883
376,3373.53,0.011522743209504981
377,3381.31,0.011670276527903868
378,3389.1,0.01204881632871715
379,3396.9100000000003,0.011920879094359219
380,3404.74,0.011669534824830078
381,3412.5899999999997,0.011521223520129726
382,3420.46,0.011768785180258163
383,3428.34,0.011718493322800994
384,3436.25,0.01174321091258701
385,3444.1699999999996,0.011277634984787418
386,3452.11,0.011868542021816617
387,3460.07,0.011276942023674604
388,3468.04,0.011252488507946985
389,3476.0400000000004,0.01115700443946255
390,3484.05,0.011132916853392509
391,3492.0800000000004,0.011275412232151257
392,3500.13,0.011061260575738795
393,3508.2000000000003,0.01094407188415512
394,3516.2900000000004,0.010782163157400234
395,3524.39,0.011036536913059744
396,3532.52,0.011106707115962436
397,3540.66,0.011177493801279526
398,3548.8199999999997,0.011320933451425399
399,3557.0,0.011200466066400065
400,3565.2,0.01124802164620352
401,3573.42,0.010824682190835763
402,3581.66,0.010484715700296793
403,3589.9199999999996,0.010134603174586615
404,3598.19,0.01059531513129083
405,3606.49,0.010527494535238229
406,3614.8,0.010594217421600022
407,3623.13,0.010616230272790603
408,3631.49,0.011293153571224368
409,3639.8599999999997,0.010820679352072529
410,3648.25,0.010705505097749476
411,3648.8500000000004,0.010626759042613143
412,3651.58,0.010829736741742832
413,3654.31,0.009805514440872517
414,3657.05,0.010039257622416599
415,3659.78,0.011919532321546283
416,3662.5099999999998,0.011700762020675971
417,3665.2400000000002,0.010458150719805657
418,3667.97,0.009768171418935344
419,3670.7000000000003,0.00952638211806503
420,3673.44,0.011788587299609112
421,3676.17,0.008281817998738799
422,3678.9,0.009563611697868483
423,3681.63,0.010592396396998171
424,3684.3599999999997,0.011520356096127856
425,3687.09,0.009832217795257545
426,3689.83,0.011269951976801626
427,3692.56,0.012029931675931312
428,3695.29,0.011716431375060997
429,3698.02,0.009940023074190684
430,3700.75,0.01223976077332037
431,3703.48,0.010014782472450058
432,3706.2099999999996,0.011315220171579743
433,3708.95,0.011203496353123824
434,3711.68,0.010075220052253512
435,3714.4100000000003,0.011314025751383197
436,3717.14,0.011376605450512885
437,3719.8700000000003,0.015280405149642571
438,3722.6,0.03103372484877226
439,3725.3399999999997,0.06392971103031633
440,3728.07,0.10258621072944603
441,3730.8,0.10794995042857572
442,3733.5299999999997,0.0742833301277054
443,3736.26,0.03716012982683509
444,3738.99,0.01667438952596477
445,3741.7299999999996,0.013705325707508853
446,3744.46,0.011419485406638537
447,3747.19,0.011519165105768225
448,3749.92,0.010079662804897912
449,3752.65,0.010141868504027598
450,3755.3799999999997,0.010589299203157284
451,3758.12,0.011875410384701366
452,3760.85,0.010528746083831052
453,3763.5800000000004,0.013094049782960738
454,3766.31,0.010595517482090424
455,3769.04,0.01031891518122011
456,3771.77,0.011308708880349797
457,3774.5,0.011813018579479483
458,3777.2400000000002,0.011349734761023564
459,3779.9700000000003,0.012689744460153252
460,3782.7,0.010932364159282938
461,3785.4300000000003,0.012446243858412625
462,3788.16,0.01231974355754231
463,3790.89,0.012796843256671998
464,3793.63,0.009869086438216079
465,3796.3599999999997,0.012194879137345765
466,3799.09,0.01180585883647545
467,3801.82,0.011485878535605138
468,3801.8939600000003,0.011488074028699514
469,3804.5499999999997,0.01156718920516046
470,3807.28,0.012025747420149085
471,3810.02,0.01178379313775672
472,3812.7499999999995,0.013299661352745348
473,3815.48,0.013056829567733975
474,3818.21,0.012416967782722601
475,3820.94,0.01197152599771123
476,3823.67,0.012845934212699858
477,3826.4100000000003,0.011826689930307492
478,3829.14,0.011336548145296119
479,3831.87,0.010248493360284746
480,3834.6000000000004,0.011755234575273374
481,3837.33,0.012228432790262
482,3840.06,0.010974311005250629
483,3842.79,0.010925319220239257
484,3845.5299999999997,0.011237904937846889
485,3848.26,0.011863093152835517
486,3850.9900000000002,0.012531671367824144
487,3853.72,0.012733599582812772
488,3856.4500000000003,0.012913457797801401
489,3859.18,0.013600866012790029
490,3861.9199999999996,0.01414191173039766
491,3864.65,0.01636962994538629
492,3867.38,0.019456848160374914
493,3870.11,0.021667266375363543
494,3872.84,0.020764894590352172
495,3875.5699999999997,0.0162273228053408
496,3878.31,0.013388858522948433
497,3881.04,0.01243530673793706
498,3883.7699999999995,0.012637614952925688
499,3886.5,0.013873273167914315
500,3889.23,0.014463661382902943
501,3891.96,0.01532817959789157
502,3894.7,0.014534535315499203
503,3897.43,0.012832793530487831
504,3900.16,0.011717161745476459
505,3902.89,0.011984529960465085
506,3905.6200000000003,0.012510618175453713
507,3908.35,0.012425096390442342
508,3911.08,0.01268904460543097
509,3913.82,0.012754700323038602
510,3916.5499999999997,0.01313449853802723
511,3919.28,0.013126596753015857
512,3922.01,0.012016474968004485
513,3924.74,0.012266533182993113
514,3927.4700000000003,0.01235660139798174
515,3930.21,0.011618527115589375
516,3932.9399999999996,0.010961355330578001
517,3935.67,0.00988471954556663
518,3938.4,0.010260138760555256
519,3941.13,0.011687549975543884
520,3943.86,0.012361828190532512
521,3946.6,0.012015823908140145
522,3949.33,0.012180272123128772
523,3952.06,0.0124000803381174
524,3954.7900000000004,0.012436888553106026
525,3957.52,0.012238176768094654
526,3960.25,0.011256084983083283
527,3962.9900000000002,0.011446920700690916
528,3965.72,0.012930648915679544
529,3968.45,0.014825467130668171
530,3971.1800000000003,0.0162089353456568
531,3973.91,0.014080873560645427
532,3976.6400000000003,0.011957001775634054
533,3979.37,0.011485879990622682
534,3982.1099999999997,0.011521485708230316
535,3984.84,0.011907933923218943
536,3987.5699999999997,0.012162742138207571
537,3990.3,0.013207410353196199
538,3993.03,0.012472628568184825
539,3995.7599999999998,0.012805056783173454
540,3998.5,0.013182312500781087
541,4001.23,0.012666680715769714
542,4003.9599999999996,0.01255071893075834
543,4006.69,0.013297097145746969
544,4009.42,0.013050455360735597
545,4012.15,0.012453023575724224
546,4014.89,0.012623689293331858
547,4017.62,0.012772917508320486
548,4020.35,0.013259435723309112
549,4023.08,0.01327854393829774
550,4025.8100000000004,0.014107672153286368
551,4028.54,0.012782970368274995
552,4031.2799999999997,0.01313017608588263
553,4034.01,0.012737244300871257
554,4036.74,0.013404672515859885
555,4039.47,0.013221760730848513
556,4042.2000000000003,0.01312577894583714
557,4044.93,0.012820727160825768
558,4047.6600000000003,0.013465905375814395
559,4050.4,0.013737771093422028
560,4053.1299999999997,0.013872549308410654
