,lambda (Angstroms),Total Flux (erg/s/cm^2/Angstrom)
0,100.00999999999999,13.405189821867655
1,102.10000000000001,13.363292124942909
2,104.0,13.32520289258314
3,104.712855,13.310912548390524
4,105.94,13.181686314511138
5,107.89999999999999,12.975286186200265
6,109.91000000000001,12.76362545644656
7,114.03999999999999,12.328712560192942
8,118.04,11.907489784756669
9,120.22644299999999,11.677286980866333
10,121.07,11.602827692930035
11,125.03999999999999,11.252342077686876
12,127.07,11.073126234280675
13,127.95,10.995438728481439
14,130.93,10.732354840299921
15,132.14,10.62554520831347
16,133.98,10.463106801442335
17,137.1,10.187684142308667
18,138.038426,10.104839960156378
19,139.97,9.982960733480825
20,142.9,9.798265338883624
21,146.91,9.545548580535916
22,151.02,9.286277754196494
23,154.9,9.041538822978017
24,158.489319,8.815146824533786
25,158.86999999999998,8.796997217705593
26,161.82,8.656358004103792
27,165.97,8.45851504832499
28,169.84,8.274024394054154
29,173.0,8.123391751321378
30,177.03,7.931288086760277
31,179.89999999999998,7.794493710303612
32,181.970086,7.695822873377992
33,181.99,7.695098937166629
34,185.79999999999998,7.556613720455379
35,191.0,7.367593216689367
36,194.11,7.254563754581233
37,198.17000000000002,7.107001403083155
38,201.85999999999999,6.972923006189582
39,205.14000000000001,6.853716091506405
40,208.929613,6.715931406527293
41,209.91,6.689142433675718
42,215.79000000000002,6.528734554088077
43,219.81,6.419016584318975
44,222.86,6.335726846976747
45,227.01,6.222462328150435
46,230.17,6.138495034759798
47,233.91,6.041146066113917
48,239.88329199999998,5.882004094831761
49,239.91,5.881460187314182
50,246.06,5.751504783362848
51,251.79,5.632171418120386
52,257.06,5.517826930035258
53,260.04,5.458322090624694
54,264.27,5.37054178219963
55,269.18,5.26740920015068
56,274.18,5.162292484092686
57,275.42287,5.136117084507125
58,279.28000000000003,5.0737989198401126
59,283.82,5.000845104580682
60,289.76,4.9041922603866235
61,295.83000000000004,4.806477562077206
62,301.33,4.716712194119745
63,308.35,4.603950181890403
64,316.227766,4.47741371677869
65,317.72,4.459557087797744
66,328.13,4.3340823396478605
67,338.1,4.213619240401525
68,348.37,4.089478290084588
69,357.31,3.9817777341806524
70,363.078055,3.91253574995251
71,365.63,3.889647154234697
72,375.01,3.8046806227902605
73,384.63,3.716643971287543
74,395.4,3.6201561324222364
75,404.60999999999996,3.537220288935748
76,414.04,3.451690454562503
77,416.86938299999997,3.425917688948684
78,421.74,3.39197176613365
79,429.58000000000004,3.3374537140348277
80,440.6,3.2615391261867384
81,450.86,3.1903450340523114
82,460.3,3.124561318872097
83,469.94,3.0577130995567092
84,478.630092,2.997684078170805
85,479.78,2.9915763632573626
86,489.82,2.937437487100927
87,500.08,2.883238136466959
88,505.87,2.851905747717381
89,511.73,2.8222794066340424
90,520.04,2.7776798438691044
91,529.7099999999999,2.725602524333971
92,539.56,2.6720574702263127
93,549.5408739999999,2.6185233969956774
94,549.59,2.618321843121765
95,559.8100000000001,2.577677309607312
96,570.22,2.5356501096380892
97,579.48,2.4976100971582613
98,590.26,2.4536976230402763
99,599.85,2.413832031454796
100,609.59,2.372160278457655
101,619.5,2.3343151365273
102,629.56,2.2928873131852843
103,630.957344,2.287250123942562
104,639.79,2.2590421427091503
105,650.1899999999999,2.2250755977158456
106,657.72,2.200267889196655
107,665.3299999999999,2.176138999869824
108,674.59,2.146322351385401
109,685.5500000000001,2.110047890738611
110,695.09,2.0797810894274456
111,704.76,2.047496094303864
112,716.21,2.011427736210274
113,724.43596,1.9848146160750126
114,726.17,1.9806413652605488
115,734.5799999999999,1.96037143503677
116,744.8000000000001,1.9355539338373617
117,755.16,1.9105250497448119
118,765.67,1.883971056123894
119,774.53,1.863814157315014
120,785.3100000000001,1.8373731245430358
121,794.4,1.8158183831239934
122,805.45,1.7893758012009542
123,814.78,1.7668997005365243
124,824.2099999999999,1.7442559635198496
125,831.763771,1.7253678015444822
126,835.6800000000001,1.7179355776967113
127,845.36,1.7014684054484857
128,855.15,1.6837092364701667
129,865.05,1.6659835407617543
130,875.0600000000001,1.6479664883232477
131,885.2,1.6296554997491768
132,895.45,1.611214284445012
133,905.8199999999999,1.5924082427080184
134,914.2,1.5774286618154427
135,924.7800000000001,1.5668521663209976
136,935.4899999999999,1.5561604546909882
137,944.15,1.5480882221218104
138,954.992586,1.532491866393024
139,955.0799999999999,1.532369495548851
140,963.9200000000001,1.519769459626302
141,975.0799999999999,1.4812907043666144
142,984.1,1.4789823801334254
143,995.5,1.4575320304595507
144,1004.71,1.4464089335651305
145,1014.0,1.4303870318659817
146,1025.75,1.3965898799214176
147,1035.24,1.3891091712104462
148,1044.8200000000002,1.381052183344155
149,1054.48,1.3628263106731346
150,1064.24,1.340904894496203
151,1074.0900000000001,1.3261832591639513
152,1084.03,1.30250487467638
153,1094.06,1.2916214410334883
154,1096.4782,1.2869628449715678
155,1104.18,1.2745620602456638
156,1114.3999999999999,1.2591160173485572
157,1124.71,1.2408513674689898
158,1135.1200000000001,1.230157759831134
159,1145.62,1.2134066952108191
160,1156.22,1.1982586028322149
161,1164.23,1.1864539913932888
162,1175.01,1.1624623750497651
163,1185.8799999999999,1.1539438017237817
164,1194.1,1.1380087739924492
165,1205.1499999999999,1.1181681767015457
166,1216.3,1.0949129716523538
167,1224.73,1.0933393076286149
168,1236.06,1.081138278614503
169,1244.63,1.06956095372916
170,1256.15,1.0521802099742994
171,1258.92541,1.0478265056647371
172,1264.85,1.0409637051544118
173,1273.6200000000001,1.034330180665574
174,1285.4099999999999,1.0224040440038416
175,1294.32,1.009233772328181
176,1306.29,0.9971149378548188
177,1315.3500000000001,0.9908954813361334
178,1324.46,0.9802351065364402
179,1333.64,0.9687257481433352
180,1345.98,0.9583909503905126
181,1355.3100000000002,0.9480977971543831
182,1364.71,0.9364808003248423
183,1374.17,0.9267699375580918
184,1383.6899999999998,0.9169257788541312
185,1396.5,0.8986827712598312
186,1406.1799999999998,0.8883994200566449
187,1415.9199999999998,0.8823244329162481
188,1425.74,0.8716409545262381
189,1435.62,0.8621176001990188
190,1442.25,0.8556377241373317
191,1445.43977,0.852255932040403
192,1445.57,0.8521579282136146
193,1455.59,0.844286911690541
194,1465.68,0.835867107437266
195,1475.84,0.8285783954537904
196,1486.07,0.8213674857401133
197,1496.37,0.8136615882962352
198,1503.28,0.8076940852149539
199,1513.7,0.7985793845193025
200,1517.1899999999998,0.7967308991135614
201,1524.19,0.7915787460934499
202,1534.76,0.7815869488330818
203,1545.4,0.7729503938425126
204,1556.11,0.7649891711217423
205,1563.29,0.7611427882239711
206,1574.1299999999999,0.7543335811471128
207,1585.04,0.7467921163400537
208,1596.03,0.7390312026984789
209,1603.39,0.7331520399230474
210,1614.5100000000002,0.7249807819253847
211,1625.6999999999998,0.7165559761975214
212,1633.1999999999998,0.7118476379616878
213,1644.52,0.7036404778777363
214,1655.9199999999998,0.6950149989592694
215,1659.58691,0.6927063149155456
216,1663.57,0.6910472004109948
217,1671.24,0.6857983718627231
218,1675.1,0.6856763963221326
219,1686.7099999999998,0.6798406281806157
220,1694.4899999999998,0.675075364059944
221,1706.24,0.6686652188262812
222,1714.1200000000001,0.6639052196397908
223,1726.0,0.6577969178205642
224,1733.96,0.6547095045814191
225,1745.98,0.6483285556700468
226,1754.04,0.6449587873650834
227,1766.2,0.6378711613615652
228,1774.3500000000001,0.633716438497365
229,1786.6499999999999,0.6279753254017013
230,1794.9,0.6246590374716827
231,1803.18,0.6204845180219187
232,1815.68,0.6128945847946181
233,1824.0600000000002,0.6091496002790356
234,1836.71,0.6024204694530074
235,1845.1899999999998,0.5964370398716067
236,1853.7,0.5927239787704602
237,1866.55,0.5872311278127952
238,1875.1699999999998,0.5835985211392487
239,1883.82,0.5781710129459565
240,1896.8799999999999,0.5716664913500729
241,1905.46072,0.5680246674907632
242,1905.64,0.567972434504529
243,1914.43,0.5643930509198185
244,1923.27,0.560049548338608
245,1936.6,0.554335305871692
246,1945.54,0.5539319552974813
247,1954.52,0.5498070955260707
248,1968.0700000000002,0.5469453174745543
249,1977.15,0.5431784297101434
250,1986.28,0.5401468029492326
251,1995.45,0.5368506269911216
252,2004.66,0.5333882518358106
253,2013.9099999999999,0.5302659974832996
254,2023.21,0.5255839341342884
255,2037.2299999999998,0.5221663155156717
256,2046.63,0.5201280641736603
257,2056.08,0.5150793938351491
258,2065.5699999999997,0.5116156742994378
259,2075.11,0.5106894957672263
260,2079.89,0.5174091317018208
261,2084.68,0.520518247837115
262,2094.31,0.5143691611112033
263,2103.97,0.5099531149873919
264,2113.68,0.5101101698670802
265,2123.44,0.5030069357502686
266,2133.2400000000002,0.49816854243625674
267,2143.09,0.501001470125745
268,2152.98,0.49720813861803326
269,2162.92,0.48924603811382134
270,2172.9,0.48601467841240936
271,2182.93,0.48952294971449756
272,2187.7616199999998,0.48785471418278364
273,2193.0099999999998,0.4866621704602691
274,2203.13,0.4829831526976567
275,2213.3,0.47274641860222494
276,2223.52,0.47504659817397415
277,2233.7799999999997,0.4828955206794679
278,2244.09,0.4781174268521423
279,2254.4500000000003,0.46564361669199755
280,2264.85,0.46089947946559756
281,2275.31,0.46066584663981436
282,2285.81,0.46936797674777575
283,2296.36,0.45911054052291794
284,2306.96,0.46452163796524093
285,2317.61,0.45555143907474466
286,2322.95,0.44684980072965086
287,2333.67,0.4410884269732076
288,2344.45,0.43004071761738133
289,2355.27,0.4441038911952996
290,2366.14,0.4266101284403988
291,2377.06,0.4303614293526786
292,2382.54,0.41795454127569087
293,2393.54,0.41945978805545997
294,2404.58,0.4167460377689737
295,2415.68,0.4179524318831044
296,2426.83,0.43361209966441583
297,2432.43,0.4322412103886619
298,2443.66,0.4384129240374625
299,2454.94,0.4387568713534439
300,2466.27,0.4281107423366061
301,2477.65,0.41879511698694905
302,2483.36,0.4001897157789928
303,2494.82,0.40346410629682505
304,2506.34,0.4187925912152741
305,2511.88643,0.3907348848951562
306,2512.12,0.38956802728625567
307,2517.91,0.38364485550952654
308,2523.71,0.38483275391971156
309,2535.3599999999997,0.3967111216746523
310,2547.07,0.39646799055107745
311,2552.94,0.4255403102696613
312,2564.72,0.40580551045448543
313,2576.56,0.4178804817607942
314,2582.5,0.4091866627877767
315,2594.42,0.40099762558939833
316,2606.39,0.3914475093255906
317,2612.4,0.386000331660972
318,2624.46,0.39847179707939123
319,2636.58,0.4380907336192951
320,2642.65,0.4712484470761611
321,2654.8500000000004,0.5217450751113779
322,2667.1,0.4540170040811653
323,2673.25,0.46822891903334424
324,2685.59,0.4889924896853585
325,2697.9900000000002,0.44162362145885753
326,2704.21,0.46803755771943534
327,2716.69,0.42548527098824723
328,2722.9500000000003,0.4024818679964814
329,2735.52,0.42301195294752036
330,2748.1499999999996,0.37715849902004406
331,2754.4800000000005,0.3982140373366768
332,2767.2000000000003,0.4222613750914275
333,2773.58,0.4278258743426311
334,2786.38,0.3783783835926946
335,2792.7999999999997,0.3417169035915546
336,2805.69,0.3451856245238451
337,2812.1600000000003,0.4060759254572756
338,2825.14,0.45042919807179316
339,2838.1800000000003,0.4373030818077953
340,2844.72,0.3948057540496247
341,2857.85,0.35089242946785393
342,2864.4399999999996,0.4295955326442539
343,2877.6600000000003,0.47999159974470995
344,2884.0315,0.46307139455390434
345,2884.3,0.46237287528919646
346,2897.61,0.5018926404223387
347,2910.99,0.5766247101053926
348,2931.16,0.5375764211298466
349,2951.48,0.5143925419041104
350,2971.94,0.5204604717781971
351,2992.5400000000004,0.5229380107521063
352,3013.2799999999997,0.5199024588258384
353,3027.19,0.5372388629582208
354,3048.18,0.5495071272816363
355,3069.31,0.5721533007048742
356,3090.58,0.559464583227935
357,3111.9999999999995,0.6077405755008057
358,3133.57,0.5766421775234865
359,3148.0399999999995,0.5742364180551598
360,3169.8599999999997,0.6082284363275239
361,3191.83,0.560598164349698
362,3206.56,0.5929123217810419
363,3228.7900000000004,0.5385557667028866
364,3251.17,0.6582737213745415
365,3273.71,0.7274766864459938
366,3288.82,0.7170232685768564
367,3311.31121,0.6813427217489949
368,3311.6200000000003,0.6808645536267611
369,3319.2500000000005,0.6424754250297249
370,3326.8999999999996,0.6493927557286335
371,3334.57,0.693619645723487
372,3342.26,0.6626719950142854
373,3349.96,0.6967109239530562
374,3357.69,0.7101173918357443
375,3365.43,0.5605138393664049
376,3373.1800000000003,0.5591617665450377
377,3380.96,0.6647290326675879
378,3388.76,0.686530058086083
379,3396.5699999999997,0.6229664631525507
380,3404.4,0.7489680275149629
381,3412.2400000000002,0.6654087715253477
382,3420.11,0.6780211544796498
383,3427.9900000000002,0.6974599170819243
384,3435.9,0.7133253186281162
385,3443.82,0.5752767998222804
386,3451.7599999999998,0.6893159403123895
387,3459.7099999999996,0.7038718604504711
388,3467.69,0.69458761953247
389,3475.68,0.6961703582624411
390,3483.69,0.6999532562883573
391,3491.73,0.7082093932581908
392,3499.78,0.6336346098759965
393,3507.8399999999997,0.7624273061417748
394,3515.93,0.6628091413514703
395,3524.03,0.7160453562091382
396,3532.16,0.7328641100107236
397,3540.3,0.7639222434602813
398,3548.46,0.7942983362057838
399,3556.64,0.7206188882472312
400,3564.84,0.7449358995846235
401,3573.06,0.5980370702179607
402,3581.3,0.6410266001472426
403,3589.55,0.521777209724497
404,3597.16,0.656469321831516
405,3599.8999999999996,0.6308487453759617
406,3602.64,0.7153338689204074
407,3605.37,0.5546404128168807
408,3608.11,0.5879695363613264
409,3610.85,0.651081659905772
410,3613.5899999999997,0.6233283834502179
411,3616.32,0.8621227273466912
412,3619.06,0.7308341508911368
413,3621.8,0.6930857744355825
414,3624.54,0.6548648979800282
415,3627.2700000000004,0.6832112418765015
416,3630.01,0.7130010654209471
417,3632.75,0.7107192889653929
418,3635.4900000000002,0.7556512125098387
419,3638.22,0.7606590564063119
420,3640.9599999999996,0.7660723799507576
421,3643.7000000000003,0.7255571034952033
422,3646.44,0.6985416270396491
423,3649.17,0.7385547709361224
424,3651.91,0.7794518944805681
425,3654.6499999999996,0.8067746180250137
426,3657.39,0.9052606415694595
427,3660.1299999999997,0.8816629651139053
428,3662.86,0.7962208090103784
429,3665.6,0.7462581325548241
430,3668.34,0.8259188560992698
431,3671.08,0.8568495796437157
432,3673.81,0.8639791235401889
433,3676.55,0.7691600470846346
434,3679.29,0.7492227706290804
435,3682.03,0.7752656941735261
436,3684.76,0.7664628380699993
437,3687.5,0.7822572616144451
438,3690.2400000000002,0.7937573851588907
439,3692.98,0.8046867087033365
440,3695.71,0.8285896525998097
441,3698.45,0.8455713761442555
442,3701.1899999999996,0.8013381996887012
443,3703.93,0.7502228232331469
444,3706.66,0.6932029671296202
445,3709.4,0.7441989906740658
446,3712.14,0.7710720142185116
447,3714.8799999999997,0.7196915377629574
448,3717.62,0.772871761307403
449,3720.35,0.7737526052038763
450,3723.09,0.7794367287483219
451,3725.83,0.7546575522927677
452,3728.57,0.7666821758372134
453,3731.3,0.7857142197336867
454,3734.04,0.6929300432781323
455,3736.78,0.621888266822578
456,3739.52,0.6202117903670238
457,3742.2499999999995,0.6846933342634971
458,3744.9900000000002,0.6263497578079428
459,3747.73,0.6202119813523885
460,3750.4700000000003,0.6727296048968342
461,3753.2,0.7281558487933075
462,3755.94,0.7216662723377532
463,3758.68,0.716462095882199
464,3761.4199999999996,0.6965017194266447
465,3764.15,0.6927363633231179
466,3766.89,0.7536466868675636
467,3769.63,0.8529688104120093
468,3772.37,0.811560033956455
469,3775.1099999999997,0.7716327575009009
470,3777.84,0.869737101397374
471,3780.58,0.8859693249418198
472,3783.32,0.8242133484862655
473,3786.06,0.7512232720307112
474,3788.7900000000004,0.7899915159271844
475,3791.53,0.7438390394716301
476,3794.27,0.7473385630160758
477,3797.01,0.7522675865605215
478,3799.74,0.7627744304569949
479,3801.8939600000003,0.7584114221788162
480,3802.4799999999996,0.7572399971381225
481,3805.2200000000003,0.814562959366802
482,3807.96,0.7434790215954817
483,3810.69,0.7156869372466845
484,3813.43,0.6748125994753641
485,3816.1699999999996,0.6478240617040437
486,3818.91,0.6364448239327234
487,3821.64,0.606871139583926
488,3824.38,0.5628267018126056
489,3827.12,0.5532055640412853
490,3829.86,0.6065169262699649
491,3832.6,0.5067741884986445
492,3835.33,0.5118481041498473
493,3838.07,0.5740247663785268
494,3840.81,0.6575977286072066
495,3843.55,0.7073409908358861
496,3846.28,0.6531721064870888
497,3849.0200000000004,0.7667126687157684
498,3851.76,0.720910030944448
499,3854.5,0.6398254931731278
500,3857.23,0.7219259088243304
501,3859.97,0.66941967105301
502,3862.7099999999996,0.7330371332816897
503,3865.4500000000003,0.7280616955103693
504,3868.18,0.7418980111615721
505,3870.92,0.6464028733902516
506,3873.66,0.6631755356189313
507,3876.3999999999996,0.7110223978476109
508,3879.13,0.7546419134988136
509,3881.87,0.7124474757274932
510,3884.61,0.7836101379561727
511,3887.35,0.7600109001848524
512,3890.09,0.7359965624135321
513,3892.82,0.7759270780647347
514,3895.56,0.8239929402934144
515,3898.3,0.8901003025220939
516,3901.04,0.8288209647507736
517,3903.7699999999995,0.8576386804019764
518,3906.51,0.8659896426306559
519,3909.25,0.8652911048593356
520,3911.9900000000002,0.9065550670880151
521,3914.72,0.8419365827392179
522,3917.46,0.8470597449678976
523,3920.2,0.8384643071965772
524,3922.9399999999996,0.7070705694252568
525,3925.67,0.6449701850764595
526,3928.41,0.5678915473051391
527,3931.15,0.5321821095338187
528,3933.89,0.5595895717624984
529,3936.6200000000003,0.6135607874137011
530,3939.36,0.6963902496423806
531,3942.1,0.7784126118710604
532,3944.84,0.83425987409974
533,3947.58,0.8548885363284195
534,3950.3100000000004,0.8601885519796223
535,3953.05,0.8340702142083019
536,3955.79,0.8249560764369815
537,3958.53,0.8073111386656612
538,3961.2599999999998,0.6640408543168639
539,3963.9999999999995,0.5579456165455435
540,3966.7400000000002,0.6021785787742231
541,3969.48,0.6534320410029028
542,3972.21,0.7491185566541054
543,3974.95,0.8512577188827851
544,3977.69,0.9350032811114647
545,3980.43,0.9886600433401443
546,3983.16,1.041283958991347
547,3985.9,1.0828939212200268
548,3988.64,1.0922244834487063
549,3991.38,1.1160230456773859
550,3994.11,1.1044352613285886
551,3996.85,1.1068489235572683
552,3999.59,1.1075909857859478
553,4002.33,1.1094282480146276
554,4005.07,1.1532283102433072
555,4007.8,1.1558204258945097
556,4010.5400000000004,1.1901092881231896
557,4013.28,1.237713250351869
558,4016.02,1.2253132125805486
559,4018.75,1.1965488282317513
560,4021.49,1.225016790460431
561,4024.2299999999996,1.1825857526891108
562,4026.9700000000003,1.1794078149177902
563,4029.7,1.163727730568993
564,4032.44,1.1215271927976727
565,4035.18,1.1523578550263522
566,4037.9199999999996,1.1880302172550319
567,4040.65,1.1650876329062345
568,4043.39,1.1415625951349142
569,4046.13,1.133197457363594
570,4048.87,1.1160708195922733
571,4051.6000000000004,1.134975135243476
572,4054.34,1.1181943974721558
573,4057.08,1.0941507597008355
574,4059.82,1.089647721929515
575,4062.5499999999997,1.0837085375807178
576,4065.29,1.0985727998093973
577,4068.03,1.119719762038077
578,4070.7700000000004,1.0929095242667566
579,4073.51,1.1064479864954362
580,4076.24,1.143970402146639
581,4078.98,1.2069072643753187
582,4081.72,1.2724382266039982
583,4084.4599999999996,1.2496621888326778
584,4087.19,1.2291988044838806
585,4089.93,1.20065876671256
586,4092.67,1.1709661289412399
587,4095.41,1.1460003911699195
588,4098.14,1.117004906821122
589,4100.88,1.1227042690498017
590,4103.62,1.1486931312784814
591,4106.36,1.162750393507161
592,4109.09,1.1600970091583638
593,4111.83,1.1719637713870434
594,4114.570000000001,1.205849733615723
595,4117.31,1.2259016958444025
596,4120.05,1.1844506580730823
597,4122.78,1.167617173724285
598,4125.5199999999995,1.1308348359529645
599,4128.26,1.1667957981816441
600,4131.0,1.1647709604103238
601,4133.73,1.1901307760615265
