,lambda (Angstroms),Total Flux (erg/s/cm^2/Angstrom)
0,102.07000000000001,7.983353176659522
1,103.97,7.9605985383628814
2,104.712855,7.951702014253495
3,105.9,7.87702009635662
4,108.12,7.737362467241989
5,109.88,7.626642913619626
6,114.0,7.367458497138397
7,118.01,7.11519406273632
8,120.22644299999999,6.975760416561233
9,121.02999999999999,6.933378922724504
10,125.0,6.723991508798209
11,127.03,6.616924392711992
12,127.91,6.570511081844244
13,130.89,6.413338686598504
14,132.1,6.349520487674639
15,133.94,6.252474477093085
16,137.06,6.087918412524194
17,138.038426,6.0363139079715875
18,139.93,5.965002786568314
19,142.86,5.854547153369269
20,146.85999999999999,5.703759660743654
21,150.98,5.548440451508042
22,154.85,5.402546752247843
23,158.489319,5.265349783085577
24,158.82,5.255925191543349
25,162.15,5.1610182268399125
26,165.92,5.053572448369176
27,170.17999999999998,4.932160788576671
28,172.94,4.8535007279781475
29,176.97,4.738645184892186
30,179.85000000000002,4.656565230998943
31,181.93,4.597285329247158
32,181.970086,4.5961428806472435
33,186.17000000000002,4.5048267988960315
34,190.94,4.401117253531195
35,194.04999999999998,4.333500091885946
36,198.10999999999999,4.245227581900088
37,201.79,4.165218970138474
38,205.07000000000002,4.093905840712904
39,208.929613,4.009988347009593
40,209.85,3.994943758465233
41,216.22,3.8908313697221173
42,220.23999999999998,3.8251268493445156
43,222.79,3.7834479293691707
44,226.94,3.715619638415179
45,230.09,3.664217995510342
46,233.83,3.6032636417665036
47,239.83,3.505307885771575
48,239.88329199999998,3.5044366672201295
49,245.98,3.4276298930096947
50,251.70999999999998,3.3555108074875037
51,256.97999999999996,3.2890466141667454
52,259.96,3.2516009590052914
53,264.18,3.1984890760095412
54,269.09,3.136660049511644
55,274.1,3.0735669830351724
56,275.42287,3.056907601004105
57,279.19,3.0205024428667033
58,283.72999999999996,2.976631132394815
59,289.67,2.9191926494567055
60,295.74,2.8605461895053037
61,301.23,2.8074803554670513
62,308.25,2.739647775249285
63,316.227766,2.662560660067971
64,318.35,2.64724704270147
65,328.02,2.5774538437614427
66,337.99,2.505486592016244
67,348.26000000000005,2.431346977765873
68,357.19,2.366883950085269
69,363.078055,2.3243842744363543
70,366.36,2.306646328786343
71,374.89000000000004,2.2605300096938263
72,385.39,2.2037291599914326
73,395.28000000000003,2.1502947496403197
74,405.42,2.0954798606534353
75,413.90999999999997,2.049572862862643
76,416.86938299999997,2.0335672285701856
77,421.6,2.014028016001081
78,430.43,1.9775651429366343
79,441.46999999999997,1.9319832583079262
80,450.72,1.8937782161543437
81,460.16,1.8547885643413908
82,469.79,1.8150168338690664
83,478.630092,1.7785165822572324
84,479.63,1.775341515597289
85,489.66999999999996,1.7434329444176706
86,499.93,1.7108583609153911
87,505.71,1.6924877635291167
88,511.57,1.6739506664800565
89,519.88,1.647556993883181
90,529.5500000000001,1.6168331280189467
91,539.39,1.585546032496293
92,549.42,1.5537180816495229
93,549.5408739999999,1.5533346461854958
94,559.64,1.528905178498985
95,570.04,1.5037401435453994
96,580.64,1.478029525515783
97,590.0699999999999,1.4552319426309448
98,599.66,1.4319791530852823
99,609.4,1.4083221829825967
100,619.31,1.3844687361152856
101,629.3700000000001,1.360109644690951
102,630.957344,1.3562646085668526
103,639.6,1.339669511588707
104,649.99,1.3197635446570124
105,657.51,1.3053422741029852
106,665.13,1.2907460294591437
107,674.38,1.272975812151331
108,685.34,1.2518913239076959
109,694.8699999999999,1.2337825671484037
110,704.5400000000001,1.2151432566633709
111,715.99,1.193320285379646
112,724.43596,1.1771249702293223
113,725.95,1.1749711986254239
114,734.35,1.1630316911538705
115,744.5699999999999,1.1485930357634804
116,754.9300000000001,1.133899015148564
117,765.43,1.1189425113091223
118,774.29,1.1064946470998405
119,785.0600000000001,1.0912376713273844
120,794.15,1.0783583112492392
121,805.1999999999999,1.0626873450277312
122,814.53,1.049448123564684
123,825.86,1.0334874438941242
124,831.763771,1.0248006838261448
125,835.4200000000001,1.0207373219378761
126,845.09,1.0109702876764073
127,854.88,1.0006026128480952
128,864.78,0.9902370985835095
129,874.79,0.9797663238826507
130,884.92,0.9692286236149488
131,895.17,0.958479695780403
132,905.53,0.9474219565095842
133,916.02,0.9382376945413515
134,924.5,0.9623584298177471
135,935.2,0.9976721901075385
136,946.0300000000001,1.065864797699916
137,954.78,1.1307167084509138
138,954.992586,1.1308764403737064
139,965.84,1.1392766324626131
140,974.78,0.9086091489658251
141,986.06,1.0596544843524278
142,995.1899999999999,1.0757024992265134
143,1004.4,1.1945171986778087
144,1016.03,1.1775209815897052
145,1025.43,0.9704247694118742
146,1034.92,1.0400882148834043
147,1044.49,1.2755205449321445
148,1054.1599999999999,1.2566860057023972
149,1063.91,1.1324733510498595
150,1076.23,1.200381175940192
151,1086.1899999999998,1.0840197558028306
152,1096.24,1.2085177933148303
153,1096.4782,1.2077097353829465
154,1103.84,1.1841272089448174
155,1114.05,1.1523630677475865
156,1124.36,1.0957438559215875
157,1134.76,1.2134575105296972
158,1145.26,1.1539723945090385
159,1155.86,1.1817289078596118
160,1163.8700000000001,1.1909279204952807
161,1174.64,1.010387103776948
162,1185.51,1.1575551164298472
163,1193.73,0.9754237507451031
164,1204.77,0.8659540333290964
165,1215.92,0.8001081082214446
166,1224.35,0.9656490642162875
167,1235.68,1.150978971976853
168,1244.24,1.2011205461542969
169,1255.76,1.157360049720203
170,1258.92541,1.122930123573675
171,1264.46,1.064087406559699
172,1276.16,1.2198618684416391
173,1285.01,1.2515130203779785
174,1293.91,1.0826959426642404
175,1305.89,1.0662948985057483
176,1314.94,1.213758131841779
177,1324.05,1.1792885495977168
178,1336.3,1.086492285328808
179,1345.5700000000002,1.2085859282044988
180,1354.8899999999999,1.1806176414301128
181,1364.29,1.096913667215603
182,1373.74,1.126827963351016
183,1386.4499999999998,1.1259472463013973
184,1396.0600000000002,1.0392462675565635
185,1405.74,1.0540388873016213
186,1415.48,1.0581239914665868
187,1425.3,1.075344708191429
188,1435.18,1.0627949093361782
189,1441.8,1.0963991236659598
190,1445.43977,1.1018687637736384
191,1448.46,1.1069624760073309
192,1455.14,1.0831646779344035
193,1465.2299999999998,1.0252141944679611
194,1475.38,1.0221271226954745
195,1485.61,1.0330262665149288
196,1495.91,1.0416569739773314
197,1506.2800000000002,1.0028083450826821
198,1513.23,0.931571049632556
199,1516.72,0.9706357798309816
200,1523.72,0.9481192441258184
201,1534.2800000000002,0.8716387022620292
202,1544.9199999999998,0.9213793759901812
203,1555.63,0.8883368133612812
204,1566.41,0.8909699143753299
205,1573.64,0.9212743734969969
206,1584.5500000000002,0.9465487498479496
207,1595.53,0.9538646898418508
208,1606.59,0.9395531454276929
209,1614.01,0.9399810915802198
210,1625.19,0.9027704705539734
211,1636.46,0.9352537170686605
212,1644.01,0.9418192385580915
213,1655.4099999999999,0.8910322604096829
214,1659.58691,0.9077830480336584
215,1666.88,0.9379589975049523
216,1670.73,0.867181519060161
217,1678.4399999999998,0.9395179869018907
218,1686.1799999999998,0.9668536289375569
219,1693.97,0.9261897946297843
220,1705.71,0.8985882291903428
221,1713.5800000000002,0.8664966927330681
222,1725.46,0.8607553735319978
223,1733.43,0.8962452843878455
224,1745.44,0.8797532866938342
225,1753.5,0.9171861201314918
226,1765.65,0.8622336686758516
227,1773.8000000000002,0.8747820246953194
228,1786.1,0.8818002442093629
229,1794.3400000000001,0.9215890228106407
230,1806.78,0.9127643885630552
231,1815.1200000000001,0.8624857144774554
232,1823.5000000000002,0.8730344393171043
233,1836.14,0.8458274996957635
234,1844.6100000000001,0.7994949471172226
235,1853.13,0.7990428181952429
236,1865.97,0.8123274732001469
237,1874.59,0.8542486915912895
238,1883.24,0.8082906841763686
239,1896.29,0.7862068585388293
240,1905.04,0.811736798437031
241,1905.46072,0.8107223929655261
242,1913.84,0.7911850657894142
243,1927.1,0.7798252520276969
244,1936.0,0.789586560890496
245,1944.94,0.8131646484448132
246,1953.91,0.779256195017769
247,1967.46,0.8256331517695588
248,1976.54,0.8380000147441897
249,1985.6599999999999,0.8065754564103389
250,1994.83,0.7899163964408857
251,2004.03,0.8025719954900713
252,2013.2900000000002,0.7814799125765342
253,2027.2399999999998,0.8020829562435059
254,2036.6000000000001,0.774191570058764
255,2046.0,0.7945609625655407
256,2055.44,0.7657111337638354
257,2064.9300000000003,0.7658074033265277
258,2074.46,0.8034907515807386
259,2079.24,0.7816029552171633
260,2084.04,0.802582098199347
261,2093.66,0.7705752235094736
262,2103.3199999999997,0.7696142275111186
263,2113.0299999999997,0.774233229877161
264,2122.7799999999997,0.7778233109347219
265,2132.58,0.7371081903566803
266,2147.36,0.7511457668726546
267,2157.27,0.7680192626962881
268,2167.23,0.7479167568843195
269,2177.23,0.742428529763869
270,2187.28,0.7348016010078162
271,2187.7616199999998,0.7358050762869015
272,2197.38,0.7565236875184536
273,2207.52,0.7405249389218793
274,2212.61,0.7119973144291216
275,2222.82,0.6972137401519005
276,2233.08,0.7312796903885029
277,2243.3900000000003,0.7074539651389289
278,2253.75,0.6827183644031786
279,2264.15,0.6911117632784871
280,2274.6,0.7038750866676192
281,2285.1,0.7182074345705749
282,2295.65,0.6874898069873542
283,2306.24,0.6890849790151925
284,2316.89,0.664854200459619
285,2327.58,0.5690242215151042
286,2332.95,0.6267063942997587
287,2343.72,0.6105202145773618
288,2354.5299999999997,0.6473248344660238
289,2365.4,0.6058148037712742
290,2376.32,0.618047297590348
291,2387.29,0.5846624159232456
292,2392.79,0.6096791124438414
293,2403.8399999999997,0.5929423299988568
294,2414.9300000000003,0.6023126471649309
295,2426.08,0.6308958137475934
296,2437.28,0.6139872048440794
297,2442.9,0.6379102001978518
298,2454.17,0.6316808656136911
299,2465.5,0.6245294804461184
300,2476.88,0.6067194197923695
301,2482.59,0.6103708392710244
302,2494.0499999999997,0.5836986778393933
303,2505.56,0.6339906409215856
304,2511.34,0.5779554347195937
305,2511.88643,0.5786708917228168
306,2517.13,0.5857336245755679
307,2522.93,0.5701833624736736
308,2534.5800000000004,0.5789008429069373
309,2546.27,0.5718976270498435
310,2552.14,0.6058349714398228
311,2563.92,0.5887037639294235
312,2575.76,0.6135045619834875
313,2587.65,0.604947464674604
314,2593.61,0.596251517411278
315,2605.5899999999997,0.5801594284490894
316,2617.61,0.5721384431965428
317,2623.65,0.5932083033525011
318,2635.7599999999998,0.6149480264466493
319,2647.92,0.65754985417785
320,2654.03,0.678347920825682
321,2666.2799999999997,0.6166382569035775
322,2672.4199999999996,0.639646526333641
323,2684.7599999999998,0.6414816707582314
324,2697.1499999999996,0.6125762198198743
325,2703.37,0.629543596669222
326,2715.8500000000004,0.5984611540775596
327,2722.1099999999997,0.5932035346365495
328,2734.67,0.6155436994641713
329,2747.29,0.5473104698562564
330,2753.63,0.5599975578345304
331,2766.3399999999997,0.5778724365733102
332,2772.7200000000003,0.5964653282612264
333,2785.5099999999998,0.5618919144192904
334,2791.9300000000003,0.48291160981684866
335,2804.82,0.504210505249018
336,2817.77,0.5844626062456504
337,2824.26,0.6174011081350823
338,2837.2999999999997,0.6004026174784095
339,2843.84,0.5836869240048941
340,2856.97,0.5554996416949161
341,2863.55,0.6144623519310428
342,2876.77,0.6222681779677595
343,2883.3999999999996,0.6135020928409388
344,2884.0315,0.6135822015045846
345,2896.71,0.6155998694765578
346,2910.08,0.6649614776747785
347,2930.25,0.6393986635654378
348,2950.56,0.6274190825262356
349,2971.02,0.6387943583478959
350,2991.61,0.6384957434489704
351,3012.35,0.6458691854109075
352,3033.23,0.6444477604429831
353,3047.23,0.6457237674568269
354,3068.3500000000004,0.6498788134662827
355,3089.6200000000003,0.652994416336601
356,3111.04,0.6560983760677821
357,3132.6,0.6456001688691015
358,3147.06,0.6457792702562574
359,3168.88,0.6499520816164054
360,3190.8399999999997,0.6164924260466919
361,3212.96,0.637982651128565
362,3227.79,0.6045210327725152
363,3250.1600000000003,0.6479820526224928
364,3272.6899999999996,0.6736955531240572
365,3287.8,0.6666521009082842
366,3310.59,0.6615314199686771
367,3311.31121,0.661598677983165
368,3318.2200000000003,0.6623993920336686
369,3325.8700000000003,0.6596903931827014
370,3333.54,0.6787342947268951
371,3341.22,0.649590046468669
372,3348.92,0.696924398605604
373,3356.6400000000003,0.6728184511376998
374,3364.38,0.5985867040649565
375,3372.1400000000003,0.605686157387374
376,3379.91,0.670590460907372
377,3387.7000000000003,0.6702410648225308
378,3395.5099999999998,0.6483761691328506
379,3403.34,0.6933387738383311
380,3411.18,0.6406979287413921
381,3419.05,0.6520469342371944
382,3426.9300000000003,0.6624891899305771
383,3434.83,0.6958238460191208
384,3442.75,0.6393169025028252
385,3450.68,0.6566520091841103
386,3458.64,0.6562931664581365
387,3466.61,0.6440731739297432
388,3474.6,0.6689703817965107
389,3482.6099999999997,0.6493009900584392
390,3490.64,0.6695069987155283
391,3498.69,0.6242623077677786
392,3506.75,0.6737435670176091
393,3514.84,0.637322976860181
394,3522.94,0.6743111369003334
395,3531.06,0.6342637973356466
396,3539.2000000000003,0.6773571581661206
397,3547.36,0.6949157193917556
398,3555.54,0.6829993810125514
399,3563.73,0.6725433928309277
400,3571.95,0.6278773552420451
401,3580.18,0.6286489678507432
402,3588.44,0.5708596310521824
403,3596.71,0.6407428444512021
404,3605.0,0.6695244582453826
405,3613.31,0.6191820724347241
406,3621.64,0.6188420870192265
407,3629.9900000000002,0.7276491019988898
408,3633.22,0.5958242158173702
409,3635.9599999999996,0.5488626699544095
410,3638.71,0.570106074289029
411,3641.45,0.7189022284260682
412,3644.19,0.7812863825631073
413,3646.94,0.799376586897727
414,3649.6800000000003,0.6333375410347661
415,3652.42,0.6695573951718053
416,3655.16,0.6762638493088446
417,3657.91,0.7508594536434642
418,3660.6499999999996,0.8044566077805033
419,3663.3900000000003,0.7384238619175425
420,3666.14,0.8741341662521621
421,3668.88,0.7589260203892012
422,3671.62,0.5917041745262406
423,3674.3700000000003,0.7008175788608602
424,3677.11,0.7561877329978993
425,3679.85,0.6732901871349385
426,3682.6,0.7271592914695582
427,3685.3399999999997,0.7823718456065972
428,3688.0800000000004,0.6813880997436365
429,3690.82,0.6798986538806756
430,3693.5699999999997,0.7435792582152952
431,3696.31,0.7933148123523344
432,3699.0499999999997,0.7432800664893736
433,3701.8,0.6857941708239932
434,3704.54,0.6986084249610324
435,3707.28,0.6878196790980715
436,3710.03,0.6299399834326912
437,3712.7700000000004,0.7481589375697304
438,3715.51,0.7158163917067696
439,3718.2599999999998,0.9225715960413892
440,3721.0,1.2164127501784283
441,3723.74,1.4364531043154676
442,3726.48,1.3604914584525067
443,3729.23,1.0911688627871263
444,3731.97,0.9983422169241656
445,3734.71,0.8046020710612047
446,3737.46,0.7529083753958243
447,3740.2000000000003,0.6897521295328635
448,3742.94,0.6673786836699027
449,3745.69,0.6944927880045223
450,3748.43,0.6892206421415614
451,3751.1699999999996,0.7652383962786007
452,3753.92,0.7805705006132203
453,3756.66,0.6853791547502595
454,3759.4,0.7232541088872986
455,3762.14,0.8155064630243378
456,3764.8900000000003,0.7247635673589575
457,3767.63,0.7079461214959966
458,3770.37,0.7711971756330358
459,3773.12,0.8307794799676554
460,3775.8599999999997,0.8863469341046947
461,3778.6,0.8663773882417338
462,3781.35,0.8280018925763535
463,3784.09,0.7820652467133926
464,3786.83,0.7708039008504317
465,3789.5800000000004,0.7992967051850514
466,3792.32,0.7592312593220907
467,3795.06,0.7497823134591297
468,3797.8,0.7740631675961689
469,3800.5499999999997,0.8183568719307885
470,3801.8939600000003,0.8103206553300599
471,3803.2899999999995,0.8019952871932072
472,3806.03,0.9197462331181179
473,3808.7799999999997,0.8870491886996887
474,3811.52,0.8964791346245993
475,3814.2599999999998,0.8670570805495099
476,3817.01,0.8321142361310807
477,3819.75,0.7495757820559912
478,3822.4900000000002,0.7554198279809019
479,3825.23,0.7460933739058124
480,3827.9800000000005,0.7384970294873833
481,3830.7200000000003,0.7689684754122939
482,3833.46,0.7477814213372044
483,3836.21,0.7044065769187752
484,3838.95,0.7329471228436858
485,3841.6899999999996,0.8672081687685964
486,3844.44,0.9536679243501671
487,3847.18,0.9595123702750777
488,3849.92,0.9302085161999883
489,3852.67,0.9556317717815591
490,3855.4100000000003,0.9644708177064697
491,3858.15,0.9205876636313802
492,3860.8900000000003,0.9199698095562908
493,3863.64,0.9715177651378618
494,3866.3799999999997,1.0267745110627722
495,3869.12,0.9378527569876829
496,3871.87,0.9048402125692537
497,3874.61,0.8964597584941643
498,3877.35,0.8738939044190749
499,3880.1000000000004,0.8313854600006457
500,3882.84,0.7773359059255562
501,3885.58,0.7197005518504668
502,3888.33,0.7379137074320377
503,3891.0699999999997,0.7270899533569483
504,3893.81,0.7730863992818587
505,3896.5499999999997,0.8547435452067693
506,3899.3,0.9382088007883401
507,3902.04,0.9885399467132507
508,3904.7799999999997,0.9169557926381613
509,3907.53,0.9021873482197321
510,3910.27,0.9237537941446428
511,3913.01,0.9665194400695533
512,3915.7599999999998,0.9182577956511242
513,3918.4999999999995,0.9274120415760347
514,3921.24,0.9030336875009454
515,3923.99,0.7778956430825161
516,3926.73,0.7820847890074267
517,3929.47,0.7636560349323372
518,3932.21,0.8176516808572478
519,3934.96,0.8266834364388187
520,3937.7000000000003,0.8777237823637293
521,3940.44,0.8501141282886399
522,3943.1899999999996,0.8831820838702106
523,3945.9300000000003,0.9075854297951212
524,3948.67,0.9044456757200318
525,3951.42,0.8856187313016026
526,3954.16,0.8770018772265131
527,3956.8999999999996,0.8515988231514238
528,3959.65,0.7750852787329947
529,3962.39,0.6855722246579052
530,3965.13,0.6461017705828158
531,3967.87,0.7049831165077264
532,3970.6200000000003,0.7946747720892972
533,3973.36,0.7837328180142078
534,3976.1000000000004,0.7748792639391183
535,3978.85,0.8750914195206891
536,3981.5899999999997,0.9149804654455997
537,3984.33,0.9678728113705103
538,3987.08,0.9330085669520811
539,3989.82,0.9711639128769917
540,3992.56,1.0352470588019023
541,3995.3100000000004,0.979301514383473
542,3998.05,0.9587847603083837
543,4000.79,0.9660870062332942
544,4003.53,1.0573982521582048
545,4006.2799999999997,1.0282472077397757
546,4009.02,1.0570246536646861
547,4011.7599999999998,1.0694099995895967
548,4014.51,1.0566508551711675
549,4017.25,1.0762471010960781
550,4019.99,1.0268081470209887
551,4022.7400000000002,1.0448234026025596
552,4025.48,1.0425900485274702
553,4028.2200000000003,1.0333822944523807
554,4030.97,1.0305922500339517
555,4033.7099999999996,1.0493611959588622
556,4036.45,0.9453477418837727
557,4039.1899999999996,1.0389444878086833
558,4041.94,1.0084930433902541
559,4044.68,1.0172139893151648
560,4047.42,0.9749463352400752
561,4050.17,1.008723190821646
562,4052.9100000000003,1.0905380367465567
563,4055.65,1.0764835826714672
564,4058.3999999999996,1.107028638253038
565,4061.14,1.0729574841779486
566,4063.88,1.025252330102859
567,4066.63,1.04212478568443
568,4069.37,0.9372446316093407
569,4072.1099999999997,0.9484083775342512
570,4074.85,0.8898669234591617
571,4077.6,0.9933491790407326
572,4080.34,1.020077524965643
573,4083.08,0.9772975708905538
574,4085.83,0.9238348264721246
575,4088.57,0.9179761723970351
576,4091.3100000000004,0.9469110183219457
577,4094.06,0.9117709739035165
578,4096.8,0.8948005198284271
579,4099.54,0.8550150657533376
580,4102.29,0.8722822213349086
581,4105.03,0.9214311672598191
582,4107.77,0.9035147131847296
583,4110.5199999999995,1.0303238687663006
584,4113.26,1.002202514691211
585,4116.0,0.9699038606161217
586,4118.74,1.0023062065410322
587,4121.49,0.9888379621226031
588,4124.23,1.0780609080475136
589,4126.97,1.0516334539724241
590,4129.72,1.0656294095539949
591,4132.46,1.1130057554789057
592,4135.2,1.0152180014038161
593,4137.95,1.0467093569853871
594,4140.6900000000005,0.9941969029102975
595,4143.43,1.013793148835208
596,4146.18,1.019947804416779
597,4148.92,1.0529020503416895
