,lambda (Angstroms),Total Flux (erg/s/cm^2/Angstrom)
0,102.00000000000001,0.7528138296659538
1,103.9,0.7506684646805585
2,104.712855,0.7497506527990759
3,106.07000000000001,0.7417008011046545
4,108.05,0.7299565808856551
5,110.06,0.7180348374113523
6,113.91999999999999,0.6951396286253634
7,117.92999999999999,0.6713546362758591
8,120.22644299999999,0.6577383593463417
9,120.95,0.6541417577147892
10,124.91,0.6344502593063217
11,126.94,0.6243556969060973
12,128.12,0.6184880454327155
13,131.1,0.6036693967136668
14,132.01,0.5991457833456352
15,133.85,0.5899960470791754
16,136.97,0.5744832269873527
17,138.038426,0.5691703272862224
18,140.16,0.5616296854409093
19,143.09,0.5512360182007993
20,147.10000000000002,0.5370205921085667
21,150.87,0.5236235078456948
22,155.1,0.508592278033215
23,158.489319,0.496549225419063
24,159.07999999999998,0.4949626686636147
25,162.04,0.4870118663891593
26,165.80999999999997,0.4768868177455117
27,170.06,0.46547049744789826
28,172.82999999999998,0.4580306145525127
29,176.85,0.4472325380342996
30,180.14,0.4383950166246177
31,181.81,0.4339099810133202
32,181.970086,0.433479962745461
33,186.04,0.4251406552133079
34,190.81,0.4153676700156305
35,193.91,0.40901652458569354
36,197.98,0.4006771799625181
37,202.12,0.3921948571418924
38,204.93,0.3864376841728205
39,208.929613,0.37823799659610097
40,210.19,0.376295370706872
41,216.07999999999998,0.3672301259437099
42,220.1,0.36103975426409834
43,223.16,0.3563252177273792
44,226.78,0.35075167186563944
45,229.94,0.34597135292445236
46,234.21,0.3395642766336709
47,239.88329199999998,0.33090506283436427
48,240.22000000000003,0.33051019268430604
49,245.82,0.32382615040917484
50,252.11999999999998,0.3163596703621521
51,256.81,0.31070022175047973
52,259.78000000000003,0.3072343606983119
53,264.0,0.3022380999534809
54,268.91,0.29639791179349967
55,273.90999999999997,0.29044977892284685
56,275.42287,0.288650138832087
57,279.0,0.2853830009735783
58,284.19,0.2806441951541843
59,290.14000000000004,0.2751905639136456
60,296.21999999999997,0.2696481924444903
61,301.03000000000003,0.2652473679856684
62,308.04,0.2588542761656389
63,316.227766,0.25138734768309623
64,318.14000000000004,0.2500846489281134
65,327.79999999999995,0.24349415355859125
66,337.76,0.2366979947937422
67,348.03000000000003,0.22969041178038888
68,356.95,0.22361023424600612
69,363.078055,0.2194379146758535
70,366.10999999999996,0.217891960542338
71,374.64,0.21353493907132837
72,385.13,0.20816576871706213
73,395.01,0.20314516772391147
74,405.15000000000003,0.19798849093094104
75,413.63,0.1936672556829737
76,416.86938299999997,0.1920145557788321
77,422.29,0.18990222906023163
78,430.14,0.18684644118371774
79,441.17999999999995,0.18257835494872235
80,451.45,0.17859861728301557
81,459.84,0.1753297381254421
82,469.47,0.17160412279654663
83,478.630092,0.16807936102627233
84,480.41,0.16755449492772803
85,490.47,0.16453381508891862
86,499.59000000000003,0.16189122423206564
87,506.53999999999996,0.1598006389112182
88,512.4,0.15831332441306487
89,519.53,0.1562015791233322
90,530.41,0.15296540871515668
91,540.27,0.1499651268639976
92,549.5408739999999,0.14725351694383285
93,550.3199999999999,0.14708096611200308
94,560.55,0.14500520982989476
95,569.65,0.14310862152713957
96,580.25,0.14074087452612802
97,589.67,0.13873140286107816
98,600.64,0.13614891794116338
99,610.4,0.1339638418911754
100,620.3100000000001,0.13213656217136177
101,630.39,0.12987007775907913
102,630.957344,0.1297544552601064
103,640.64,0.1282396269501787
104,649.55,0.1267047545511243
105,658.58,0.12503768283693104
106,664.68,0.12422970281737639
107,675.48,0.12249072645488611
108,684.8799999999999,0.12060742476901501
109,694.4,0.11937722776800505
110,705.69,0.11700034011869812
111,715.5,0.11596023135610281
112,724.43596,0.11449822472149586
113,725.46,0.11437847568367292
114,735.55,0.11316954463286209
115,745.7800000000001,0.11188367822455735
116,754.42,0.11086031430493343
117,764.9100000000001,0.10926707280413998
118,775.55,0.10836111363460312
119,784.53,0.10706350713249398
120,795.45,0.10596865824796925
121,804.66,0.10496312158712012
122,815.85,0.10363184129885718
123,825.3000000000001,0.10260162616801849
124,831.763771,0.10119546216157316
125,834.86,0.10062700016181395
126,844.52,0.10067686220572018
127,854.3000000000001,0.09977138818806
128,864.1899999999999,0.09909822594729732
129,874.1999999999999,0.09828760264496826
130,884.3199999999999,0.09745779711953667
131,894.56,0.09660658753253872
132,904.9200000000001,0.09559564088397433
133,915.4,0.09496281817384361
134,926.0,0.1084201944021465
135,934.5699999999999,0.125358437838614
136,945.39,0.14959078262071188
137,954.14,0.16810625896482984
138,954.992586,0.16889549462281161
139,965.1899999999999,0.17835733628712358
140,974.12,0.10809319839968806
141,985.4,0.16522468422608533
142,994.52,0.16432802680912995
143,1006.03,0.19050528057347682
144,1015.34,0.18530678362700148
145,1024.73,0.1316483316154652
146,1034.22,0.1594608782726026
147,1046.19,0.21097951791284864
148,1055.87,0.20693174504046613
149,1065.64,0.18311872396989
150,1075.5,0.19757425470112025
151,1085.45,0.17549653723415687
152,1095.5,0.1991186884358672
153,1096.4782,0.1985171182383223
154,1105.6299999999999,0.19305205177788376
155,1115.8600000000001,0.18858389638531206
156,1126.19,0.17568319157541318
157,1134.0,0.19689953208215955
158,1144.49,0.18599934820453717
159,1155.08,0.1890710149095876
160,1165.77,0.19022203219731082
161,1173.8500000000001,0.15388849927727374
162,1184.71,0.18303977255554077
163,1195.67,0.15359562641648056
164,1203.96,0.1337813697200564
165,1215.1000000000001,0.11002232462980727
166,1226.3400000000001,0.14581381012223094
167,1234.84,0.1762757996494197
168,1246.27,0.18402875124892168
169,1254.9099999999999,0.17905978159185237
170,1258.92541,0.17297555883286467
171,1263.61,0.1659856488607443
172,1275.3,0.18709864210270305
173,1284.14,0.1905782767698473
174,1296.02,0.16770146725012702
175,1305.0,0.16589316830340245
176,1314.05,0.18518155254974356
177,1326.2099999999998,0.1788616758022858
178,1335.3999999999999,0.1672738264347581
179,1344.66,0.181025960260296
180,1353.98,0.1766928511084616
181,1366.51,0.16522634266720787
182,1375.98,0.16734202607194265
183,1385.52,0.16707249266974306
184,1395.12,0.14859922629017114
185,1404.79,0.14919462310366488
186,1414.53,0.1570753131102242
187,1424.33,0.1565138601394112
188,1434.21,0.15619771653210177
189,1440.83,0.15965084136202198
190,1445.43977,0.15992812307665666
191,1447.4799999999998,0.1600861997984369
192,1454.1599999999999,0.15646103920567633
193,1464.24,0.1491606950776783
194,1474.3899999999999,0.1482788471710136
195,1484.6100000000001,0.14858689548568227
196,1494.9,0.14865104002168428
197,1505.26,0.14331606077901965
198,1512.21,0.13429240561140196
199,1515.69,0.13841812775768836
200,1526.2,0.1358424404178809
201,1533.2399999999998,0.12452629039197752
202,1543.87,0.12581206657445582
203,1554.5700000000002,0.1219958089782674
204,1565.3500000000001,0.12495079706360285
205,1576.2,0.12905329137027163
206,1583.4799999999998,0.13143739838893975
207,1594.45,0.13204963621789428
208,1605.5,0.12889973972837263
209,1616.63,0.1278414289203748
210,1624.1,0.12414789568266199
211,1635.3500000000001,0.12749890839694988
212,1646.69,0.12724914625295214
213,1654.29,0.12235450599771552
214,1659.58691,0.1244513715643367
215,1665.76,0.12696916883760076
216,1673.45,0.11870006985481985
217,1677.3,0.1274703850975108
218,1685.05,0.12872523292370688
219,1696.73,0.12366433173789658
220,1704.56,0.12049308530939533
221,1716.3700000000001,0.11619623720970185
222,1724.29,0.11505786599466612
223,1736.25,0.11864197991741518
224,1744.26,0.11634100391584493
225,1756.3500000000001,0.11923458092471079
226,1764.4599999999998,0.11356717960476889
227,1776.6899999999998,0.11395340916791447
228,1784.89,0.11445827306143803
229,1793.13,0.11743032482761297
230,1805.56,0.11631673375401522
231,1813.8899999999999,0.11074361073365563
232,1826.47,0.11128511168250037
233,1834.8999999999999,0.10856802334376914
234,1843.36,0.1029507634095264
235,1856.14,0.1025921937216278
236,1864.71,0.10365945793717624
237,1873.32,0.10714168002537602
238,1886.3,0.10142312970073408
239,1895.01,0.09833455647056222
240,1903.76,0.10141862111304166
241,1905.46072,0.10104206165572904
242,1916.95,0.09858431564666438
243,1925.8,0.09639673870426804
244,1934.69,0.09806282944800776
245,1943.6200000000001,0.10010068787788354
246,1957.09,0.09530055368420234
247,1966.13,0.0996376307509523
248,1975.2,0.10091815108230429
249,1984.32,0.09719852352132638
250,1993.48,0.09515782364648451
251,2007.3,0.09610318420649384
252,2016.56,0.09422829854699213
253,2025.87,0.0958766049951605
254,2035.22,0.09249828912946494
255,2044.6100000000001,0.09365198094990543
256,2054.05,0.08865312487801599
257,2063.53,0.08958945649226263
258,2073.06,0.09382719021417935
259,2077.84,0.09088551370743872
260,2082.63,0.09241725162223212
261,2097.06,0.08904321189581639
262,2106.74,0.08927502194074333
263,2116.47,0.08936299409334035
264,2126.2400000000002,0.08945283393207343
265,2136.0499999999997,0.08599395145694258
266,2145.91,0.08620673108948179
267,2155.81,0.08754967840815707
268,2165.77,0.08538275225603645
269,2175.7599999999998,0.08476551936851787
270,2185.81,0.08347306301020338
271,2187.7616199999998,0.08377661095806535
272,2195.89,0.08509491929078129
273,2206.0299999999997,0.08344866829635017
274,2216.21,0.08105535096663528
275,2226.44,0.07950215821781571
276,2236.7200000000003,0.08155419004989145
277,2247.04,0.07947005554668343
278,2257.41,0.07744977562437073
279,2262.62,0.07799512295366204
280,2273.06,0.07847586944460277
281,2283.56,0.07896156143261787
282,2294.09,0.07600165616917015
283,2304.68,0.07615387640279683
284,2315.3199999999997,0.0742712212173188
285,2326.01,0.06627856061273607
286,2336.75,0.07122526458904865
287,2347.5299999999997,0.0698124222300775
288,2352.94,0.07197923788295005
289,2363.8,0.06901867285341137
290,2374.71,0.06956549240476803
291,2385.68,0.06672332745319905
292,2396.69,0.0683959661663463
293,2407.75,0.06692846946038888
294,2413.2999999999997,0.0672930279397683
295,2424.44,0.06878566856324336
296,2435.63,0.06708559376761375
297,2446.87,0.06847304355287943
298,2452.5099999999998,0.06777590027787041
299,2463.83,0.0671388873925686
300,2475.21,0.06567767000434115
301,2486.63,0.06588004628082995
302,2492.36,0.062149431251432484
303,2503.8700000000003,0.06655592577353284
304,2511.88643,0.06381113003185712
305,2515.4300000000003,0.0626103884531084
306,2527.04,0.06224929489774418
307,2532.86,0.06240654267619209
308,2544.5499999999997,0.061661540086854656
309,2556.3,0.06344495572203729
310,2562.1899999999996,0.06242129809575863
311,2574.02,0.06384110469696805
312,2585.9,0.06316594315194418
313,2597.83,0.062498323460687066
314,2603.82,0.06119704954194187
315,2615.8399999999997,0.06055092718746488
316,2627.92,0.06152995305750796
317,2633.97,0.06227826736328285
318,2646.1299999999997,0.06444075419935272
319,2652.23,0.06492997035889433
320,2664.47,0.06159859816099098
321,2676.77,0.0626178241876077
322,2682.9399999999996,0.06258069494242274
323,2695.3300000000004,0.06062750830581959
324,2707.77,0.06113524352298316
325,2714.01,0.059365648873071636
326,2726.54,0.058909601427015346
327,2732.82,0.06000834226011721
328,2745.44,0.05607500215084103
329,2758.1099999999997,0.056519253895331585
330,2764.47,0.05737533569446024
331,2777.23,0.0583061947757309
332,2783.63,0.05644063205787293
333,2796.48,0.05104398847592373
334,2802.9300000000003,0.0524953476118325
335,2815.86,0.057042294995910084
336,2822.3500000000004,0.05811189961483222
337,2835.38,0.056641660706443275
338,2841.92,0.05570006717913216
339,2855.03,0.05430195923676998
340,2868.21,0.056701865889681236
341,2874.83,0.05665912332839689
342,2884.0315,0.056408681651015216
343,2888.1,0.05631033268806101
344,2894.75,0.05610489323813191
345,2908.1099999999997,0.058113475215417196
346,2928.27,0.056539139935632116
347,2948.5699999999997,0.05555279003584854
348,2969.01,0.05566171551606644
349,2989.5899999999997,0.05522573637628585
350,3010.31,0.05506141261650674
351,3031.18,0.05480618104958637
352,3052.19,0.0544612748626675
353,3073.3500000000004,0.05420502086860737
354,3087.53,0.053885791500187116
355,3108.93,0.05371845101470098
356,3130.48,0.05284513272207357
357,3152.18,0.05258935662230491
358,3166.73,0.05244783932960288
359,3188.68,0.05057577355126547
360,3210.79,0.051161636778644035
361,3233.04,0.049575795386024094
362,3247.97,0.05110333698189755
363,3270.48,0.0517953127235661
364,3293.15,0.051274617470950634
365,3308.35,0.05070019301396983
366,3311.31121,0.05068860090132091
367,3323.62,0.0506666923466776
368,3331.2799999999997,0.050825593124468396
369,3338.96,0.04888309022282784
370,3346.6600000000003,0.050627243641755915
371,3354.37,0.04926550522096832
372,3362.1099999999997,0.048190051281033694
373,3369.86,0.04898845550138339
374,3377.62,0.047919387882017404
375,3385.41,0.04879480474350439
376,3393.2200000000003,0.05003284792556001
377,3401.04,0.051582419267899964
378,3408.88,0.04866865693080855
379,3416.74,0.048735590914285795
380,3424.61,0.050406323058047355
381,3432.5099999999998,0.05126497968266188
382,3440.42,0.04977918446756073
383,3448.35,0.04761917557302822
384,3456.2999999999997,0.04776374299906436
385,3464.27,0.046405146745669146
386,3472.25,0.04879628865255825
387,3480.26,0.046605125040300316
388,3488.28,0.04794372958832671
389,3496.32,0.047443140456921745
390,3504.38,0.04807578764608543
391,3512.46,0.04733075115581775
392,3520.56,0.048373320986118726
393,3528.67,0.045729288976704016
394,3536.8100000000004,0.04801254144814227
395,3544.9599999999996,0.04874349207986486
396,3553.13,0.04898137903215608
397,3561.32,0.048295922305015955
398,3569.53,0.04571869189844446
399,3577.7599999999998,0.04524044781244163
400,3586.01,0.04366056004700743
401,3594.28,0.04558756860214187
402,3602.5600000000004,0.047885545317560646
403,3610.87,0.04570715651383238
404,3619.19,0.04695527587038844
405,3627.5299999999997,0.04808567154751314
406,3635.9,0.04549843170549081
407,3644.2799999999997,0.04838918002375281
408,3652.68,0.04616742466258344
409,3661.1,0.04947029562198273
410,3669.54,0.04851075290195065
411,3669.76,0.04939042242820573
412,3672.5,0.04404172834611002
413,3675.23,0.05072776610372997
414,3677.97,0.045058522021634254
415,3680.7000000000003,0.042499819779254204
416,3683.44,0.04235623569715848
417,3686.1699999999996,0.04479791345477844
418,3688.9100000000003,0.04489943937268272
419,3691.64,0.038809317130302674
420,3694.38,0.03665536304820695
421,3697.11,0.04478070080582691
422,3699.85,0.04478525672373119
423,3702.58,0.04813022448135115
424,3705.3199999999997,0.05155125039925543
425,3708.05,0.04991740815687538
426,3710.79,0.05355572407477966
427,3713.52,0.05442970183239962
428,3716.25,0.051965309590019576
429,3718.99,0.07421969550792384
430,3721.7200000000003,0.14168458326554378
431,3724.46,0.23478177918344809
432,3727.19,0.3002160269410681
433,3729.9300000000003,0.25820642285897233
434,3732.66,0.16476667061659228
435,3735.3999999999996,0.08295823653449655
436,3738.13,0.05489574429211652
437,3740.87,0.0449803202100208
438,3743.6000000000004,0.048661107967640754
439,3746.34,0.04009524388554503
440,3749.0699999999997,0.044757421643164985
441,3751.81,0.04262678756106927
442,3754.54,0.04787798531868922
443,3757.28,0.0510943112365935
444,3760.0099999999998,0.05197546899421346
445,3762.7500000000005,0.043608044912117734
446,3765.48,0.047155032669737695
447,3768.22,0.04475592858764198
448,3770.9500000000003,0.04982575634526193
449,3773.69,0.05083774226316621
450,3776.4199999999996,0.04528007002078616
451,3779.16,0.051633645938690444
452,3781.89,0.0473527936963104
453,3784.63,0.05215030961421468
454,3787.36,0.057235417371834636
455,3790.1,0.057257003289738914
456,3792.83,0.051208201047358876
457,3795.5699999999997,0.05224263696526315
458,3798.3,0.0517464247228831
459,3801.04,0.04809115064078739
460,3801.8939600000003,0.048859979824339775
461,3803.77,0.05055181903614273
462,3806.51,0.05965795456098236
463,3809.24,0.05376590689047585
464,3811.98,0.05609383241531547
465,3814.71,0.05103951474480896
466,3817.45,0.04902253026964858
467,3820.1800000000003,0.053257832599142074
468,3822.92,0.056996348123981695
469,3825.65,0.05246012045347519
470,3828.39,0.04748636597831481
471,3831.12,0.047051708307808304
472,3833.86,0.04762246383264792
473,3836.5899999999997,0.04901052616214141
474,3839.3300000000004,0.04308053168698103
475,3842.06,0.04376643401647452
476,3844.7999999999997,0.05307191954131415
477,3847.53,0.05316523187080764
478,3850.27,0.057808817395647256
479,3852.9999999999995,0.05088598972514075
480,3855.74,0.05482743524998038
481,3858.47,0.06317870757947386
482,3861.21,0.06788422310431348
483,3863.94,0.05879389543380698
484,3866.6800000000003,0.0664166809586466
485,3869.41,0.06810200328814009
486,3872.1499999999996,0.06401083881297973
487,3874.88,0.058282231142473204
488,3877.61,0.0546726234719667
489,3880.3500000000004,0.04582712899680632
490,3883.08,0.046380151326299815
491,3885.8199999999997,0.053552246851139435
492,3888.55,0.05379102918063292
493,3891.29,0.048052254705472544
494,3894.0200000000004,0.04636502703496603
495,3896.76,0.048135372559805656
496,3899.49,0.04620033488929915
497,3902.23,0.05378545041413877
498,3904.96,0.05474704274363226
499,3907.7000000000003,0.053960158268471885
500,3910.43,0.052877230597965376
501,3913.17,0.056889606122805
502,3915.9,0.05551936845229849
503,3918.64,0.049820993977138114
504,3921.3700000000003,0.0531162063066316
505,3924.11,0.04898197183147122
506,3926.8399999999997,0.04875832416096472
507,3929.58,0.04462500968580434
508,3932.31,0.03959580201529783
509,3935.0499999999997,0.04095313754013745
510,3937.78,0.04720150986963094
511,3940.52,0.04922326539447056
512,3943.25,0.04319560772396405
513,3945.99,0.05333704324880368
514,3948.72,0.061575185578297165
515,3951.46,0.05488463110313679
516,3954.19,0.05511173343263028
517,3956.9300000000003,0.055242508957469905
518,3959.66,0.04517074128696339
519,3962.3999999999996,0.052930046811803015
520,3965.13,0.04771050914129651
521,3967.87,0.05186296466613613
522,3970.6000000000004,0.05131158699562962
523,3973.34,0.04959809252046924
524,3976.0699999999997,0.046712174849962734
525,3978.81,0.04825356037480236
526,3981.54,0.049869702704295846
527,3984.28,0.049630558229135466
528,3987.01,0.052476810558628954
529,3989.7500000000005,0.04808219608346858
530,3992.48,0.057493878412962066
531,3995.22,0.05789580393780169
532,3997.9500000000003,0.05496591626729519
533,4000.69,0.058702621792134806
534,4003.4199999999996,0.0560331341216283
535,4006.1600000000003,0.05053230964646792
536,4008.89,0.05565024197596141
537,4011.63,0.060237257500801035
538,4014.36,0.05891909983029452
539,4017.1,0.053308725355134146
540,4019.83,0.05357084768462764
541,4022.5699999999997,0.05698342320946726
542,4025.3,0.06050761553896075
543,4028.04,0.055064241063800375
544,4030.77,0.05037627339329386
545,4033.51,0.053066048918133484
546,4036.24,0.054110231247626976
547,4038.98,0.0575012567724666
548,4041.71,0.05561292910196009
549,4044.44,0.05830926143145358
550,4047.1800000000003,0.055861266956293204
551,4049.91,0.0531280092857867
552,4052.6499999999996,0.054236594810626315
553,4055.38,0.05151948714011981
554,4058.12,0.048917972664959425
555,4060.85,0.05361300499445292
556,4063.59,0.05828982051929254
557,4066.3199999999997,0.057490632848786034
558,4069.06,0.05628892837362566
559,4071.79,0.055499620703119146
560,4074.53,0.05548403622795876
561,4077.2599999999998,0.05570754855745226
562,4079.9999999999995,0.056961584082291884
563,4082.73,0.05639226641178537
564,4085.47,0.056475441936624994
565,4088.2000000000003,0.053329154266118485
566,4090.94,0.05147378979095811
567,4093.6699999999996,0.0522800321204516
568,4096.41,0.05498237764529122
569,4099.14,0.06001412997478471
570,4101.88,0.06520363549962434
571,4104.610000000001,0.061061597829117825
572,4107.35,0.053245083353957445
573,4110.08,0.050070955683450935
574,4112.82,0.05184668120829056
575,4115.55,0.05613766353778405
576,4118.29,0.056804479062623675
577,4121.02,0.04985828139211716
578,4123.76,0.04883438691695678
