,lambda (Angstroms),Total Flux (erg/s/cm^2/Angstrom)
0,100.05,13.338275959303548
1,101.91000000000001,13.30118899563033
2,104.04,13.258711536273747
3,104.712855,13.245295222419387
4,105.97,13.113573752502331
5,107.95,12.906118444945045
6,109.94999999999999,12.696599047602337
7,114.08,12.263887375661641
8,118.09,11.843751676933504
9,120.22644299999999,11.62039340386467
10,121.11999999999999,11.542106549107542
11,125.08,11.194402385801059
12,127.11999999999999,11.015261218340143
13,128.0,10.93800961582759
14,130.98,10.676319267046452
15,131.89,10.596602444130063
16,134.03,10.408673716656354
17,137.15,10.134961249657307
18,138.038426,10.056956924027252
19,140.02,9.932626297007106
20,142.96,9.75124895419931
21,146.96,9.506480522005031
22,151.08,9.248443103634921
23,154.95,9.006236765214457
24,158.489319,8.784809351036625
25,158.93,8.763991121959522
26,161.88000000000002,8.624619429521884
27,166.04000000000002,8.428202788660675
28,169.9,8.24579338228465
29,173.05999999999997,8.096533519707384
30,177.09,7.906091675123085
31,179.97,7.770019576065325
32,181.970086,7.675538364348441
33,182.06,7.6723030378283745
34,185.87,7.5351965569484065
35,191.07,7.347987284251339
36,194.18,7.236215653926744
37,197.79000000000002,7.10631878891974
38,201.92999999999998,6.957370681349384
39,205.21,6.839318553032769
40,208.929613,6.704643410406673
41,209.99,6.675782069846453
42,215.88,6.517844949392791
43,219.89000000000001,6.409698249915848
44,222.95,6.326775415028209
45,227.09,6.215212467239046
46,230.25,6.144377421342005
47,233.99,6.072816017590444
48,239.88329199999998,5.930546447979408
49,240.0,5.928458001187259
50,246.15,5.793509793396426
51,251.89,5.677451675458314
52,257.15999999999997,5.550344163936737
53,260.14,5.500359397934024
54,263.76,5.428592151917305
55,269.28000000000003,5.311696808046505
56,274.28999999999996,5.20530267496812
57,275.42287,5.181215098685369
58,278.74,5.126871183913936
59,283.92,5.042628315184226
60,289.87,4.941840448535232
61,295.94,4.844092013768949
62,300.75,4.7637854292342166
63,307.75,4.651058009058932
64,316.227766,4.514527098301645
65,317.84,4.495134020461644
66,328.25,4.367901894206758
67,338.21999999999997,4.24530074090597
68,347.70000000000005,4.128515345440424
69,356.62,4.019552584643732
70,363.078055,3.9412912392320214
71,365.77,3.916799706927379
72,375.15,3.830052883249505
73,384.77,3.738811974744051
74,394.64,3.6503515437098693
75,404.77,3.5579153024458106
76,414.19,3.4710531179633386
77,416.86938299999997,3.4461443800920812
78,421.89,3.4101587607662047
79,429.74,3.354280914545878
80,440.76,3.2770453550238394
81,451.03,3.2042515958413236
82,460.46999999999997,3.1372515485012107
83,470.10999999999996,3.0692995324038916
84,478.630092,3.009607539675711
85,479.96,3.0024025849998757
86,490.01000000000005,2.9468227408195715
87,500.27000000000004,2.89201068144744
88,506.06,2.8598231411584885
89,511.92,2.830376655805595
90,520.24,2.785008498205582
91,529.9100000000001,2.731944024372394
92,539.76,2.6771727603747824
93,549.5408739999999,2.6239329116207517
94,549.8,2.622847532892142
95,560.02,2.5818671070800225
96,570.4300000000001,2.5395002090463468
97,579.7,2.5005311943420083
98,590.48,2.4561886604031975
99,600.0699999999999,2.4153191224836057
100,609.82,2.3716132979563884
101,619.73,2.335129846821545
102,629.8,2.2930073290790753
103,630.957344,2.288312008868057
104,640.0300000000001,2.2590934047139184
105,650.4300000000001,2.2246906035798206
106,657.9699999999999,2.1993448110076
107,665.58,2.175131111302746
108,674.84,2.144976002042963
109,684.23,2.1130947123940036
110,695.35,2.0777634821813917
111,705.02,2.0449165340018984
112,716.48,2.0088326720022103
113,724.43596,1.9829142494750347
114,726.45,1.9780136258350398
115,734.86,1.9575283224666813
116,745.08,1.932372953593361
117,755.45,1.9071027924958726
118,764.19,1.8839473182343442
119,774.8199999999999,1.8599692679482978
120,785.6,1.8332437554380834
121,794.7,1.8115840438385515
122,805.76,1.78503504450989
123,815.09,1.7624142501666338
124,824.52,1.7396569876739323
125,831.763771,1.7210274890672124
126,834.0699999999999,1.7164794264155743
127,845.6700000000001,1.6967614297302995
128,855.47,1.6788182473582574
129,865.37,1.6609980686354802
130,875.3900000000001,1.6429278402918206
131,885.5300000000001,1.624569792327279
132,895.7800000000001,1.606024366376929
133,904.07,1.5908523509009869
134,914.54,1.5735909789790197
135,925.13,1.5694374174361698
136,935.84,1.5672078762724382
137,944.5000000000001,1.5720614302987759
138,954.992586,1.5677913613903252
139,955.44,1.5676264376097384
140,964.28,1.559553581837892
141,975.45,1.4841685988999365
142,984.47,1.5114062257933696
143,995.87,1.4916069245943817
144,1005.09,1.497265117782569
145,1014.39,1.4783850554886586
146,1026.1299999999999,1.413405415990754
147,1035.63,1.4209414799915976
148,1045.21,1.4456366585103435
149,1054.8799999999999,1.4256186233617287
150,1064.64,1.3888934645457534
151,1074.49,1.3838940120624175
152,1084.43,1.3463553359117215
153,1094.47,1.3511826779084026
154,1096.4782,1.346672837263876
155,1104.6000000000001,1.3309903143000847
156,1114.82,1.3126903414515592
157,1125.13,1.2879471765525077
158,1135.54,1.2908996293750958
159,1146.05,1.2675919699193219
160,1153.99,1.2593263090174338
161,1164.67,1.245090705688446
162,1175.45,1.2006943600810969
163,1186.32,1.2091869324232225
164,1194.55,1.1742225449140868
165,1205.6,1.142486113155162
166,1213.96,1.1125418026841565
167,1225.19,1.1274291568241812
168,1233.68,1.139596743391306
169,1245.1,1.1295331132024444
170,1253.73,1.1131024465798636
171,1258.92541,1.101108643606221
172,1265.3300000000002,1.0889383093640483
173,1274.1,1.097599931388652
174,1285.89,1.0883546795722407
175,1294.8000000000002,1.0600815185048766
176,1303.78,1.049755795891529
177,1315.8400000000001,1.0538402752548948
178,1324.96,1.0399072895495793
179,1334.15,1.02060488229828
180,1346.49,1.020632055477711
181,1355.8200000000002,1.0077143851344443
182,1365.22,0.9888984032451938
183,1374.69,0.9815892498099595
184,1384.2099999999998,0.9719398795561657
185,1393.81,0.9485841903926756
186,1403.47,0.9400559670469137
187,1416.46,0.9317727015850668
188,1426.27,0.9224101477836255
189,1436.1599999999999,0.9121904750724886
190,1442.79,0.9084332629314533
191,1445.43977,0.9062305384799698
192,1446.12,0.9058733139888832
193,1456.1399999999999,0.8959916224269066
194,1466.23,0.8829814388679897
195,1476.3999999999999,0.8752414573125704
196,1486.6299999999999,0.8685458997597737
197,1493.49,0.8640588740596578
198,1503.84,0.8524518745121071
199,1510.79,0.8401133048159257
200,1517.76,0.8387111231206185
201,1524.77,0.8319645574270599
202,1535.33,0.8157761718886893
203,1545.98,0.8109678923542528
204,1556.69,0.8003821668224395
205,1563.8799999999999,0.7969940231367496
206,1574.72,0.7927192396106191
207,1585.63,0.7870013240875485
208,1596.6299999999999,0.7801588645684125
209,1603.9999999999998,0.7730713428905914
210,1615.11,0.7647474973762638
211,1626.31,0.7536849378658708
212,1633.82,0.7515076821941696
213,1645.1399999999999,0.7438045906890222
214,1656.54,0.7314282711873721
215,1659.58691,0.730988811309234
216,1664.19,0.7313007933352109
217,1671.8700000000001,0.7209247469586127
218,1675.73,0.7258877319307914
219,1683.46,0.723779245955387
220,1695.1299999999999,0.7139979975940718
221,1706.88,0.7056890018746669
222,1714.76,0.6987058071028447
223,1726.65,0.6922745385067829
224,1734.6100000000001,0.6915215263768714
225,1746.64,0.6840092249041528
226,1754.6999999999998,0.6831467635766293
227,1766.8600000000001,0.6722077651470153
228,1775.02,0.6689813546218797
229,1783.21,0.6658859963374604
230,1795.57,0.6631878895126226
231,1803.86,0.6583473520305914
232,1816.36,0.6474072423290969
233,1824.75,0.6441952656494536
234,1833.17,0.6378812112105269
235,1845.88,0.6265624871940472
236,1854.3999999999999,0.6229429335575086
237,1862.9599999999998,0.6204270062419253
238,1875.8700000000001,0.6173814338302216
239,1884.5300000000002,0.6089892073170261
240,1893.23,0.6032163971247858
241,1905.46072,0.5993301634737915
242,1906.35,0.5991653533509123
243,1915.1499999999999,0.5941186054876582
244,1923.9899999999998,0.589120850497753
245,1932.87,0.5855456983811964
246,1946.27,0.5851727409530596
247,1955.25,0.5787138310198752
248,1968.81,0.5787890150851336
249,1977.8899999999999,0.5757503573353214
250,1982.45,0.5725387448970896
251,1996.1999999999998,0.5664093451107551
252,2005.41,0.5636940941993266
253,2014.67,0.5592012243795842
254,2023.97,0.5559475074331907
255,2033.3100000000002,0.5523079733601459
256,2042.69,0.5514357121604501
257,2056.85,0.5432660093259412
258,2066.35,0.5398153367462919
259,2075.88,0.5406894588216541
260,2085.4700000000003,0.5567753502070396
261,2095.09,0.5481276262474368
262,2104.7599999999998,0.5436310233795203
263,2114.48,0.5446522516032895
264,2124.2400000000002,0.5370452327004075
265,2134.04,0.5293328366708746
266,2143.89,0.5353814917330277
267,2153.79,0.5323186278868668
268,2163.73,0.5220473169140548
269,2173.7200000000003,0.5185858770329287
270,2183.75,0.5243437800251516
271,2187.7616199999998,0.5230345488696845
272,2193.83,0.5217669296847893
273,2203.96,0.5172593209301315
274,2214.13,0.5027245238684463
275,2224.35,0.5056476814229772
276,2234.62,0.5189323535937239
277,2244.93,0.5122458374574433
278,2255.29,0.4955973959373786
279,2265.7,0.4902097790335299
280,2276.1600000000003,0.4920946567458969
281,2286.67,0.50593914907448
282,2297.2200000000003,0.49100953309603573
283,2302.52,0.5009150824149217
284,2313.15,0.4875254598224228
285,2323.82,0.4704677789228967
286,2334.55,0.46688949556282977
287,2345.33,0.45250536681897874
288,2356.15,0.4729300297681003
289,2367.0299999999997,0.4496669002566811
290,2372.48,0.45689736342421455
291,2383.43,0.4390749943754977
292,2394.44,0.4429109228662397
293,2405.4900000000002,0.43953205304995435
294,2416.59,0.44185676784988515
295,2427.75,0.46394596018927503
296,2433.34,0.462605184282213
297,2444.57,0.4727005170843051
298,2455.86,0.47439727742585625
299,2467.19,0.4594533894603801
300,2472.88,0.44983345278575004
301,2484.3,0.42470870112946246
302,2495.7599999999998,0.4289524311661478
303,2507.28,0.452654048742292
304,2511.88643,0.4204169283571049
305,2513.06,0.4122774544774421
306,2518.86,0.4057299207030791
307,2524.6600000000003,0.40645037692871605
308,2536.31,0.42259037572676283
309,2542.16,0.4239566282991725
310,2553.9,0.4666381505214102
311,2565.6800000000003,0.43861231982106597
312,2577.53,0.45771183400620363
313,2583.47,0.44548157000280436
314,2595.3900000000003,0.4349432290734238
315,2607.37,0.4224138137601706
316,2613.38,0.4152121746422531
317,2625.45,0.43395949275319085
318,2637.57,0.49284842721090116
319,2643.65,0.5419265429784654
320,2655.8500000000004,0.6191757515910121
321,2661.9700000000003,0.5146239444359948
322,2674.2599999999998,0.5362785764727325
323,2686.6,0.5670202548562429
324,2692.79,0.5020623325867073
325,2705.22,0.5406365343944086
326,2717.71,0.4800825518182373
327,2723.9799999999996,0.44655338370353803
328,2736.5499999999997,0.477547255282203
329,2742.8599999999997,0.4123521042449219
330,2755.52,0.44047785924777777
331,2761.8700000000003,0.47571574528791477
332,2774.62,0.4837066637149616
333,2787.42,0.41690382848878127
334,2793.85,0.36434003868375475
335,2806.75,0.3713254761511197
336,2813.2200000000003,0.45726974342351134
337,2826.2,0.5217272550457128
338,2832.7200000000003,0.507576018664877
339,2845.7900000000004,0.4475518537112694
340,2852.3500000000004,0.38781497440785195
341,2865.5199999999995,0.5015502221477899
342,2872.1200000000003,0.5772157399217905
343,2884.0315,0.5509733859618751
344,2885.38,0.548075012744041
345,2892.0299999999997,0.6079039105515108
346,2912.0800000000004,0.7184870746176413
347,2932.27,0.6603691375849817
348,2952.59,0.6286178923891598
349,2973.06,0.6426178531589201
350,2986.78,0.646176945477489
351,3007.48,0.6448466687278085
352,3028.3300000000004,0.6697867979437097
353,3049.3199999999997,0.6852524260608209
354,3070.46,0.7228961601435142
355,3091.7400000000002,0.7084369931274171
356,3113.17,0.7810818320769024
357,3127.54,0.7397191835796603
358,3149.22,0.7375994991384487
359,3171.05,0.7864150206628193
360,3193.03,0.7107241481527717
361,3207.77,0.7602516610372987
362,3230.0,0.6755613651365546
363,3252.39,0.8547043822657647
364,3267.41,0.9580567929527114
365,3290.0600000000004,0.9415715937555968
366,3311.31121,0.8961972840883223
367,3312.86,0.892948809579748
368,3320.5,0.8545801318031068
369,3328.15,0.9136617382178575
370,3335.8199999999997,0.9468070130153916
371,3343.51,0.8825023561957096
372,3351.22,0.8732403677588112
373,3358.95,0.9539368477046966
374,3366.69,0.8381391118419735
375,3374.45,0.7058277443620343
376,3382.23,0.8022244452648787
377,3390.03,0.9217126145505068
378,3397.8399999999997,0.8351251680275268
379,3405.67,0.9618748898873303
380,3413.53,0.9002449643213094
381,3421.3900000000003,0.9511825387552884
382,3429.28,0.916722065763443
383,3437.19,0.9275111611543811
384,3445.11,0.6698645407367112
385,3453.0499999999997,0.966576788701825
386,3461.0099999999998,0.8262725050497224
387,3468.9900000000002,0.8868260897804033
388,3476.99,0.840841142893868
389,3484.9999999999995,0.9046238801987245
390,3493.04,0.7988024700777565
391,3501.09,0.8837236441481804
392,3509.16,0.9590156866013879
393,3517.25,0.8218741974373791
394,3525.36,0.8383481766561539
395,3533.48,0.9751360400663206
396,3541.63,1.0401934560506627
397,3549.79,1.0379960562263966
398,3557.98,0.9317298089763062
399,3566.18,0.9825237459176075
400,3574.3999999999996,0.7594988512416926
401,3582.6400000000003,0.7490686249485611
402,3590.9,0.6795920670382134
403,3599.1800000000003,1.0266373775106492
404,3607.47,0.876997772174477
405,3615.79,0.9095405194124804
406,3624.1299999999997,0.8190259350332674
407,3632.48,1.0978414348454462
408,3640.85,1.0363297030404086
409,3649.2400000000002,0.9309057396181547
410,3657.66,1.1649436287700763
411,3666.09,1.1937677021133897
412,3674.54,1.1578070438394867
413,3683.0099999999998,0.9955553539483675
414,3691.5,0.9648634324400318
415,3700.01,1.12894497931448
416,3708.54,0.8766739945717116
417,3717.09,1.234186078211727
418,3725.6600000000003,0.7956335302345261
419,3734.25,1.0119001506401089
420,3742.86,0.9732294394284752
421,3751.48,0.6862107124082334
422,3760.1299999999997,1.087227637962167
423,3768.7999999999997,0.9458388318988844
424,3777.4900000000002,1.1242698942183855
425,3786.2000000000003,1.2492679249206702
426,3794.9300000000003,0.9964419240057385
427,3801.8939600000003,0.939942442665455
428,3803.67,0.9255803809963357
429,3812.44,1.1276471583758672
430,3821.23,0.9069505353617374
431,3830.04,0.7029043119539464
432,3838.87,0.6886992881524941
433,3847.7200000000003,0.9826555639573805
434,3856.5899999999997,0.9990830393686058
435,3865.48,0.9896779143861697
436,3874.39,0.8752455890100723
437,3883.32,0.8975337632403135
438,3886.7000000000003,1.0011587967115585
439,3890.75,1.0245715669951505
440,3894.7999999999997,1.0853800372787425
441,3898.85,1.1404313075623347
442,3902.9,1.0845289778459268
443,3906.9500000000003,1.180257948129519
444,3911.0099999999998,1.1509889682162804
445,3915.0600000000004,1.1303883384998725
446,3919.11,1.1443315087834647
447,3923.16,0.9181894790670568
448,3927.21,0.8577681493506488
449,3931.2599999999998,0.7004877196342411
450,3935.3100000000004,0.7171849899178331
451,3939.37,0.8365846100045946
452,3943.42,0.9657271802881866
453,3947.4700000000003,1.079207650571779
454,3951.52,1.1115523208553708
455,3955.5699999999997,1.017344291138963
456,3959.62,0.9440130614225551
457,3963.67,0.8633639317061472
458,3967.7200000000003,0.8744548019897392
459,3971.7799999999997,0.8982365220765008
460,3975.8300000000004,1.0174782923600927
461,3979.88,1.174600162643685
462,3983.93,1.360186732927277
463,3987.98,1.368480403210869
464,3992.0299999999997,1.4426810734944613
465,3996.0800000000004,1.5229677437780536
466,4000.14,1.432734763864815
467,4004.19,1.455879434148407
468,4008.2400000000002,1.6523351044319992
469,4012.29,1.5906197747155912
470,4016.3399999999997,1.5947174449991834
471,4020.39,1.6395461152827755
472,4024.44,1.4483247855663675
473,4028.5,1.526183805653129
474,4032.5499999999997,1.5036464759367212
475,4036.6000000000004,1.5866711462203134
476,4040.65,1.5178068165039054
477,4044.7,1.5385304867874976
478,4048.75,1.5549491570710894
479,4052.7999999999997,1.4949088273546816
480,4056.8500000000004,1.5017434976382737
481,4060.91,1.4877005177250353
482,4064.96,1.4742571880086275
483,4069.01,1.4252468582922193
484,4073.06,1.5470185285758116
485,4077.11,1.4764261988594036
486,4081.16,1.5670978691429958
487,4085.21,1.6268845394265878
488,4089.27,1.5417095595133492
489,4093.3199999999997,1.5885292297969413
490,4097.37,1.5181579000805336
491,4101.42,1.6024735703641257
492,4105.47,1.4957832406477178
493,4109.5199999999995,1.51101791093131
494,4113.57,1.508012581214902
495,4117.62,1.622951251498494
496,4121.679999999999,1.5110812715852555
497,4125.7300000000005,1.4809579418688477
498,4129.78,1.5526356121524398
499,4133.83,1.4254452824360317
500,4137.88,1.497338952719624
501,4141.929999999999,1.4545636230032162
502,4145.9800000000005,1.4833582932868081
503,4150.04,1.4999853133735694
504,4154.09,1.4769099836571618
505,4158.14,1.5320146539407538
506,4162.1900000000005,1.511092324224346
507,4166.24,1.4755269945079381
508,4170.29,1.4940986647915302
509,4174.34,1.5281653350751223
510,4178.39,1.5027770053587144
511,4182.45,1.3797220254454758
512,4186.5,1.468934695729068
513,4190.55,1.4497333660126601
514,4194.6,1.4872440362962522
515,4198.65,1.5210427065798444
516,4202.7,1.5868553768634364
517,4206.75,1.5818060471470285
518,4210.8099999999995,1.5682940672337902
519,4214.860000000001,1.6174267375173823
520,4218.91,1.4510654078009741
521,4222.96,1.4646860780845663
522,4227.01,1.4800287483681585
523,4231.0599999999995,1.5104314186517505
524,4235.110000000001,1.5763520889353426
525,4239.16,1.5952457592189349
526,4243.219999999999,1.683434779305696
527,4247.27,1.6996384495892882
528,4251.32,1.5951471198728804
529,4255.37,1.5586207901564726
530,4259.42,1.6312674604400648
531,4263.469999999999,1.598453130723657
532,4267.52,1.5790908010072489
533,4271.58,1.6395698210940104
534,4275.63,1.6161654913776025
535,4279.68,1.5229801616611947
536,4283.7300000000005,1.5062008319447866
537,4287.78,1.4561685022283788
538,4291.83,1.406458172511971
539,4295.88,1.392577842795563
540,4299.93,1.3071405130791551
541,4303.99,1.3128995331659166
542,4308.04,1.3045672034495086
543,4312.09,1.4303738737331007
544,4316.14,1.576782544016693
545,4320.19,1.641950214300285
546,4324.24,1.6631038845838773
547,4328.29,1.8142005548674693
548,4332.349999999999,1.6362625749542306
549,4336.400000000001,1.8149082452378227
550,4340.45,1.7774589155214149
551,4344.5,1.7784895858050072
552,4348.55,1.7851702560885991
553,4352.599999999999,1.7427789263721913
554,4356.650000000001,1.8401765966557833
555,4360.7,1.9697432669393755
556,4364.759999999999,1.907435287026137
557,4365.15832,1.899503474015606
558,4368.81,1.8268570977774834
559,4372.86,1.7191695593501275
560,4376.91,1.7213530209227716
561,4380.96,1.6813464824954156
562,4385.009999999999,1.6939689440680599
563,4389.06,1.6911484056407038
564,4393.12,1.7594534090937743
565,4397.17,1.7955358706664184
566,4401.22,1.7681803322390626
567,4405.27,1.8496677938117065
568,4409.32,1.8239272553843506
569,4413.37,1.7959797169569949
570,4417.42,1.8383581785296388
571,4421.47,1.9140956401022833
572,4425.53,1.8477686435553535
573,4429.58,1.9314161051279974
574,4433.63,1.9898815667006415
575,4437.68,1.9566080282732856
576,4441.73,1.91268048984593
577,4445.78,1.9849129514185742
578,4449.83,1.9728924129912182
579,4453.889999999999,1.8556724164442884
580,4457.9400000000005,1.8821768780169326
581,4461.99,1.9707743395895767
582,4466.04,1.9101668011622208
583,4470.09,1.9697552627348647
584,4474.139999999999,2.058244724307509
585,4478.1900000000005,2.028684185880153
586,4482.25,2.0820831893332237
587,4486.3,2.0595176509058675
588,4490.35,2.098335112478512
589,4494.4,2.1131105740511558
590,4498.45,2.1594170356238
591,4502.5,2.198943497196444
592,4506.549999999999,2.196662958769088
593,4510.6,2.168015420341732
594,4514.66,2.1176134237948028
