,lambda (Angstroms),Total Flux (erg/s/cm^2/Angstrom)
0,102.07000000000001,15.966706342448225
1,103.97,15.921197062396473
2,104.712855,15.903404012286565
3,105.9,15.75404017347062
4,108.12,15.4747249082287
5,109.88,15.25328578722614
6,114.0,14.734916928923093
7,118.01,14.23038802566046
8,120.22644299999999,13.951520510120112
9,121.02999999999999,13.866757441530508
10,125.0,13.447982452399318
11,127.03,13.233848137908582
12,127.91,13.141021460244788
13,130.89,12.826676527439709
14,132.1,12.699039949171278
15,133.94,12.504947808016171
16,137.06,12.175835261170386
17,138.038426,12.07262616023052
18,139.93,11.930003739881627
19,142.86,11.709088718939537
20,146.85999999999999,11.40750342734731
21,150.98,11.096862485176084
22,154.85,10.805071915415684
23,158.489319,10.530674622519074
24,158.82,10.511825134626697
25,162.15,10.322008257209825
26,165.92,10.107111916898353
27,170.17999999999998,9.864283972373341
28,172.94,9.706959839976296
29,176.97,9.477243351474371
30,179.85000000000002,9.313079148747885
31,181.93,9.194516178394315
32,181.970086,9.192231219655953
33,186.17000000000002,9.009592608602064
34,190.94,8.802164638342392
35,194.04999999999998,8.666923933421891
36,198.10999999999999,8.490371170800177
37,201.79,8.330344990146948
38,205.07000000000002,8.187711853665808
39,208.929613,8.01987130313574
40,209.85,7.9897807994304655
41,216.22,7.781535606144235
42,220.23999999999998,7.650114621989031
43,222.79,7.566749885438342
44,226.94,7.431079971430359
45,230.09,7.328184084520684
46,233.83,7.206090533133007
47,239.83,7.01005050284315
48,239.88329199999998,7.008308099767417
49,245.98,6.854698444119389
50,251.70999999999998,6.710396057275008
51,256.97999999999996,6.577543382633491
52,259.96,6.502557371810583
53,264.18,6.396284314019082
54,269.09,6.272601882723288
55,274.1,6.146395667970345
56,275.42287,6.113071517384289
57,279.19,6.040245861933406
58,283.72999999999996,5.95248197068963
59,289.67,5.837615749913411
60,295.74,5.720284716110608
61,301.23,5.614141730434103
62,308.25,5.4784400054985705
63,316.227766,5.324224093283286
64,318.35,5.29358577040294
65,328.02,5.153965256322886
66,337.99,5.010004381832488
67,348.26000000000005,4.861704837231746
68,357.19,4.732758053170538
69,363.078055,4.647740583101063
70,366.36,4.612254592572686
71,374.89000000000004,4.520009888387653
72,385.39,4.406427321982865
73,395.28000000000003,4.299509942280639
74,405.42,4.189860138306871
75,413.90999999999997,4.098041066725286
76,416.86938299999997,4.066031732707125
77,421.6,4.026956400002162
78,430.43,3.954028105873269
79,441.46999999999997,3.8628541206158524
80,450.72,3.7864491753086877
81,460.16,3.7084749736827813
82,469.79,3.6289340467381326
83,478.630092,3.5559266969350816
84,479.63,3.5495757891945776
85,489.66999999999996,3.4857788398353415
86,499.93,3.4206171288307825
87,505.71,3.383888481058233
88,511.57,3.346739242960113
89,519.88,3.293951902766362
90,529.5500000000001,3.2325148280378935
91,539.39,3.169974580992586
92,549.42,3.1062900132990454
93,549.5408739999999,3.105522665900349
94,559.64,3.05662392099797
95,570.04,3.006260618090799
96,580.64,2.9548671500315655
97,590.0699999999999,2.9092215222618893
98,599.66,2.862733022170565
99,609.4,2.8154769049651933
100,619.31,2.7676124162305715
101,629.3700000000001,2.7188788463819025
102,630.957344,2.711187818003331
103,639.6,2.677992418177414
104,649.99,2.638129953314025
105,657.51,2.60926471120597
106,665.13,2.5800324209182874
107,674.38,2.5444953503026624
108,685.34,2.5023595418153914
109,694.8699999999999,2.4659461242968077
110,704.5400000000001,2.4287332493267417
111,715.99,2.384917794759292
112,724.43596,2.3524999788128973
113,725.95,2.3481875622508475
114,734.35,2.324271741307741
115,744.5699999999999,2.2952619045269604
116,754.9300000000001,2.265797097297128
117,765.43,2.2358702016182446
118,774.29,2.210790178199681
119,785.0600000000001,2.180177857654769
120,794.15,2.1543384154984784
121,805.1999999999999,2.1229128940554625
122,814.53,2.0963714101293682
123,825.86,2.0642569647882483
124,831.763771,2.0471528937488084
125,835.4200000000001,2.0391930408757526
126,845.09,2.0191205613528145
127,854.88,1.9983195556961901
128,864.78,1.977403482167019
129,874.79,1.9562649197653015
130,884.92,1.9349315462298975
131,895.17,1.913259059560806
132,905.53,1.8911605330191683
133,916.02,1.8707969410827032
134,924.5,1.885880429635494
135,935.2,1.909791060215077
136,946.0300000000001,1.9664419953998322
137,954.78,2.0219689169018276
138,954.992586,2.0219020931486784
139,965.84,2.0189917649252265
140,974.78,1.77900260793165
141,986.06,1.9182863687048557
142,995.1899999999999,1.9248145984530267
143,1004.4,2.0340260973556177
144,1016.03,2.0049033631794106
145,1025.43,1.7880058388237483
146,1034.92,1.8477741297668084
147,1044.49,2.073227889864289
148,1054.1599999999999,2.0443105114047944
149,1063.91,1.909931602099719
150,1076.23,1.9649934518803835
151,1086.1899999999998,1.8382468116056612
152,1096.24,1.9522657866296607
153,1096.4782,1.9512093592764195
154,1103.84,1.9213420178896348
155,1114.05,1.8808615354951728
156,1124.36,1.815440611843175
157,1134.76,1.9242757210593942
158,1145.26,1.8558266890180772
159,1155.86,1.8745339157192238
160,1163.8700000000001,1.8768947409905614
161,1174.64,1.687159507553896
162,1185.51,1.8250477328596946
163,1193.73,1.6358989014902061
164,1204.77,1.5170042666581929
165,1215.92,1.4416395164428892
166,1224.35,1.599983728432575
167,1235.68,1.7756411439537059
168,1244.24,1.818474992308594
169,1255.76,1.764879799440406
170,1258.92541,1.7277475428737874
171,1264.46,1.6655365131193982
172,1276.16,1.8141904368832784
173,1285.01,1.8404555407559569
174,1293.91,1.666221985328481
175,1305.89,1.6425299970114968
176,1314.94,1.7844854636835579
177,1324.05,1.7444715991954338
178,1336.3,1.644220070657616
179,1345.5700000000002,1.7606720564089977
180,1354.8899999999999,1.7270316828602257
181,1364.29,1.637606934431206
182,1373.74,1.6617700267020323
183,1386.4499999999998,1.6531540926027946
184,1396.0600000000002,1.5606045351131268
185,1405.74,1.569505974603243
186,1415.48,1.5676633829331736
187,1425.3,1.578907716382858
188,1435.18,1.5603450186723564
189,1441.8,1.5899203473319197
190,1445.43977,1.5931748488903699
191,1448.46,1.5969855520146616
192,1455.14,1.570350055868807
193,1465.2299999999998,1.5081132889359223
194,1475.38,1.5007144453909487
195,1485.61,1.5072678330298575
196,1495.91,1.5115230479546624
197,1506.2800000000002,1.4682691901653644
198,1513.23,1.394079499265112
199,1516.72,1.4316616596619633
200,1523.72,1.4061714882516367
201,1534.2800000000002,1.3252050045240584
202,1544.9199999999998,1.3704257519803624
203,1555.63,1.3328335267225626
204,1566.41,1.33088722875066
205,1573.64,1.358120346993994
206,1584.5500000000002,1.3787600996958993
207,1595.53,1.3814116796837017
208,1606.59,1.3624017908553858
209,1614.01,1.3596776831604396
210,1625.19,1.3177177411079466
211,1636.46,1.345413434137321
212,1644.01,1.348771677116183
213,1655.4099999999999,1.2931419208193657
214,1659.58691,1.3081183357700192
215,1666.88,1.3361243950099047
216,1670.73,1.264201438120322
217,1678.4399999999998,1.3342439738037815
218,1686.1799999999998,1.359276757875114
219,1693.97,1.3162951892595687
220,1705.71,1.2852006583806856
221,1713.5800000000002,1.2507675854661362
222,1725.46,1.2414916470639956
223,1733.43,1.2746102687756908
224,1745.44,1.2545449733876683
225,1753.5,1.2895797402629836
226,1765.65,1.2310123373517032
227,1773.8000000000002,1.2411358493906388
228,1786.1,1.2444944884187257
229,1794.3400000000001,1.2818316456212813
230,1806.78,1.2693057771261105
231,1815.1200000000001,1.2165457289549106
232,1823.5000000000002,1.2246011786342086
233,1836.14,1.1936334993915272
234,1844.6100000000001,1.1447808942344453
235,1853.13,1.141793836390486
236,1865.97,1.1512582464002936
237,1874.59,1.1906147831825789
238,1883.24,1.1420831683527373
239,1896.29,1.1161166170776586
240,1905.04,1.1390431968740617
241,1905.46072,1.1379036158983251
242,1913.84,1.1165393315788283
243,1927.1,1.1022884040553937
244,1936.0,1.1101092217809918
245,1944.94,1.1317380968896265
246,1953.91,1.095873890035538
247,1967.46,1.1392965035391174
248,1976.54,1.1496836294883794
249,1985.6599999999999,1.1162706128206779
250,1994.83,1.0976121928817715
251,2004.03,1.1082618909801427
252,2013.2900000000002,1.0851508251530682
253,2027.2399999999998,1.1027123124870117
254,2036.6000000000001,1.072780140117528
255,2046.0,1.0911000251310812
256,2055.44,1.0601919675276708
257,2064.9300000000003,1.0582191066530555
258,2074.46,1.0938246031614773
259,2079.24,1.0708946104343267
260,2084.04,1.0908271963986942
261,2093.66,1.0567228470189474
262,2103.3199999999997,1.0536556550222371
263,2113.0299999999997,1.0561575597543222
264,2122.7799999999997,1.0576218218694438
265,2132.58,1.0147699807133608
266,2147.36,1.0255850337453092
267,2157.27,1.0402978253925763
268,2167.23,1.018023713768639
269,2177.23,1.010355159527738
270,2187.28,1.0005370020156326
271,2187.7616199999998,1.0014354683799427
272,2197.38,1.0207352750369072
273,2207.52,1.0032407778437586
274,2212.61,0.9739623288582433
275,2222.82,0.957672680303801
276,2233.08,0.9902251807770059
277,2243.3900000000003,0.9648786302778578
278,2253.75,0.9386148288063572
279,2264.15,0.9454741265569742
280,2274.6,0.9566959733352385
281,2285.1,0.9694794691411498
282,2295.65,0.9372056139747084
283,2306.24,0.9372386580303849
284,2316.89,0.9114369009192378
285,2327.58,0.8140300430302085
286,2332.95,0.8709200885995174
287,2343.72,0.8531452291547237
288,2354.5299999999997,0.8883552689320477
289,2365.4,0.8452418075425483
290,2376.32,0.8558634951806962
291,2387.29,0.8208604318464913
292,2392.79,0.845065824887683
293,2403.8399999999997,0.8266990599977135
294,2414.9300000000003,0.8344334943298617
295,2426.08,0.8613719274951868
296,2437.28,0.8428112096881588
297,2442.9,0.8659052003957037
298,2454.17,0.8580134312273822
299,2465.5,0.8491907608922369
300,2476.88,0.829702039584739
301,2482.59,0.8325111785420489
302,2494.0499999999997,0.8041485556787866
303,2505.56,0.8527426818431714
304,2511.34,0.7958548694391872
305,2511.88643,0.796489722704183
306,2517.13,0.8029761491511358
307,2522.93,0.7867884249473471
308,2534.5800000000004,0.7942254858138748
309,2546.27,0.7859374540996868
310,2552.14,0.8192296428796455
311,2563.92,0.8008037278588471
312,2575.76,0.824303223966975
313,2587.65,0.814439329349208
314,2593.61,0.8050883348225562
315,2605.5899999999997,0.7876795568981789
316,2617.61,0.7783374863930856
317,2623.65,0.7987435067050022
318,2635.7599999999998,0.8191522528932984
319,2647.92,0.8604176083557
320,2654.03,0.8805441416513639
321,2666.2799999999997,0.817488113807155
322,2672.4199999999996,0.8398215526672821
323,2684.7599999999998,0.8403004415164627
324,2697.1499999999996,0.8100332396397485
325,2703.37,0.826316993338444
326,2715.8500000000004,0.7938629081551192
327,2722.1099999999997,0.787917269273099
328,2734.67,0.8088769989283426
329,2747.29,0.7392567397125127
330,2753.63,0.7512470156690609
331,2766.3399999999997,0.7677249731466205
332,2772.7200000000003,0.7856166565224528
333,2785.5099999999998,0.7496375288385808
334,2791.9300000000003,0.6699516196336974
335,2804.82,0.6898338104980359
336,2817.77,0.7686626124913007
337,2824.26,0.8008878162701647
338,2837.2999999999997,0.7824561349568191
339,2843.84,0.7650216480097882
340,2856.97,0.7353912833898322
341,2863.55,0.7936308038620855
342,2876.77,0.7999836559355189
343,2883.3999999999996,0.7904888856818777
344,2884.0315,0.7904995879114982
345,2896.71,0.7915331389531155
346,2910.08,0.8398569553495572
347,2930.25,0.8127285271308757
348,2950.56,0.799172465052471
349,2971.02,0.8089596166957916
350,2991.61,0.8070627868979408
351,3012.35,0.8128263708218151
352,3033.23,0.8097842208859662
353,3047.23,0.8099735349136539
354,3068.3500000000004,0.8124892269325654
355,3089.6200000000003,0.8139538326732022
356,3111.04,0.8153951521355642
357,3132.6,0.8032234377382033
358,3147.06,0.8022801405125148
359,3168.88,0.8047592632328107
360,3190.8399999999997,0.7695950520933836
361,3212.96,0.78936830225713
362,3227.79,0.7547555655450304
363,3250.1600000000003,0.7964802052449855
364,3272.6899999999996,0.8204449062481144
365,3287.8,0.8122286018165685
366,3310.59,0.8053389399373543
367,3311.31121,0.8053502169626603
368,3318.2200000000003,0.8057710840673372
369,3325.8700000000003,0.8026414863654028
370,3333.54,0.82126368945379
371,3341.22,0.7916971929373382
372,3348.92,0.8386081972112079
373,3356.6400000000003,0.8140778022753995
374,3364.38,0.739420508129913
375,3372.1400000000003,0.7460933147747479
376,3379.91,0.8105704218147439
377,3387.7000000000003,0.8097927296450615
378,3395.5099999999998,0.7874984382657011
379,3403.34,0.8320305476766622
380,3411.18,0.7789586574827843
381,3419.05,0.7898749684743889
382,3426.9300000000003,0.7998839798611543
383,3434.83,0.8327842920382417
384,3442.75,0.7758419050056506
385,3450.68,0.7927410183682205
386,3458.64,0.7919445329162731
387,3466.61,0.7792863478594863
388,3474.6,0.8037442635930214
389,3482.6099999999997,0.7836344801168783
390,3490.64,0.8033989974310567
391,3498.69,0.757711715535557
392,3506.75,0.8067498340352182
393,3514.84,0.769884453720362
394,3522.94,0.8064272738006667
395,3531.06,0.7659334946712931
396,3539.2000000000003,0.8085793163322412
397,3547.36,0.8256892387835111
398,3555.54,0.8133231620251027
399,3563.73,0.8024168856618552
400,3571.95,0.7572989104840904
401,3580.18,0.7576180357014863
402,3588.44,0.6993745621043648
403,3596.71,0.7688030889024042
404,3605.0,0.7971289164907653
405,3613.31,0.7463296448694483
406,3621.64,0.745531674038453
407,3629.9900000000002,0.8538796039977794
408,3633.22,0.7218771316347404
409,3635.9599999999996,0.6747649399088189
410,3638.71,0.695857148578058
411,3641.45,0.8445026568521363
412,3644.19,0.9067361651262147
413,3646.94,0.9246751737954539
414,3649.6800000000003,0.7584854820695324
415,3652.42,0.7945546903436107
416,3655.16,0.8011104986176891
417,3657.91,0.8755549072869284
418,3660.6499999999996,0.9290014155610067
419,3663.3900000000003,0.862818023835085
420,3666.14,0.9983771325043242
421,3668.88,0.8830183407784026
422,3671.62,0.7156458490524811
423,3674.3700000000003,0.8246080577217202
424,3677.11,0.8798275659957986
425,3679.85,0.796779374269877
426,3682.6,0.8504972829391162
427,3685.3399999999997,0.9055591912131945
428,3688.0800000000004,0.8044247994872729
429,3690.82,0.8027847077613512
430,3693.5699999999997,0.8663141164305905
431,3696.31,0.9158990247046688
432,3699.0499999999997,0.8657136329787473
433,3701.8,0.8080765416479865
434,3704.54,0.8207401499220648
435,3707.28,0.8098007581961432
436,3710.03,0.7517698668653824
437,3712.7700000000004,0.8698381751394607
438,3715.51,0.8373449834135391
439,3718.2599999999998,1.0439489920827785
440,3721.0,1.3376395003568569
441,3723.74,1.5575292086309351
442,3726.48,1.4814169169050135
443,3729.23,1.2119431255742528
444,3731.97,1.118965833848331
445,3734.71,0.9250750421224094
446,3737.46,0.8732301507916487
447,3740.2000000000003,0.809923259065727
448,3742.94,0.7873991673398054
449,3745.69,0.8143620760090446
450,3748.43,0.808939284283123
451,3751.1699999999996,0.8848063925572014
452,3753.92,0.8999873012264406
453,3756.66,0.8046453095005189
454,3759.4,0.8423696177745973
455,3762.14,0.9344713260486757
456,3764.8900000000003,0.8435772347179149
457,3767.63,0.8266091429919933
458,3770.37,0.8897095512660717
459,3773.12,0.9491406599353108
460,3775.8599999999997,1.0045574682093894
461,3778.6,0.9844372764834677
462,3781.35,0.9459105851527069
463,3784.09,0.8998232934267852
464,3786.83,0.8884113017008636
465,3789.5800000000004,0.9167529103701028
466,3792.32,0.8765368186441812
467,3795.06,0.8669372269182596
468,3797.8,0.8910674351923379
469,3800.5499999999997,0.9352099438615772
470,3801.8939600000003,0.9270998360148686
471,3803.2899999999995,0.9187199743864146
472,3806.03,1.0363639662362358
473,3808.7799999999997,1.0035595773993773
474,3811.52,1.0128825692491987
475,3814.2599999999998,0.9833535610990197
476,3817.01,0.9483033722621613
477,3819.75,0.8656579641119825
478,3822.4900000000002,0.8713950559618037
479,3825.23,0.8619616478116248
480,3827.9800000000005,0.8542579589747664
481,3830.7200000000003,0.8846224508245876
482,3833.46,0.8633284426744088
483,3836.21,0.8198462538375504
484,3838.95,0.8482798456873716
485,3841.6899999999996,0.9824339375371928
486,3844.44,1.0687863487003344
487,3847.18,1.0745238405501556
488,3849.92,1.0451130323999767
489,3852.67,1.0704289435631182
490,3855.4100000000003,1.0791610354129395
491,3858.15,1.0351709272627605
492,3860.8900000000003,1.0344461191125818
493,3863.64,1.0858867302757236
494,3866.3799999999997,1.1410365221255445
495,3869.12,1.0520078139753657
496,3871.87,1.0188879251385075
497,3874.61,1.0104005169883286
498,3877.35,0.9877277088381498
499,3880.1000000000004,0.9451119200012914
500,3882.84,0.8909554118511125
501,3885.58,0.8332131037009336
502,3888.33,0.8513189148640753
503,3891.0699999999997,0.8403882067138965
504,3893.81,0.8862776985637175
505,3896.5499999999997,0.9678278904135387
506,3899.3,1.0511858015766804
507,3902.04,1.1014099934265016
508,3904.7799999999997,1.0297188852763226
509,3907.53,1.0148430964394644
510,3910.27,1.0363025882892853
511,3913.01,1.0789612801391066
512,3915.7599999999998,1.0305922913022483
513,3918.4999999999995,1.0396395831520695
514,3921.24,1.0151542750018907
515,3923.99,0.8899088861650323
516,3926.73,0.8939910780148534
517,3929.47,0.8754553698646745
518,3932.21,0.9293440617144957
519,3934.96,0.9382684728776374
520,3937.7000000000003,0.9892018647274585
521,3940.44,0.9614852565772797
522,3943.1899999999996,0.9944458677404213
523,3945.9300000000003,1.0187422595902424
524,3948.67,1.0154955514400636
525,3951.42,0.9965612626032053
526,3954.16,0.9878374544530264
527,3956.8999999999996,0.9623274463028476
528,3959.65,0.8857065574659893
529,3962.39,0.7960865493158104
530,3965.13,0.7565091411656315
531,3967.87,0.8152835330154526
532,3970.6200000000003,0.9048678441785942
533,3973.36,0.8938189360284154
534,3976.1000000000004,0.8848584278782365
535,3978.85,0.9849632390413783
536,3981.5899999999997,1.0247453308911996
537,3984.33,1.0775307227410207
538,3987.08,1.0425591339041622
539,3989.82,1.0806075257539833
540,3992.56,1.1445837176038045
541,3995.3100000000004,1.0885308287669462
542,3998.05,1.0679071206167674
543,4000.79,1.0751024124665884
544,4003.53,1.1663067043164097
545,4006.2799999999997,1.1370483154795514
546,4009.02,1.1657188073293723
547,4011.7599999999998,1.1779971991791935
548,4014.51,1.1651307103423352
549,4017.25,1.1846200021921565
550,4019.99,1.1350740940419775
551,4022.7400000000002,1.1529820052051192
552,4025.48,1.1506416970549402
553,4028.2200000000003,1.1413269889047615
554,4030.97,1.1384296000679033
555,4033.7099999999996,1.1570915919177243
556,4036.45,1.0529711837675455
557,4039.1899999999996,1.1464609756173667
558,4041.94,1.1159021867805083
559,4044.68,1.1245161786303295
560,4047.42,1.0821415704801505
561,4050.17,1.1158110816432922
562,4052.9100000000003,1.1975189734931133
563,4055.65,1.1833575653429345
564,4058.3999999999996,1.2137952765060762
565,4061.14,1.1796171683558974
566,4063.88,1.1318050602057184
567,4066.63,1.14857017136886
568,4069.37,1.0435830632186813
569,4072.1099999999997,1.0546398550685023
570,4074.85,0.9959914469183235
571,4077.6,1.0993663580814652
572,4080.34,1.1259877499312863
573,4083.08,1.0831008417811074
574,4085.83,1.0295307529442492
575,4088.57,1.0235651447940701
576,4091.3100000000004,1.0523930366438914
577,4094.06,1.017145647807033
578,4096.8,1.0000682396568543
579,4099.54,0.9601758315066753
580,4102.29,0.9773356426698171
581,4105.03,1.0263776345196383
582,4107.77,1.0083542263694594
583,4110.5199999999995,1.135056037532601
584,4113.26,1.106827729382422
585,4116.0,1.0744221212322433
586,4118.74,1.1067175130820646
587,4121.49,1.0931419242452063
588,4124.23,1.1822579160950273
589,4126.97,1.1557235079448485
590,4129.72,1.16961211910799
591,4132.46,1.2168815109578113
592,4135.2,1.1189868028076324
593,4137.95,1.150370813970774
594,4140.6900000000005,1.097751405820595
595,4143.43,1.1172406976704163
596,4146.18,1.123288008833558
597,4148.92,1.156135300683379
598,4151.66,1.1192377925332002
599,4154.4,1.1697380843830214
