,lambda (Angstroms),Total Flux (erg/s/cm^2/Angstrom)
0,100.00999999999999,41.073421175569216
1,102.11,40.944426670879764
2,104.0,40.82833161666843
3,104.712855,40.78454381780228
4,105.94,40.38859130114969
5,107.91,39.75294803342756
6,109.91000000000001,39.10762491907944
7,114.03999999999999,37.77503268797601
8,118.05,36.481159843971206
9,120.22644299999999,35.778905360065714
10,121.07,35.55070814242292
11,125.03999999999999,34.47675231413008
12,127.07,33.9276010973618
13,127.95,33.68954539803116
14,130.93,32.88340223348862
15,132.15,32.55337047092223
16,133.98,32.05832282428649
17,137.1,31.21430717019384
18,138.038426,30.960446197177472
19,139.98,30.585020095042807
20,142.91,30.018470334635122
21,146.91,29.24502372748381
22,151.03,28.448373520142656
23,154.9,27.700063782588614
24,158.489319,27.006027026300664
25,158.86999999999998,26.950377187803642
26,161.82999999999998,26.517669715793428
27,165.98000000000002,25.911002188927405
28,169.84,25.346728342652685
29,173.0,24.884783974776024
30,177.03,24.29565877050447
31,179.91,23.87464627181024
32,181.970086,23.57349282535145
33,181.99,23.571271914791584
34,185.79999999999998,23.14636141445138
35,191.01,22.565315878024737
36,194.11,22.219588315793622
37,198.17999999999998,21.76568149569069
38,201.85999999999999,21.35526966243885
39,205.14000000000001,20.989467735722993
40,208.929613,20.566831145239142
41,209.92000000000002,20.483791115910183
42,215.79999999999998,19.990777462620887
43,219.81,19.65455549924528
44,222.87,19.397986996845592
45,227.01,19.05086534085308
46,230.17,18.78592043670961
47,233.91,18.472355478322218
48,239.88329199999998,17.971534402945654
49,239.91,17.969808804263824
50,246.07,17.57179784981246
51,251.8,17.201578575195068
52,257.07,16.861062868242165
53,260.05,16.668532001434844
54,264.27,16.39587614118979
55,269.19,16.07798873679617
56,274.19,15.754932095977853
57,275.42287,15.675274866836372
58,279.28999999999996,15.483519785033348
59,283.83,15.25840059801247
60,289.77,14.963854935866651
61,295.84,14.662871520138522
62,301.34000000000003,14.390147262640538
63,307.65000000000003,14.07726455216813
64,316.227766,13.651933540603887
65,317.73,13.596298555842376
66,328.13,13.211132489446252
67,338.11,12.841520698534007
68,348.38,12.461168017409081
69,357.32,12.130073380166452
70,363.078055,11.916825353550992
71,365.64,11.845770962175953
72,375.02,11.58561421535952
73,384.64,11.318794184110041
74,395.41,11.020096957514731
75,404.62,10.764661636684204
76,414.04999999999995,10.503117614148387
77,416.86938299999997,10.424920132609302
78,421.75,10.32154650372967
79,429.59,10.155494354044176
80,440.61,9.92209403394186
81,450.87,9.70478276051212
82,460.31,9.504837826094892
83,469.95000000000005,9.300660489711198
84,478.630092,9.116817781414987
85,479.79,9.097924229214367
86,489.84,8.934206739709499
87,500.09,8.767250286169704
88,505.89000000000004,8.672761325856941
89,511.73999999999995,8.577494736385448
90,520.06,8.44196555347266
91,529.73,8.28443984767414
92,539.58,8.123972908704191
93,549.5408739999999,7.9617109119564295
94,549.61,7.9608519087057354
95,559.8199999999999,7.833995607017568
96,570.23,7.704651503056661
97,579.5,7.589452685760351
98,590.27,7.45562436056852
99,599.86,7.336430224855832
100,609.61,7.215216161884956
101,619.52,7.09214841235589
102,629.58,6.967128288847271
103,630.957344,6.95001409200228
104,639.81,6.862816647180442
105,650.2099999999999,6.760359236908319
106,657.74,6.686167807832541
107,665.35,6.61121905044467
108,674.6099999999999,6.520006186019876
109,685.57,6.412007301563099
110,695.11,6.318056547145979
111,704.78,6.222756496021707
112,716.23,6.110004797253358
113,724.43596,6.02916580961752
114,726.19,6.016339503664299
115,734.6,5.9548438162699835
116,744.82,5.880103381154774
117,755.1800000000001,5.804344964409219
118,765.6899999999999,5.7274353961597235
119,774.55,5.662703266453583
120,785.33,5.583854730416991
121,794.42,5.517399367218142
122,805.4699999999999,5.436602604594457
123,814.8,5.368376326929299
124,824.24,5.2993516559545855
125,831.763771,5.244290121577795
126,835.7,5.222752284904503
127,845.38,5.1699020051866675
128,855.17,5.116384618323173
129,865.07,5.062280957914021
130,875.09,5.007518472282335
131,885.22,4.952151703604991
132,895.47,4.8961290427051125
133,905.84,4.839438123282698
134,914.22,4.793759750658992
135,924.81,4.7370920286452645
136,935.52,4.680140666609001
137,944.17,4.635290303609591
138,954.992586,4.578537206817211
139,955.11,4.577935356980524
140,963.9399999999999,4.530949634469792
141,975.11,4.464603907043419
142,984.13,4.420663253402785
143,995.52,4.3608672476681045
144,1004.7399999999999,4.316115449838098
145,1014.03,4.266713784591813
146,1025.77,4.197684992775733
147,1035.27,4.149180849280607
148,1044.85,4.1066231413097345
149,1054.51,4.054844303863113
150,1064.27,3.9982015158218056
151,1074.12,3.9486563572452824
152,1084.06,3.8914488081335405
153,1094.0900000000001,3.8432876784865817
154,1096.4782,3.8303877075890456
155,1104.21,3.7961186114097365
156,1114.43,3.7503715408478935
157,1124.74,3.7034098983730788
158,1135.15,3.663180107106073
159,1145.65,3.615365723926098
160,1156.25,3.5706584919539317
161,1164.27,3.5360721948202736
162,1175.04,3.481954095901384
163,1185.91,3.4410058981903036
164,1194.13,3.3979683234722646
165,1205.18,3.3456764399352426
166,1216.3300000000002,3.2956155076060294
167,1224.76,3.265612482424392
168,1236.1,3.2242823413900186
169,1244.6599999999999,3.189169472778533
170,1256.18,3.137191937918215
171,1258.92541,3.1240327490900515
172,1264.8899999999999,3.1029421640168664
173,1273.66,3.0830201739949756
174,1285.4399999999998,3.0481724578424245
175,1294.35,3.012421068698178
176,1306.33,2.9748815337994037
177,1315.3799999999999,2.9541888255328006
178,1324.5000000000002,2.9243860327050184
179,1333.6799999999998,2.891561130253371
180,1346.02,2.8598109376113947
181,1355.35,2.8298162711000785
182,1364.7500000000002,2.7966592500275835
183,1374.2099999999998,2.7690922993312244
184,1383.73,2.739748999010996
185,1396.54,2.6958206343153948
186,1406.22,2.6665330649981884
187,1415.96,2.6371533260571147
188,1425.7800000000002,2.6078710676175514
189,1435.66,2.576969809554122
190,1442.29,2.5582362561168206
191,1445.43977,2.549161399514742
192,1445.61,2.5488314149627147
193,1455.6299999999999,2.525940423375027
194,1465.72,2.5014140630237525
195,1475.8799999999999,2.479634173908892
196,1486.11,2.4584461060304443
197,1496.4099999999999,2.4368284293884104
198,1503.32,2.420026878582929
199,1510.26,2.401470982593054
200,1517.23,2.3885391914187837
201,1524.23,2.3723266450601197
202,1534.8,2.345525031758538
203,1545.4399999999998,2.325029729693368
204,1556.15,2.3005588488646125
205,1563.33,2.2856310413995833
206,1574.17,2.263962931438452
207,1585.0800000000002,2.2420665727137337
208,1596.07,2.2188606868306318
209,1603.4399999999998,2.2026159098644387
210,1614.55,2.178847203243759
211,1625.74,2.1529339094646947
212,1633.25,2.138934604971328
213,1644.57,2.114994032059889
214,1655.97,2.087975831990064
215,1659.58691,2.081510826154818
216,1663.6100000000001,2.0769461289730353
217,1671.29,2.06126830545184
218,1675.1399999999999,2.0600439284392618
219,1686.76,2.0442643856376614
220,1694.54,2.0304391295966586
221,1706.29,2.011407163519309
222,1714.16,1.9976922452104797
223,1726.04,1.9796908858573807
224,1734.01,1.9700668450287442
225,1746.03,1.9513773521479147
226,1754.0900000000001,1.9416669890514517
227,1766.25,1.920452192642893
228,1774.3999999999999,1.9087819672786035
229,1786.7,1.891162117342314
230,1794.9499999999998,1.8814010994582175
231,1803.23,1.8690060308181786
232,1815.73,1.8470086458422745
233,1824.11,1.835419704682429
234,1836.76,1.8150637759268138
235,1845.24,1.7996372822471605
236,1853.7500000000002,1.7869940578115646
237,1866.6,1.7688687840163362
238,1875.22,1.7590669068089522
239,1883.87,1.743099018845627
240,1896.93,1.7222959397588025
241,1905.46072,1.711748531515441
242,1905.6899999999998,1.711558532938923
243,1914.49,1.7004990591078628
244,1923.32,1.6902526463660146
245,1936.65,1.6771700170060109
246,1945.5900000000001,1.6690173915912745
247,1954.57,1.6566645042954882
248,1968.12,1.6457674795897077
249,1977.21,1.6371980996210331
250,1981.76,1.6302543581515643
251,1995.5,1.6143748970107952
252,2004.71,1.6059059013989696
253,2013.97,1.5946674809358312
254,2023.26,1.586524351561905
255,2037.29,1.5689395142835216
256,2046.6899999999998,1.5605088222367074
257,2056.14,1.5469032053385803
258,2065.63,1.5374233365594023
259,2075.16,1.531453665899175
260,2079.9500000000003,1.5243488131434042
261,2084.74,1.5214418503876344
262,2094.36,1.5087098429950432
263,2104.03,1.4987717407511394
264,2113.7400000000002,1.4893124766261852
265,2123.5,1.4791151276499188
266,2133.2999999999997,1.466138526792602
267,2143.15,1.4565261910839717
268,2153.04,1.4476582634942916
269,2162.98,1.4355872810532984
270,2172.96,1.424953936731255
271,2182.99,1.413634017557899
272,2187.7616199999998,1.4094781239827214
273,2193.07,1.406774852887869
274,2203.19,1.3986743402712787
275,2213.36,1.38914075854097
276,2223.58,1.3810913676969434
277,2233.84,1.376487763561942
278,2244.15,1.367795930313222
279,2254.51,1.3582215479507838
280,2264.92,1.3518594764746275
281,2275.37,1.3456696817074962
282,2285.8700000000003,1.3396397878266466
283,2296.42,1.3287249748320789
284,2307.02,1.3225801527237926
285,2312.34,1.3168744050241623
286,2323.01,1.3008388521566705
287,2333.74,1.2990265543527166
288,2344.5099999999998,1.2905016832577885
289,2355.33,1.2858232830491416
290,2366.2,1.2748485037267765
291,2377.12,1.267970295290693
292,2382.6,1.2614418544271637
293,2393.6,1.2561515594091308
294,2404.65,1.24728389527738
295,2415.75,1.2405464620319104
296,2426.9,1.2356701696727224
297,2432.49,1.2306046647590132
298,2443.7200000000003,1.2252036158178758
299,2455.0,1.2172601677630206
300,2466.33,1.2082324305944467
301,2477.72,1.1987743484894111
302,2483.4300000000003,1.1938518437027776
303,2494.89,1.1781262408385362
304,2506.41,1.180139553037833
305,2511.88643,1.1707761505298224
306,2512.19,1.1703156653046694
307,2517.98,1.169081098178246
308,2523.7799999999997,1.1655939738719847
309,2535.4300000000003,1.1615593893602691
310,2547.13,1.154634848949362
311,2553.01,1.1573245472043936
312,2564.79,1.1487500693547794
313,2576.6299999999997,1.1460906384261353
314,2582.57,1.1421831836021359
315,2594.49,1.1349486852347848
316,2606.4700000000003,1.1273904637884027
317,2612.4700000000003,1.1234615258853735
318,2624.5299999999997,1.120325167000285
319,2636.6499999999996,1.1201796850361658
320,2642.73,1.1233197596944293
321,2654.92,1.1265164074714415
322,2667.1800000000003,1.1056051149895851
323,2673.33,1.1061372493889803
324,2685.67,1.1034378794684165
325,2698.06,1.0894978036486611
326,2704.28,1.0915679577891872
327,2716.7599999999998,1.078571927350887
328,2723.03,1.0724725955922212
329,2735.6000000000004,1.0698891305353746
330,2741.9,1.058466157237194
331,2754.56,1.0549361275618023
332,2767.27,1.0524723719872187
333,2773.6499999999996,1.0522807212503311
334,2786.45,1.038941511057202
335,2792.8799999999997,1.025181394421122
336,2805.77,1.0217757396094476
337,2812.24,1.0314224942540144
338,2825.22,1.0314461148237946
339,2838.26,1.021328632314544
340,2844.8,1.0125763967002421
341,2857.9300000000003,0.9997326895724464
342,2864.52,1.0098586780589527
343,2877.74,1.0122920863126117
344,2884.0315,1.006622821904191
345,2884.38,1.0063664996867308
346,2897.69,1.0085393282640935
347,2911.07,1.0200099784192485
348,2931.24,1.006396091620256
349,2951.56,0.9953255867736751
350,2972.0200000000004,0.9911831450826787
351,2992.62,0.9845987665472675
352,3013.3700000000003,0.9763055699642678
353,3027.2799999999997,0.9771965163512789
354,3048.2599999999998,0.9714687520953114
355,3069.3900000000003,0.9719626697917555
356,3090.6699999999996,0.9637796694406121
357,3112.09,0.9685939322450527
358,3126.4500000000003,0.9575856244892998
359,3148.12,0.9523473572144278
360,3169.9500000000003,0.951424090688795
361,3191.9199999999996,0.931100287318747
362,3206.6499999999996,0.9341260750456104
363,3228.88,0.9135676603930765
364,3251.26,0.9344445276929545
365,3266.27,0.9458920417309873
366,3288.91,0.9364145977483795
367,3311.31121,0.9219669538322499
368,3311.71,0.9217560639355784
369,3319.34,0.9223081383603979
370,3326.9900000000002,0.926424672875453
371,3334.66,0.9330654674807435
372,3342.35,0.9197188221762695
373,3350.05,0.930897356916913
374,3357.78,0.9274603317929099
375,3365.52,0.8915951867140244
376,3373.28,0.8826443017253744
377,3381.0499999999997,0.9064439967818422
378,3388.85,0.9192974319736631
379,3396.6600000000003,0.9001547472106015
380,3404.4900000000002,0.9243209225377755
381,3412.3399999999997,0.9039330579551851
382,3420.2,0.9096571734177122
383,3428.0899999999997,0.9099361290155926
384,3435.99,0.9045732646585907
385,3443.91,0.8711502603918241
386,3451.8500000000004,0.9013415162152929
387,3459.81,0.9011342321289973
388,3467.7799999999997,0.8957515280878194
389,3475.78,0.8955208641819945
390,3483.79,0.8934166803212876
391,3491.8199999999997,0.8951157565508161
392,3499.87,0.8759486928705797
393,3507.94,0.909476189280579
394,3516.03,0.8770632457808136
395,3524.1299999999997,0.8823465823261663
396,3532.25,0.896925678961754
397,3540.4,0.9047264157326951
398,3548.56,0.9118703325487538
399,3556.74,0.8889973094550481
400,3564.9399999999996,0.8967363464515777
401,3573.1600000000003,0.8491851435383426
402,3581.39,0.8571149206702254
403,3589.6499999999996,0.8257438379374614
404,3597.92,0.875696535249815
405,3606.22,0.8700140726975218
406,3614.53,0.8643842901903462
407,3619.51,0.7956858526589703
408,3622.22,0.8400120448858723
409,3624.9300000000003,0.8321413371127739
410,3627.64,0.859558729339676
411,3630.36,0.8764250016116956
412,3633.0699999999997,0.8685622938385975
413,3635.78,0.8399974860654992
414,3638.5,0.8842087583375188
415,3641.2099999999996,0.8785299505644208
416,3643.92,0.8778810427913226
417,3646.63,0.8827534350182245
418,3649.35,0.851362607290244
419,3652.06,0.8630879995171459
420,3654.77,0.8632912917440478
421,3657.48,0.9047082839709495
422,3660.2000000000003,0.8053929562429691
423,3662.91,0.828418648469871
424,3665.62,0.8585986406967729
425,3668.3300000000004,0.8551989329236747
426,3671.05,0.8608045051956943
427,3673.7599999999998,0.8839213974225962
428,3676.47,0.851456489649498
429,3679.1800000000003,0.8772052818763998
430,3681.9,0.8269555541484195
431,3684.6099999999997,0.8116293463753215
432,3687.32,0.8452933386022232
433,3690.03,0.850724630829125
434,3692.75,0.8407175031011446
435,3695.46,0.8320857953280465
436,3698.17,0.8886675875549483
437,3700.8799999999997,0.8323693797818502
438,3703.6000000000004,0.8598620520538697
439,3706.31,0.8397636442807717
440,3709.02,0.8599197365076735
441,3711.7400000000002,0.862128508779693
442,3714.4500000000003,0.8949206010065949
443,3717.16,0.8657296932334968
444,3719.8700000000003,0.9169566854603985
445,3722.59,0.9491497577324182
446,3725.2999999999997,1.0030324499593202
447,3728.0099999999998,1.0490196421862221
448,3730.7200000000003,1.0057065344131237
449,3733.44,0.9104812066851433
450,3736.1499999999996,0.8568585989120454
451,3738.86,0.8179289911389471
452,3741.57,0.8732345833658489
453,3744.29,0.8612138556378686
454,3747.0,0.8509570478647704
455,3749.71,0.8442715400916723
456,3752.42,0.8601787323185742
457,3755.1400000000003,0.8542025045905937
458,3757.85,0.8442786968174956
459,3760.56,0.8927112890443974
460,3763.2700000000004,0.8643843812712992
461,3765.9900000000002,0.8673659535433189
462,3768.7,0.8538709457702208
463,3771.41,0.8719541379971225
464,3774.1200000000003,0.9173744302240243
465,3776.84,0.907260002496044
466,3779.5499999999997,0.8891870947229459
467,3782.26,0.9394588869498477
468,3784.98,0.8743730592218674
469,3787.69,0.9065865514487692
470,3790.4,0.9285303436756711
471,3793.11,0.849790135902573
472,3795.83,0.8323671081745926
473,3798.5400000000004,0.8419324004014943
474,3801.25,0.8830005926283963
475,3801.8939600000003,0.8869142517407361
476,3803.96,0.8996395602588394
477,3806.6800000000003,0.9286781934210802
478,3809.3900000000003,0.9241288286672831
479,3812.1,0.9407571639134862
480,3814.81,0.9027032991596894
481,3817.53,0.9041274323219299
482,3820.24,0.8940646675681332
483,3822.95,0.8707951028143364
484,3825.6600000000003,0.8662536380605392
485,3828.38,0.85484777122278
486,3831.0899999999997,0.8531759064689832
487,3833.8,0.8293553417151862
488,3836.51,0.8063313769613892
489,3839.23,0.8477051101236299
490,3841.9399999999996,0.8716144453698331
491,3844.65,0.873708080616036
492,3847.36,0.9005466158622392
493,3850.0800000000004,0.9443537490244798
494,3852.79,0.9250280842706831
495,3855.5,0.930732619516886
496,3858.22,0.9218829526791268
497,3860.9300000000003,0.9180431879253297
498,3863.64,0.967367323171533
499,3866.35,0.9617874584177359
500,3869.07,0.9249228915799765
501,3871.78,0.9163188268261797
502,3874.49,0.9153050620723828
503,3877.2000000000003,0.9068831973185858
504,3879.92,0.8916800304808266
505,3882.63,0.8503165657270295
506,3885.3399999999997,0.8349028009732329
507,3888.05,0.8276185362194357
508,3890.77,0.8530425693816766
509,3893.4800000000005,0.8425240046278795
510,3896.19,0.8747767398740827
511,3898.9,0.8987535751202858
512,3901.62,0.9135390082825264
513,3904.33,0.9101232435287295
514,3907.04,0.9248212787749326
515,3909.75,0.9297728140211357
516,3912.4700000000003,0.9184973471833763
517,3915.18,0.9344399824295795
518,3917.89,0.9371480176757825
519,3920.6000000000004,0.9345448529219855
520,3923.32,0.9310538860842262
521,3926.0299999999997,0.8964406213304293
522,3928.7400000000002,0.8401064565766323
523,3931.46,0.8269169897388731
524,3934.17,0.8224468249850763
525,3936.8799999999997,0.8322298602312794
526,3939.59,0.8526273954774823
527,3942.31,0.9106639286397231
528,3945.02,0.9148425638859261
529,3947.73,0.8978750991321294
530,3950.44,0.9166517343783323
531,3953.16,0.9086265675405731
532,3955.8700000000003,0.9216399027867761
533,3958.58,0.9085411380329791
534,3961.29,0.8506017732791823
535,3964.01,0.8128299064414231
536,3966.7200000000003,0.780325041687626
537,3969.43,0.7599408769338292
538,3972.1400000000003,0.7993955121800321
539,3974.86,0.8312248453422728
540,3977.57,0.883438380588476
541,3980.2799999999997,0.9015728158346791
542,3982.9900000000002,0.922913851080882
543,3985.71,0.9230655842431228
544,3988.4199999999996,0.957839319489326
545,3991.13,0.967666154735529
546,3993.84,0.923207089981732
547,3996.56,0.9670536231439728
548,3999.27,0.9490755583901758
549,4001.98,0.9713996936363788
550,4004.7,0.9750946267986196
551,4007.4100000000003,0.9872758620448226
552,4010.12,0.9650924972910258
553,4012.83,0.9743009325372287
554,4015.5499999999997,0.9928990656994696
555,4018.26,0.9700023009456725
556,4020.97,1.0087397361918757
557,4023.68,1.002807271438079
558,4026.4,0.9920349046003194
559,4029.11,0.9973590398465224
560,4031.8199999999997,0.9753341750927257
561,4034.53,0.9806980103389287
562,4037.25,0.9910518435011693
563,4039.96,0.9871010787473724
564,4042.67,0.9877482139935756
565,4045.38,0.9768215492397786
566,4048.1,0.9848366824020194
567,4050.8100000000004,0.9816391176482223
568,4053.52,0.9741211528944256
569,4056.23,0.9913361881406286
570,4058.9500000000003,0.9867470213028692
571,4061.6600000000003,0.9988887565490723
572,4064.37,0.9673114917952754
573,4067.08,0.9475855270414786
574,4069.8,0.9743487602037191
575,4072.5099999999998,0.9547020954499222
576,4075.22,0.9596695306961254
577,4077.94,0.9319092638583661
578,4080.65,0.952517099104569
579,4083.3599999999997,0.9573655343507722
580,4086.07,0.9658208695969752
581,4088.79,0.9537011027592159
582,4091.5,0.9764254380054191
583,4094.2099999999996,0.9233932732516221
584,4096.92,0.9104727084978252
585,4099.64,0.9008501416600658
586,4102.35,0.8877711769062689
587,4105.0599999999995,0.8979189121524722
588,4107.77,0.9134612473986751
589,4110.49,0.9525275805609159
590,4113.2,0.9773526158071189
591,4115.91,0.953742451053322
592,4118.62,0.9505447862995251
593,4121.34,0.9730273194617658
594,4124.05,0.9596828547079688
595,4126.76,0.9518873899541719
596,4129.47,0.9630776252003749
597,4132.19,0.9634035583626157
598,4134.900000000001,0.9842254936088186
