,lambda (Angstroms),Total Flux (erg/s/cm^2/Angstrom)
0,100.02000000000001,57.79293279179635
1,102.11,57.61230929005526
2,104.01,57.44810254106243
3,104.712855,57.38736054876407
4,105.95,56.82569417302951
5,107.91,55.935855389954845
6,109.92,55.02335123692878
7,114.05,53.1483461407036
8,118.05,51.33236327489204
9,120.22644299999999,50.34475119021456
10,121.08000000000001,50.02005562018953
11,125.05000000000001,48.50911735146858
12,127.08000000000001,47.73650299310497
13,127.96,47.40160224093258
14,130.94,46.26741722128058
15,131.85,45.921261388772756
16,133.98999999999998,45.10678116351261
17,137.10999999999999,43.919581827628626
18,138.038426,43.56624237967243
19,139.98,43.038107200705454
20,142.92,42.24121999276017
21,146.92000000000002,41.15851883380739
22,151.04,40.03835630781603
23,154.91,38.986386838571725
24,158.489319,38.01353828830196
25,158.88,37.93328634130901
26,161.84,37.3251863042488
27,165.98999999999998,36.47278615739075
28,169.86,35.677808089308655
29,173.01,35.03075253807906
30,177.04000000000002,34.20290508069641
31,179.92000000000002,33.611351153286485
32,181.970086,33.190253661378215
33,182.0,33.185568065223066
34,185.82000000000002,32.58727071297668
35,191.02,31.77269690866224
36,194.11999999999998,31.287257675320944
37,198.19,30.64970182748252
38,201.87,30.07352431196768
39,205.14999999999998,29.559740161400114
40,208.929613,28.966924558972554
41,209.93,28.848979951081315
42,215.81,28.15822644497808
43,219.82999999999998,27.6853221781524
44,222.89,27.324980695792554
45,227.03,26.838017039658638
46,230.19000000000003,26.482546951208597
47,233.93,26.074941469435455
48,239.88329199999998,25.39696054820069
49,239.93,25.39290535486673
50,246.08,24.827871651783973
51,251.80999999999997,24.31359641622883
52,257.09,23.813276060167535
53,260.06,23.56053247550806
54,264.29,23.182324838265778
55,269.2,22.735669429788327
56,274.21000000000004,22.27939858142335
57,275.42287,22.168884070578947
58,279.31,21.89687710339866
59,283.84,21.58106898647495
60,289.79,21.16061608014027
61,295.86,20.737581752165227
62,300.65999999999997,20.3985558865507
63,307.67,19.910877055726147
64,316.227766,19.315214247583107
65,317.75,19.236141188298387
66,328.15999999999997,18.692174309748108
67,338.13000000000005,18.16997588014711
68,347.59999999999997,17.673675547988502
69,357.34000000000003,17.164947872611002
70,363.078055,16.86622880454308
71,365.66,16.765602254376404
72,375.04,16.397271937099507
73,384.66,16.015799057504225
74,395.44000000000005,15.597183810036748
75,404.65000000000003,15.237311846068708
76,414.08,14.866969816642152
77,416.86938299999997,14.757001890895198
78,421.78000000000003,14.608701296330027
79,429.62,14.372671914695049
80,440.64,14.04326329846834
81,450.9,13.735014420257261
82,460.34,13.450734045431473
83,469.97999999999996,13.161293762706835
84,478.630092,12.902569448903533
85,479.82,12.875168248676456
86,489.87,12.641266231499127
87,500.13,12.406085167246454
88,505.91999999999996,12.27094015645474
89,511.78000000000003,12.140366389971245
90,520.09,11.947904394275362
91,529.76,11.723376907996283
92,539.61,11.49321093708119
93,549.5408739999999,11.263444032588223
94,549.64,11.261689439721113
95,559.86,11.084406881913191
96,570.27,10.90237621722821
97,579.54,10.738009483805566
98,590.31,10.548582267143011
99,599.9,10.377311135295848
100,609.65,10.19962352923643
101,619.56,10.033024598964756
102,629.62,9.85474931536909
103,630.957344,9.831380106322158
104,639.85,9.708215057429994
105,650.25,9.562252348624549
106,657.7800000000001,9.455789976672145
107,665.4,9.35084595983585
108,674.65,9.221939625657928
109,685.62,9.066697519254493
110,695.15,8.935451570993349
111,704.82,8.797779340690594
112,716.28,8.640748652141518
113,724.43596,8.526935248851238
114,726.2399999999999,8.508205158082852
115,734.65,8.420863081366011
116,744.87,8.314330588364095
117,755.23,8.206679629019686
118,765.74,8.094342667165465
119,774.61,8.005608646751865
120,785.38,7.892765144547302
121,794.48,7.799302402285321
122,805.53,7.685258247395774
123,814.86,7.588580243285414
124,824.2900000000001,7.491051497501846
125,831.763771,7.411752777733292
126,835.76,7.379735474901747
127,845.4399999999999,7.30734857976119
128,855.23,7.231194359675854
129,865.1300000000001,7.154745854645738
130,875.15,7.077301552403138
131,885.28,6.998790675215757
132,895.53,6.91944291081589
133,905.9000000000001,6.838894919203535
134,914.28,6.776268748864914
135,924.87,6.728806777363003
136,935.58,6.687356268648605
137,944.2399999999999,6.675229844814182
138,954.992586,6.633337839995337
139,955.1700000000001,6.632676111200539
140,964.01,6.587334715663966
141,975.1700000000001,6.353074351344037
142,984.19,6.405590899608756
143,995.5899999999999,6.320702273690551
144,1004.8,6.311897594856632
145,1014.1,6.232080557923359
146,1025.84,6.022281101407593
147,1035.34,6.014497846475756
148,1044.92,6.06040608434449
149,1054.58,5.979344615013801
150,1064.34,5.85289013668383
151,1074.19,5.813159400254501
152,1084.1299999999999,5.684459705725821
153,1094.16,5.668727453097785
154,1096.4782,5.648485922409224
155,1104.28,5.591004905005214
156,1114.5,5.518152658049934
157,1124.82,5.42810059321838
158,1135.22,5.413261334085804
159,1145.73,5.325131345289327
160,1156.33,5.269688050404202
161,1164.34,5.2241308085145945
162,1175.1200000000001,5.080162101452174
163,1185.99,5.078297188301109
164,1194.21,4.958466998871324
165,1205.26,4.845411973542964
166,1213.62,4.744447919086395
167,1224.84,4.760556493368365
168,1236.18,4.762467626198807
169,1244.75,4.72934152420206
170,1256.2599999999998,4.647184856642837
171,1258.92541,4.6212512536807
172,1264.97,4.5731320302000595
173,1273.7399999999998,4.586663920590343
174,1285.53,4.544288361605328
175,1294.44,4.450826743746425
176,1306.42,4.39433816642323
177,1315.47,4.402061640315141
178,1324.59,4.3491645600824596
179,1333.77,4.280321647742983
180,1346.1100000000001,4.262917077779024
181,1355.44,4.212412335172564
182,1364.84,4.14497983844151
183,1374.3,4.111465109603662
184,1383.8200000000002,4.070237648659019
185,1393.4199999999998,3.9927837115719864
186,1406.3100000000002,3.941258230629082
187,1416.0600000000002,3.908435863275063
188,1425.87,3.8675103638142514
189,1435.76,3.8224494882110465
190,1442.39,3.8032371904103135
191,1445.43977,3.79191665553291
192,1445.71,3.791272011702728
193,1455.73,3.752737908517555
194,1465.82,3.7048614987233046
195,1475.98,3.672188682319975
196,1486.21,3.6428612593075678
197,1496.52,3.6122772715990723
198,1503.42,3.5796131915613776
199,1510.3600000000001,3.537068379175639
200,1517.3300000000002,3.5265151925288674
201,1524.34,3.499541273534051
202,1534.8999999999999,3.4430953336502768
203,1545.54,3.421064029070412
204,1556.2599999999998,3.3787988597944594
205,1563.44,3.3604061533204526
206,1574.2800000000002,3.3367676870003646
207,1585.1899999999998,3.3098586140712003
208,1596.18,3.2792930764459456
209,1603.55,3.2509241663187276
210,1614.66,3.216427631649339
211,1625.8500000000001,3.1723505322838617
212,1633.3600000000001,3.158663008938487
213,1644.68,3.1252679544418656
214,1656.0800000000002,3.0767965352491533
215,1659.58691,3.0722525261689064
216,1663.72,3.070693664829524
217,1671.4,3.034676726220157
218,1675.26,3.046348062023262
219,1686.8700000000001,3.026766552094258
220,1694.65,2.9986623890238326
221,1706.3999999999999,2.9659326648493463
222,1714.28,2.9402583773178605
223,1726.1599999999999,2.9132040113439968
224,1734.13,2.905169471797557
225,1746.1499999999999,2.874957491578211
226,1754.21,2.8665672000168176
227,1766.37,2.826094905551987
228,1774.52,2.8116846619756415
229,1786.8200000000002,2.787234953265327
230,1795.07,2.778831485227922
231,1803.35,2.7589857998521983
232,1815.85,2.7190883422197656
233,1824.24,2.7037575599368773
234,1836.8799999999999,2.6697940880589615
235,1845.3600000000001,2.638413453761119
236,1853.8799999999999,2.620801029678853
237,1866.73,2.5973798364327116
238,1875.3400000000001,2.5887026603354926
239,1884.0000000000002,2.557849522007743
240,1897.0600000000002,2.524364907393377
241,1905.46072,2.5132173986153865
242,1905.82,2.5129467662394527
243,1914.61,2.4936078751421316
244,1923.4499999999998,2.4757012071898776
245,1936.78,2.456045357664589
246,1945.72,2.4505136360024684
247,1954.7,2.4271853728563997
248,1968.25,2.417899445169404
249,1977.34,2.4057583929424817
250,1981.9,2.3918357637725403
251,1995.6399999999999,2.366102464036797
252,2004.85,2.3543381873580347
253,2014.1000000000001,2.3357120691953246
254,2023.3999999999999,2.324121374177682
255,2032.74,2.304716337676092
256,2046.83,2.2879395999558136
257,2056.27,2.265392909744356
258,2065.77,2.250770607306979
259,2075.2999999999997,2.245915298756642
260,2080.09,2.244076256054006
261,2084.88,2.2470353133513705
262,2094.5,2.222131186462153
263,2104.17,2.2061867827180017
264,2113.88,2.196069637489903
265,2123.64,2.1777429154068715
266,2133.44,2.152342751839893
267,2143.29,2.147559311417981
268,2153.1800000000003,2.134604429512121
269,2163.12,2.109838170751329
270,2173.11,2.093059635135602
271,2183.14,2.08522295803593
272,2187.7616199999998,2.079671176850187
273,2193.21,2.07589926217075
274,2203.34,2.0606279244846335
275,2213.5099999999998,2.03470440382641
276,2223.73,2.0268603544530523
277,2233.99,2.0359327221075887
278,2244.2999999999997,2.01776136104699
279,2254.66,1.989567171271258
280,2265.0699999999997,1.9765115527803918
281,2275.52,1.9710454513174187
282,2286.03,1.9778462753962847
283,2296.58,1.9503362165030442
284,2307.1800000000003,1.9497464288946693
285,2312.5,1.931043493604429
286,2323.17,1.8922315857948666
287,2333.8900000000003,1.8890826492701707
288,2344.67,1.8632284382873145
289,2355.4900000000002,1.879419144332351
290,2366.36,1.8420204216622538
291,2377.2799999999997,1.840655470277023
292,2382.7599999999998,1.8149466030983537
293,2393.76,1.8134365857689079
294,2404.81,1.7985395397243291
295,2415.91,1.7925930649646162
296,2427.06,1.809030761489769
297,2432.6600000000003,1.8004053453947784
298,2443.89,1.804576875975718
299,2455.17,1.795955477841523
300,2466.5,1.7705613509921942
301,2472.19,1.753524423209963
302,2483.6,1.7193105304164202
303,2495.06,1.7109734089077435
304,2506.58,1.7307899129409061
305,2511.88643,1.6840887941746454
306,2512.36,1.680049489064039
307,2518.15,1.6708241716285999
308,2523.95,1.6657565222114077
309,2535.6,1.6763032634682535
310,2547.31,1.6684625128345767
311,2553.18,1.7152139395451078
312,2564.96,1.6769714650391545
313,2576.8,1.6933359986426784
314,2582.7400000000002,1.6763620014809328
315,2594.66,1.6572586792304274
316,2606.64,1.6348212650893983
317,2612.65,1.6226485440553762
318,2624.71,1.6373746740603172
319,2636.82,1.6962839441564892
320,2642.9,1.7486905992501907
321,2655.1000000000004,1.8318038815105786
322,2667.3599999999997,1.7017646718804447
323,2673.51,1.7239056031018696
324,2685.8500000000004,1.7527419376177042
325,2692.04,1.6708979409121147
326,2704.46,1.7086838195739193
327,2716.9500000000003,1.6309728743634477
328,2723.2099999999996,1.5870516537855817
329,2735.7799999999997,1.61610705272108
330,2742.0899999999997,1.5389576722344442
331,2754.74,1.5634037153159124
332,2767.46,1.5952222345251037
333,2773.84,1.6024735301661917
334,2786.6400000000003,1.5189307935213527
335,2793.07,1.4494642292536721
336,2805.96,1.4517906047730496
337,2812.4300000000003,1.5485496125783533
338,2825.41,1.610672600261947
339,2831.92,1.5857389801402357
340,2844.9900000000002,1.5075665799880449
341,2858.12,1.4356117879453314
342,2864.7099999999996,1.5537811119695906
343,2877.94,1.633844900109339
344,2884.0315,1.6046962880620332
345,2884.57,1.6022449719383274
346,2897.8900000000003,1.6680230616514735
347,2911.2599999999998,1.7949492419416209
348,2931.44,1.7171235388193449
349,2951.7599999999998,1.6677603093126727
350,2972.22,1.6705010534216038
351,2992.8199999999997,1.666326171146139
352,3006.64,1.653515166629298
353,3027.48,1.677158139123439
354,3048.46,1.6859373852331836
355,3069.5899999999997,1.7251899030739326
356,3090.87,1.6959299926456852
357,3112.3,1.7777233539484416
358,3126.66,1.7184833476632146
359,3148.34,1.7105375618509777
360,3170.1600000000003,1.7605745496543443
361,3192.14,1.6602326073041154
362,3206.87,1.7085853312886978
363,3229.1,1.603929741823475
364,3251.48,1.8063586240892562
365,3266.4900000000002,1.922810995305046
366,3289.13,1.8966854285712338
367,3311.31121,1.8242550252085623
368,3311.9300000000003,1.8223355403056551
369,3319.57,1.768694655924473
370,3327.2200000000003,1.788063203631797
371,3334.89,1.869690815516134
372,3342.58,1.787405391577483
373,3350.2799999999997,1.8389962997273388
374,3358.0,1.8784799720542071
375,3365.75,1.6202691406465943
376,3373.5,1.5873978092389813
377,3381.2799999999997,1.7655508740968877
378,3389.07,1.8260124710433
379,3396.8900000000003,1.6978213642552311
380,3404.72,1.9136853895556691
381,3412.5699999999997,1.7658201790331192
382,3420.43,1.7953373005990758
383,3428.32,1.803434818430551
384,3436.22,1.7874179683505331
385,3444.14,1.5167395824475274
386,3452.08,1.8405288607215344
387,3460.04,1.7636818031725539
388,3468.02,1.7606244098005863
389,3476.0099999999998,1.7034552485171248
390,3484.02,1.783967251410676
391,3492.0499999999997,1.7126099184812396
392,3500.11,1.680812181817322
393,3508.17,1.8637311451534049
394,3516.2599999999998,1.6762550047550064
395,3524.37,1.7335880285336207
396,3532.49,1.8358749844007414
397,3540.63,1.887459004444874
398,3548.7999999999997,1.9332558207545265
399,3556.98,1.7924906691526845
400,3565.18,1.8824500817278556
401,3573.4,1.5583777584800391
402,3581.63,1.641214567320729
403,3589.89,1.4480374724269378
404,3598.1600000000003,1.8210546096216529
405,3606.46,1.742694843081887
406,3614.77,1.704303908630627
407,3623.11,1.5701362704448865
408,3631.46,2.061844364347652
409,3639.83,1.8409830224274302
410,3648.22,1.7855593446842208
411,3656.63,2.013231131118024
412,3665.06,2.1146111817288404
413,3673.5099999999998,1.951864296516669
414,3681.9800000000005,1.8644787754815098
415,3690.4700000000003,1.7453474186233637
416,3698.97,1.949550993853724
417,3707.5000000000005,1.7628751653496029
418,3716.05,2.008841801022495
419,3724.6099999999997,1.4884952687838928
420,3733.2,1.8360335328108097
421,3741.8,1.6252752289262329
422,3750.4300000000003,1.4827860213071746
423,3759.0800000000004,1.9951848778651295
424,3767.74,1.7378253665115908
425,3776.4300000000003,1.9325375514235705
426,3785.13,2.077839468424057
427,3793.86,1.7672863816900621
428,3801.8939600000003,1.601134794693727
429,3802.61,1.5864086619137567
430,3811.37,1.8390417832249741
431,3820.1600000000003,1.645969253239312
432,3828.96,1.46706580615469
433,3837.79,1.3882276077731888
434,3846.64,1.7230359751937678
435,3855.5,1.777962625515387
436,3864.39,1.564639024540127
437,3873.3,1.6976019893669472
438,3882.23,1.6481727199958478
439,3891.1800000000003,1.5455779164268286
440,3892.52,2.204964425166216
441,3894.2900000000004,2.3833597986503317
442,3896.06,1.9657631721344475
443,3897.84,2.1064997285196037
444,3899.61,2.2564381020037194
445,3901.3799999999997,1.9494474754878353
446,3903.16,2.5447020318729914
447,3904.93,2.168448405357107
448,3906.7000000000003,1.536699078841223
449,3908.47,1.4929540523253386
450,3910.25,1.3626604087104945
451,3912.02,2.16967608219461
452,3913.79,2.035910455678726
453,3915.5699999999997,1.4936409120638823
454,3917.34,1.751942485547998
455,3919.11,1.3152952590321139
456,3920.88,1.3737282325162297
457,3922.66,1.1398016889013858
458,3924.43,1.0378941623855016
459,3926.2000000000003,1.6257898358696172
460,3927.98,1.1256149922547733
461,3929.75,1.363216565738889
462,3931.52,1.8996977392230048
463,3933.29,1.8892821127071207
464,3935.07,1.6890228690922768
465,3936.8399999999997,1.4638995425763925
466,3938.61,1.9525104160605085
467,3940.39,1.9762059724456644
468,3942.1600000000003,1.7734899459297802
469,3943.93,2.082173719413896
470,3945.7,1.921275092898012
471,3947.48,1.780309149283168
472,3949.2500000000005,2.3046290227672834
473,3951.02,2.1471473962513996
474,3952.8,2.2438889526365555
475,3954.57,2.176363326120671
476,3956.3399999999997,1.8876066996047873
477,3958.11,1.9783350730889029
478,3959.89,1.621419929474059
479,3961.6600000000003,1.4835147029581748
480,3963.43,1.6153302764422905
481,3965.2,1.5555923499264064
482,3966.98,1.6682432063115624
483,3968.75,1.3117316797956782
484,3970.52,1.2821873532797938
485,3972.3,1.50037420966495
486,3974.07,2.0581979831490655
487,3975.84,2.6528193566331817
488,3977.6099999999997,2.3940327301172974
489,3979.39,2.3943402865024535
490,3981.1600000000003,1.812272659986569
491,3982.9300000000003,1.718817333470685
492,3984.71,2.8715045898558413
493,3986.48,2.566298963339957
494,3988.25,2.5125343368240727
495,3990.0200000000004,2.7721277103081885
496,3991.7999999999997,2.4569672666933444
497,3993.57,2.49649764017746
498,3995.34,2.300785013661576
499,3997.12,2.553888570046732
500,3998.89,2.631986943530848
501,4000.66,2.403393317014964
502,4002.4300000000003,2.6504296904990796
503,4004.2100000000005,2.4391342468842354
504,4005.98,2.5368386203683513
505,4007.75,2.503537993852467
506,4009.53,2.184802550237623
507,4011.2999999999997,2.206147923721739
508,4013.07,2.351297297205855
509,4014.84,2.8471696706899707
510,4016.6200000000003,2.601554227075127
511,4018.39,2.056073600559243
512,4020.16,2.3166459740433583
513,4021.94,2.5567255304285146
514,4023.7099999999996,2.69873890391263
515,4025.48,2.693260277396746
516,4027.25,2.806304650880862
517,4029.03,2.688360207266018
518,4030.7999999999997,2.2412725807501337
519,4032.5699999999997,2.4969079542342496
520,4034.35,2.3824935106194056
521,4036.1200000000003,2.095557884103521
522,4037.89,2.643181257587637
523,4039.66,2.9273656310717526
524,4041.44,2.438366187456909
525,4043.21,2.1299685609410246
526,4044.98,2.4247949344251403
527,4046.7599999999998,2.5790644908102967
528,4048.53,2.087408864294412
529,4050.3,2.473178237778528
530,4052.0699999999997,2.672609611262644
531,4053.85,2.3488231676478
532,4055.62,2.1644535411319157
533,4057.3900000000003,2.2852369146160316
534,4059.1699999999996,2.6891924710011876
535,4060.94,2.4212758444853035
536,4062.71,2.105379217969419
537,4064.4799999999996,2.412970591453535
538,4066.2599999999998,2.579368147838691
539,4068.03,2.5561595213228068
540,4069.8,2.5328028948069226
541,4071.5800000000004,2.385170451192079
542,4073.35,2.3207338246761946
543,4075.12,2.37314019816031
544,4076.8900000000003,2.308310571644426
545,4078.6699999999996,2.2578111280295823
546,4080.44,2.415837501513698
547,4082.21,2.3885118749978136
548,4083.9900000000002,2.2889974313829695
549,4085.7599999999998,2.4415898048670854
550,4087.5299999999997,2.942111178351201
551,4089.3,2.689010551835317
552,4091.0800000000004,2.586294108220473
553,4092.85,2.615657481704589
554,4094.62,2.559670855188705
555,4096.4,2.488137411573861
556,4098.17,2.319845785057977
557,4099.9400000000005,2.322957158542092
558,4101.71,2.5168695320262082
559,4103.49,2.392904088411364
560,4105.26,2.62501246189548
561,4107.03,2.472040835379596
562,4108.81,2.2893133917647517
563,4110.58,2.6037097652488677
564,4112.35,2.305179138732983
565,4114.12,2.488029512217099
566,4115.900000000001,2.341593068602255
567,4117.67,2.340006442086371
568,4119.44,2.676174815570487
569,4121.22,2.275001371955643
570,4122.990000000001,2.3099387454397586
571,4124.76,2.3280421189238742
572,4126.53,1.9613594924079905
573,4128.31,2.207805048793146
574,4130.08,2.514059422277262
575,4131.85,2.4656627957613777
576,4133.62,2.261604169245494
577,4135.400000000001,2.1297967256306496
578,4137.17,2.1403020991147654
579,4138.94,2.2493764725988816
580,4140.72,2.757253028984037
581,4142.49,2.614300402468153
582,4144.26,2.094811775952269
583,4146.04,2.032773332337425
584,4147.81,2.1248397058215405
585,4149.58,2.215456079305657
586,4151.349999999999,2.185385452789773
587,4153.13,2.2269430091749287
588,4154.900000000001,2.3940233826590442
589,4156.67,2.4702167561431603
590,4158.44,2.417535129627276
591,4160.22,2.374877686012432
592,4161.99,2.5115700594965475
593,4163.76,2.5910604329806635
594,4165.54,2.4461999893658195
595,4167.31,2.184836362849935
596,4169.08,1.988527736334051
597,4170.849999999999,2.252517109818167
598,4172.63,2.309058666203323
