,lambda (Angstroms),Total Flux (erg/s/cm^2/Angstrom)
0,102.05000000000001,3.684918e-16
1,103.95,6.012615e-16
2,104.712855,7.568526152766849e-16
3,105.88,9.949023e-16
4,108.10000000000001,1.672835e-15
5,110.11,3.177785e-15
6,113.98,7.560694e-15
7,117.97999999999999,1.640578e-14
8,120.22644299999999,7.351548413628023e-14
9,121.01,9.343529e-14
10,124.97,1.802604e-13
11,127.0,2.402384e-13
12,127.88000000000001,2.821801e-13
13,130.86,4.198215e-13
14,132.07,5.493186e-13
15,133.91,7.039939e-13
16,137.03,1.18867e-12
17,138.038426,1.365838853057837e-12
18,139.9,1.692896e-12
19,143.16,6.055322e-12
20,147.17,1.899145e-11
21,150.94,2.824923e-11
22,155.17,4.172145e-11
23,158.489319,5.7846051182196056e-11
24,159.14999999999998,6.105551e-11
25,162.10999999999999,7.966458e-11
26,165.89,1.141975e-10
27,170.14000000000001,1.581434e-10
28,172.91,2.021192e-10
29,176.93,2.747923e-10
30,179.81,3.423908e-10
31,181.89000000000001,3.955781e-10
32,181.970086,3.980094542953772e-10
33,186.13000000000002,5.243015e-10
34,190.9,7.342802e-10
35,194.0,9.003108e-10
36,198.07000000000002,1.152657e-09
37,202.21,1.472702e-09
38,205.03,1.760559e-09
39,208.929613,2.1512029366572333e-09
40,209.79999999999998,2.238394e-09
41,216.17999999999998,3.235199e-09
42,220.20000000000002,4.011615e-09
43,222.75,4.611829e-09
44,226.89000000000001,5.665556e-09
45,230.04,8.867673e-09
46,233.78,1.535331e-08
47,239.78,2.367314e-08
48,239.88329199999998,2.3738444057626007e-08
49,245.93,2.756134e-08
50,252.24,3.608426e-08
51,256.93,3.594078e-08
52,259.9,4.561894e-08
53,264.13,5.413073e-08
54,269.04,6.290186e-08
55,274.04,7.242772e-08
56,275.42287,7.524952193015712e-08
57,279.13,8.281407e-08
58,284.32,9.53443e-08
59,290.28000000000003,1.064976e-07
60,295.67,1.25459e-07
61,301.17,1.385584e-07
62,308.19,1.653871e-07
63,316.227766,2.0043375127783922e-07
64,318.28000000000003,2.09382e-07
65,327.95,2.572475e-07
66,337.92,3.08874e-07
67,348.19000000000005,3.656913e-07
68,357.12,4.292418e-07
69,363.078055,4.815121547451964e-07
70,366.28000000000003,5.09603e-07
71,374.81,5.819382e-07
72,385.31,6.444265e-07
73,395.2,7.754564e-07
74,405.33,9.055943e-07
75,413.82,1.005887e-06
76,416.86938299999997,1.038119255887126e-06
77,421.51,1.087171e-06
78,430.34000000000003,1.179928e-06
79,441.37999999999994,1.358471e-06
80,450.62,1.501553e-06
81,460.06,1.614239e-06
82,469.68999999999994,1.78397e-06
83,478.630092,1.9832868072113816e-06
84,479.53000000000003,2.00335e-06
85,489.57,2.148383e-06
86,499.82,2.44569e-06
87,505.61,3.201989e-06
88,511.46,1.026737e-05
89,519.77,1.167017e-05
90,529.43,1.353528e-05
91,540.52,1.40476e-05
92,549.5408739999999,2.242686994674615e-05
93,550.57,2.33828e-05
94,559.52,3.064668e-05
95,569.92,3.816253e-05
96,580.51,3.871186e-05
97,589.9499999999999,5.397829e-05
98,599.53,6.146091e-05
99,610.68,8.011195e-05
100,620.6,9.727156e-05
101,630.68,0.0001143558
102,630.957344,0.00011457404572100235
103,639.46,0.0001212649
104,649.85,0.0001502925
105,657.37,0.0001720469
106,664.99,0.0001885025
107,674.24,0.0001989301
108,685.1899999999999,0.0002083542
109,694.72,0.0002931872
110,704.39,0.0002947311
111,715.8299999999999,0.0003744758
112,724.43596,0.00040508009721084326
113,725.7900000000001,0.0004098953
114,734.2,0.0004448002
115,744.41,0.0005350096
116,754.77,0.0006005144
117,765.27,0.0006693375
118,774.13,0.000763921
119,784.9000000000001,0.000861251
120,795.82,0.0009335911
121,805.0300000000001,0.001012751
122,814.3499999999999,0.001088478
123,825.6800000000001,0.001249577
124,831.763771,0.0011177055361755233
125,835.24,0.001042355
126,844.91,0.001406859
127,854.7,0.001497818
128,864.5899999999999,0.001673576
129,874.61,0.001861199
130,884.7299999999999,0.002108366
131,894.9799999999999,0.002296236
132,905.34,0.002344716
133,915.8199999999999,0.003936897
134,924.3,0.03115774
135,935.0,0.07187075
136,945.83,0.1440508
137,954.58,0.2142204
138,954.992586,0.21525722675109482
139,965.63,0.241989
140,974.57,0.03557078
141,985.85,0.2027445
142,994.98,0.22814
143,1004.18,0.3576289
144,1015.8100000000001,0.3549656
145,1025.21,0.1532422
146,1034.7,0.2469123
147,1044.27,0.5124989
148,1053.93,0.5126412
149,1066.14,0.3984936
150,1076.0,0.4948722
151,1085.96,0.3850715
152,1096.0,0.5414499
153,1096.4782,0.5408689034896552
154,1106.15,0.529118
155,1113.81,0.510532
156,1124.12,0.4623571
157,1134.52,0.6193065
158,1145.02,0.5646759
159,1155.61,0.6175435
160,1166.31,0.6479011
161,1174.39,0.4404421
162,1185.26,0.6466455
163,1196.22,0.4270256
164,1204.52,0.2976702
165,1215.6599999999999,0.2110957
166,1224.0900000000001,0.4547032
167,1235.41,0.7267569
168,1243.98,0.8139905
169,1255.49,0.7784403
170,1258.92541,0.7327918750065513
171,1264.19,0.662838
172,1275.89,0.893231
173,1284.73,0.9508327
174,1293.64,0.729836
175,1305.6100000000001,0.7306384
176,1314.66,0.9501277
177,1323.77,0.9137687
178,1336.02,0.7984087
179,1345.2800000000002,0.9890982
180,1354.6,0.9643623
181,1363.99,0.8554888
182,1373.45,0.914428
183,1386.1599999999999,0.9340967
184,1395.77,0.8133701
185,1405.44,0.8554192
186,1415.18,0.8770732
187,1424.9899999999998,0.913841
188,1434.8700000000001,0.9134345
189,1441.49,0.975461
190,1445.43977,0.9869131979891889
191,1448.15,0.9947714
192,1454.83,0.9688087
193,1464.92,0.8911913
194,1475.07,0.8967887
195,1485.29,0.9212735
196,1495.59,0.9463443
197,1505.96,0.8906161
198,1512.91,0.7872273
199,1516.3999999999999,0.8536953
200,1523.4,0.8292704
201,1533.95,0.7149631
202,1544.5900000000001,0.7976672
203,1555.29,0.7574328
204,1566.07,0.7759402
205,1573.3,0.8320269
206,1584.21,0.8822201
207,1595.19,0.8994891
208,1606.25,0.8899729
209,1613.66,0.9049383
210,1624.85,0.8569369
211,1636.1100000000001,0.9188582
212,1643.66,0.9363538
213,1655.06,0.8683335
214,1659.58691,0.9015889228469924
215,1666.53,0.952594
216,1670.37,0.8550206
217,1678.0800000000002,0.9508154
218,1685.8300000000002,1.000444
219,1693.6100000000001,0.9446961
220,1705.35,0.9044706
221,1713.22,0.8481085
222,1725.09,0.8462494
223,1733.06,0.9088834
224,1745.07,0.8881903
225,1753.12,0.951653
226,1765.28,0.8737843
227,1773.42,0.891942
228,1785.72,0.9145289
229,1793.96,0.977435
230,1806.3899999999999,0.9747377
231,1814.73,0.8886534
232,1823.11,0.9195239
233,1835.7499999999998,0.8815744
234,1844.22,0.8091676
235,1857.0,0.8010797
236,1865.57,0.8268171
237,1874.19,0.9143712
238,1882.8400000000001,0.8314023
239,1895.89,0.7876107
240,1904.6399999999999,0.8510517
241,1905.46072,0.8472342128891915
242,1913.43,0.810166
243,1926.69,0.7942898
244,1935.5900000000001,0.8366453
245,1944.5200000000002,0.859185
246,1953.5,0.7972812
247,1967.04,0.8807556
248,1976.1200000000001,0.910583
249,1985.24,0.8526584
250,1994.4,0.8283176
251,2003.6100000000001,0.8621682
252,2012.85,0.827878
253,2026.81,0.8769558
254,2036.1599999999999,0.8152589
255,2045.56,0.8464086
256,2055.0,0.810671
257,2064.49,0.8167186
258,2074.02,0.8695194
259,2078.8,0.8088651
260,2083.5899999999997,0.8461864
261,2093.21,0.7972836
262,2102.87,0.810486
263,2112.58,0.8162959
264,2127.22,0.8268793
265,2137.04,0.7735121
266,2146.9,0.7806609
267,2156.81,0.8136364
268,2166.77,0.7913359
269,2176.77,0.7821023
270,2186.8199999999997,0.7588254
271,2187.7616199999998,0.7619640835615462
272,2196.91,0.7924582
273,2207.05,0.7705284
274,2217.2400000000002,0.7388552
275,2227.47,0.7084296
276,2232.6099999999997,0.7509518
277,2242.91,0.717747
278,2253.27,0.6948847
279,2263.67,0.7175604
280,2274.12,0.735868
281,2284.61,0.7528993
282,2295.16,0.7172594
283,2305.75,0.7155188
284,2316.3900000000003,0.6863736
285,2327.09,0.545124
286,2332.4500000000003,0.6538189
287,2343.22,0.6477481
288,2354.03,0.6828677
289,2364.9,0.6460663
290,2375.81,0.6594895
291,2386.78,0.6297231
292,2392.2799999999997,0.6700476
293,2403.33,0.6427384
294,2414.42,0.6591289
295,2425.56,0.6837716
296,2436.76,0.6574065
297,2442.38,0.6947043
298,2453.65,0.6834878
299,2464.98,0.6849451
300,2476.35,0.6646377
301,2487.78,0.6942437
302,2493.52,0.6523586
303,2505.0299999999997,0.7118707
304,2510.8,0.6597289
305,2511.88643,0.6652544004188248
306,2516.59,0.6891764
307,2522.39,0.6581077
308,2534.0299999999997,0.6640777
309,2545.73,0.6503355
310,2557.4799999999996,0.684008
311,2563.38,0.6776769
312,2575.21,0.7111329
313,2587.1,0.707724
314,2593.06,0.7060246
315,2605.0299999999997,0.6866491
316,2617.05,0.6849512
317,2623.09,0.7008331
318,2635.19,0.7071869
319,2647.36,0.7437823
320,2653.46,0.7420007
321,2665.71,0.7035956
322,2678.01,0.7281803
323,2684.19,0.7230866
324,2696.58,0.7048567
325,2702.79,0.7145966
326,2715.27,0.6981881
327,2727.8,0.7012547
328,2734.09,0.729177
329,2746.71,0.6679404
330,2753.04,0.6725099
331,2765.75,0.6880137
332,2772.1200000000003,0.7121138
333,2784.92,0.705441
334,2797.77,0.6128555
335,2804.2200000000003,0.650596
336,2817.17,0.7181391
337,2823.66,0.7230518
338,2836.69,0.6935239
339,2843.23,0.6870928
340,2856.36,0.6885128
341,2862.94,0.7142772
342,2876.16,0.7042978
343,2882.79,0.7091079
344,2884.0315,0.7083337640751879
345,2896.09,0.7008147
346,2909.46,0.7286179
347,2929.6299999999997,0.7166981
348,2949.9399999999996,0.7098491
349,2970.38,0.7144963
350,2990.97,0.7142183
351,3011.71,0.7188814
352,3032.5800000000004,0.7202666
353,3046.58,0.7150975
354,3067.7,0.7115315
355,3088.96,0.7128756
356,3110.37,0.7060246
357,3131.93,0.7024769
358,3146.39,0.703901
359,3168.2,0.6987317
360,3190.1600000000003,0.6809447
361,3212.27,0.691701
362,3227.1,0.6835692
363,3249.47,0.6879763
364,3272.0,0.6892324
365,3287.1,0.6874113
366,3309.88,0.687074
367,3311.31121,0.688098411037238
368,3325.16,0.6980109
369,3332.83,0.6930804
370,3340.5099999999998,0.6679017
371,3348.2099999999996,0.6928423
372,3355.93,0.6707441
373,3363.66,0.6691061
374,3371.42,0.6507533
375,3379.19,0.6766145
376,3386.98,0.6986495
377,3394.79,0.6921188
378,3402.6099999999997,0.682507
379,3410.46,0.6607479
380,3418.32,0.6791399
381,3426.2,0.6884536
382,3434.1,0.6867494
383,3442.0099999999998,0.6771966
384,3449.95,0.6755122
385,3457.8999999999996,0.655342
386,3465.87,0.6564253
387,3473.8599999999997,0.6682016
388,3481.8700000000003,0.6616323
389,3489.9,0.6750509
390,3497.94,0.6715099
391,3506.0099999999998,0.6588063
392,3514.09,0.6538387
393,3522.19,0.66708
394,3530.31,0.6620517
395,3538.4500000000003,0.6692629
396,3546.6,0.6734527
397,3554.78,0.677655
398,3562.97,0.677217
399,3568.73,0.4791025
400,3571.4,0.3949482
401,3574.0699999999997,0.6414594
402,3576.74,0.9525124
403,3579.3999999999996,0.6525991
404,3582.07,0.1648523
405,3584.7400000000002,-0.007367913
406,3587.41,0.4141979
407,3590.07,0.3726736
408,3592.74,1.187169
409,3595.41,1.185405
410,3598.0800000000004,0.7987892
411,3600.75,0.2357143
412,3603.4100000000003,0.1420562
413,3606.08,0.3857937
414,3608.75,0.5518171
415,3611.42,0.9684582
416,3614.08,0.1830034
417,3616.7500000000005,0.3177256
418,3619.42,0.1865006
419,3622.09,0.3228129
420,3624.76,0.469265
421,3627.42,-0.0955481
422,3630.09,0.5703071
423,3632.7599999999998,0.2427458
424,3635.43,-0.03744147
425,3638.09,-0.1967573
426,3640.76,0.7738714
427,3643.43,1.179115
428,3646.1,0.5514561
429,3648.7599999999998,0.3428261
430,3651.43,0.2457712
431,3654.1,0.5894776
432,3656.7699999999995,0.9659151
433,3659.44,0.8235479
434,3662.1,0.6815852
435,3664.77,0.283431
436,3667.44,1.060065
437,3670.1099999999997,0.9528337
438,3672.77,0.5029011
439,3675.4399999999996,0.7097497
440,3678.11,0.9430398
441,3680.78,1.041635
442,3683.45,0.2533022
443,3686.11,0.6834882
444,3688.7799999999997,0.5612529
445,3691.45,0.4238338
446,3694.1200000000003,0.7500514
447,3696.78,0.9338674
448,3699.4500000000003,0.3923044
449,3702.12,0.5533599
450,3704.79,0.4923624
451,3707.46,0.4539808
452,3710.12,0.575396
453,3712.7900000000004,0.7557022
454,3715.46,0.8936004
455,3718.13,0.4146787
456,3720.79,0.7283198
457,3723.46,1.174669
458,3726.13,1.325448
459,3728.7999999999997,1.939582
460,3731.4700000000003,1.691646
461,3734.13,1.453594
462,3736.8,0.8345274
463,3739.47,0.6039199
464,3742.14,0.6603288
465,3744.7999999999997,0.7026589
466,3747.47,0.9220272
467,3750.1400000000003,0.9155957
468,3752.81,0.6801406
469,3755.4700000000003,0.5161021
470,3758.14,0.8825849
471,3760.81,0.9749507
472,3763.48,0.8559204
473,3766.1499999999996,0.905358
474,3768.8100000000004,0.6226314
475,3771.48,0.426739
476,3774.15,0.7233501
477,3776.82,0.8824419
478,3779.48,0.603962
479,3782.15,0.8410587
480,3784.8199999999997,0.9770939
481,3787.4900000000002,0.8263532
482,3790.1600000000003,0.6727083
483,3792.82,0.197222
484,3795.4900000000002,0.6776381
485,3798.16,1.00626
486,3800.83,0.4950464
487,3801.8939600000003,0.44883937717140837
488,3803.49,0.3795245
489,3806.1600000000003,0.8706656
490,3808.8300000000004,0.970904
491,3811.5,1.027693
492,3814.17,1.075388
493,3816.83,0.9080456
494,3819.5,1.045022
495,3822.1699999999996,1.17627
496,3824.8399999999997,0.5158394
497,3827.5,0.7173424
498,3830.17,0.6819252
499,3832.84,0.7973679
500,3835.5099999999998,0.6360106
501,3838.18,0.5634947
502,3840.8399999999997,0.8128138
503,3843.5099999999998,0.984526
504,3846.1800000000003,0.370529
505,3848.85,0.7128923
506,3851.51,1.109266
507,3854.18,1.264672
508,3856.85,1.050911
509,3859.52,0.7585452
510,3862.18,1.01698
511,3864.8500000000004,0.8375731
512,3867.52,1.264892
513,3870.19,1.210324
514,3872.86,1.135704
515,3875.52,1.168601
516,3878.19,0.7935226
517,3880.8599999999997,1.177572
518,3883.53,1.077892
519,3886.19,1.083726
520,3888.86,0.7310835
521,3891.53,0.3134184
522,3894.2,0.2732543
523,3896.87,1.080195
524,3899.5299999999997,0.9362105
525,3902.2000000000003,1.013212
526,3904.87,0.4766578
527,3907.54,0.8354072
528,3910.2,0.8976896
529,3912.87,1.321082
530,3915.54,1.176411
531,3918.2099999999996,1.133742
532,3920.88,1.065893
533,3923.54,0.9721276
534,3926.21,1.217857
535,3928.88,1.346941
536,3931.5499999999997,0.6939423
537,3934.21,0.4688266
538,3936.8799999999997,1.077134
539,3939.55,0.5240132
540,3942.2200000000003,0.7013344
541,3944.89,0.8014926
542,3947.55,0.7741123
543,3950.22,1.203635
544,3952.89,1.098907
545,3955.5600000000004,1.172242
546,3958.2200000000003,0.8179224
547,3960.8900000000003,1.165094
548,3963.56,1.136367
549,3966.23,0.7806004
550,3968.9,0.8725054
551,3971.56,0.4295637
552,3974.2300000000005,0.6447855
553,3976.9,0.6628335
554,3979.57,0.5612714
555,3982.23,1.09284
556,3984.9,1.037571
557,3987.5699999999997,0.8067225
558,3990.24,0.8977863
559,3992.8999999999996,1.16786
560,3995.57,1.090916
561,3998.2400000000002,1.715027
562,4000.91,1.029797
563,4003.58,0.9881492
564,4006.24,0.9911778
565,4008.91,1.109004
566,4011.58,0.9916163
567,4014.2499999999995,1.39149
568,4016.9100000000003,1.288191
569,4019.58,1.078116
570,4022.25,1.309302
571,4024.92,1.374063
572,4027.5899999999997,1.090291
573,4030.25,0.9428008
574,4032.9199999999996,1.03709
575,4035.59,1.30858
576,4038.26,1.12054
577,4040.92,1.085188
578,4043.59,1.251191
579,4046.2599999999998,1.165814
580,4048.93,1.106839
581,4051.6000000000004,1.04578
582,4054.26,0.6974501
583,4056.9300000000003,0.785269
584,4059.6,1.169439
585,4062.27,1.22132
586,4064.93,1.247566
587,4067.6,1.53336
588,4070.2700000000004,1.022987
589,4072.94,0.9137518
590,4075.6,0.8126542
591,4078.27,1.127695
592,4080.94,1.280637
593,4083.6099999999997,1.045121
594,4086.2799999999997,1.023325
595,4088.9399999999996,1.245323
596,4091.61,1.03713
597,4094.28,1.031039
598,4096.95,1.116374
599,4099.610000000001,1.094143
600,4102.28,0.9616304
601,4104.95,0.8763937
602,4107.62,0.7405568
603,4110.29,0.6821834
604,4112.95,0.8841675
605,4115.62,0.922187
606,4118.29,1.096223
607,4120.96,1.289629
608,4123.62,1.237631
609,4126.29,0.9667985
610,4128.96,0.9845255
611,4131.63,1.012028
612,4134.3,1.262345
613,4136.96,1.236468
614,4139.63,1.120983
615,4142.3,0.824711
616,4144.97,1.101109
617,4147.63,1.024111
618,4150.3,1.168499
619,4152.97,1.298485
620,4155.64,1.179795
621,4158.31,1.035444
622,4160.97,0.9430809
623,4163.64,1.048928
624,4166.3099999999995,1.180276
625,4168.98,1.147423
626,4171.639999999999,0.8907581
627,4174.31,0.8841868
628,4176.9800000000005,0.9149347
629,4179.65,1.012389
630,4182.31,1.059007
631,4184.98,1.288651
632,4187.65,1.176812
633,4190.32,0.9005513
634,4192.99,0.847486
635,4195.650000000001,0.9173003
636,4198.32,0.9930399
637,4200.99,1.137769
638,4203.66,1.141353
639,4206.32,1.057324
640,4208.99,1.115475
641,4211.66,1.118399
642,4214.33,1.140392
643,4217.0,1.210162
644,4219.66,1.092719
645,4222.33,1.013432
646,4225.0,1.059705
647,4227.67,1.199125
648,4230.33,1.073189
649,4233.0,0.9252523
650,4235.67,0.9968653
651,4238.34,1.057941
652,4241.01,1.068237
653,4243.67,1.021626
654,4246.34,1.048348
655,4249.009999999999,0.7151369
656,4251.68,0.8697215
657,4254.34,0.8857904
658,4257.01,1.16267
659,4259.68,0.9372302
660,4262.349999999999,1.133982
661,4265.0199999999995,1.175447
662,4267.679999999999,1.418958
663,4270.35,1.095262
664,4273.02,1.130898
665,4275.69,1.075488
666,4278.35,0.9412185
667,4281.0199999999995,0.9726675
668,4283.69,0.8027564
669,4286.360000000001,1.001271
670,4289.02,1.219682
671,4291.6900000000005,0.8280378
672,4294.36,0.9558803
673,4297.03,0.939954
674,4299.7,1.033802
675,4302.36,0.9747719
676,4305.030000000001,1.07489
677,4307.7,0.821506
678,4310.37,0.7831643
679,4313.03,0.8550618
680,4315.7,0.991017
681,4318.37,1.103335
682,4321.04,1.083442
683,4323.71,0.996062
684,4326.37,0.9588463
685,4329.04,0.99947
686,4331.71,0.9050789
687,4334.38,0.9167965
688,4337.04,0.8065642
689,4339.71,0.9015546
690,4342.38,1.022326
691,4345.05,0.8736484
692,4347.72,0.785828
693,4350.38,0.7051825
694,4353.05,1.229636
695,4355.72,0.9728464
696,4358.389999999999,1.144719
697,4361.05,1.364593
698,4363.72,1.126833
699,4365.15832,0.999206125869729
700,4366.39,0.8899151
701,4369.06,0.7535575
702,4371.73,0.9400929
703,4374.39,1.089774
704,4377.0599999999995,1.104256
705,4379.73,1.133121
706,4382.400000000001,0.8013931
707,4385.06,1.090456
708,4387.7300000000005,0.925232
709,4390.4,0.9192617
710,4393.07,0.8997898
711,4395.73,0.9535585
712,4398.4,1.201292
713,4401.070000000001,1.16974
714,4403.74,1.010326
715,4406.41,0.8383916
716,4409.07,1.388811
717,4411.74,1.152954
718,4414.41,0.9905748
719,4417.08,0.9533147
720,4419.74,1.1683
721,4422.41,1.362628
722,4425.08,1.105939
723,4427.75,1.004977
724,4430.42,1.286844
725,4433.08,0.8132946
726,4435.75,1.019021
727,4438.42,1.009345
728,4441.09,1.043077
729,4443.75,1.269261
730,4446.42,0.8215473
731,4449.09,1.250869
732,4451.76,0.8761725
733,4454.429999999999,0.9204618
734,4457.09,1.098969
735,4459.76,1.116977
736,4462.43,1.00626
737,4465.1,1.153232
738,4467.76,1.085328
739,4470.43,1.014073
740,4473.099999999999,0.8725074
741,4475.77,0.9857665
742,4478.4400000000005,0.5548812
743,4481.1,1.280017
744,4483.77,0.8005132
745,4486.44,1.151791
746,4489.11,1.103854
747,4491.7699999999995,1.265795
748,4494.4400000000005,1.086709
749,4497.110000000001,0.9352671
750,4499.78,1.299285
751,4502.44,1.006483
752,4505.11,1.026414
753,4507.78,1.135887
754,4510.45,1.076491
755,4513.12,1.10786
756,4515.78,1.062471
757,4518.45,1.198787
758,4521.12,1.197524
759,4523.79,1.108962
760,4526.45,0.9265954
761,4529.12,0.9165585
762,4531.79,1.027194
763,4534.46,1.116174
764,4537.13,0.6895153
765,4539.79,1.067539
766,4542.46,1.169601
767,4545.13,1.101031
768,4547.8,0.9657344
769,4550.46,1.278235
770,4553.13,1.046986
771,4555.8,0.7871919
772,4558.47,1.071122
773,4561.14,1.114751
774,4563.8,1.232362
775,4566.47,1.091116
776,4569.139999999999,1.254855
777,4571.81,1.268876
778,4574.47,1.031122
779,4577.14,0.9360693
780,4579.81,1.151611
781,4582.48,1.163429
782,4585.15,1.036787
783,4587.8099999999995,1.064054
784,4590.4800000000005,1.000551
785,4593.15,0.9822815
786,4595.82,0.9634707
787,4598.48,1.193039
788,4601.15,1.113992
789,4603.82,1.284182
790,4606.49,1.215151
791,4609.150000000001,1.141738
792,4611.82,0.9449639
793,4614.49,1.147465
794,4617.16,1.215913
795,4619.83,1.22104
796,4622.49,1.16834
797,4625.16,1.185105
798,4627.83,1.128033
799,4630.5,1.215051
800,4633.16,1.152295
801,4635.83,1.163612
802,4638.5,0.9732879
803,4641.17,1.194398
804,4643.84,1.073786
805,4646.5,1.159666
806,4649.17,1.109144
807,4651.84,0.9815406
808,4654.51,1.249646
809,4657.17,1.26225
810,4659.84,1.186148
811,4662.51,0.963312
812,4665.18,0.9389121
