,lambda (Angstroms),Total Flux (erg/s/cm^2/Angstrom)
0,100.1,4.348507044183619
1,101.96000000000001,4.336412641834967
2,104.10000000000001,4.322496175298881
3,104.712855,4.318511121075823
4,106.03,4.273512833385721
5,108.01,4.205870103556257
6,110.01,4.137549484720335
7,113.88000000000001,4.005340761845474
8,117.88,3.8686905788436303
9,120.22644299999999,3.7886256186830525
10,120.91,3.7690754919668077
11,124.87,3.6556764807539466
12,126.9,3.5975407031132627
13,128.07,3.564037066561736
14,131.05,3.4786942143202384
15,131.96,3.452667553046829
16,134.10999999999999,3.3910942098239376
17,136.91,3.3109541367057527
18,138.038426,3.278639007514108
19,140.1,3.2364434613887245
20,143.04000000000002,3.1768237826515993
21,147.04,3.096127290424901
22,151.16,3.011844657582401
23,155.04,2.9325099673715025
24,158.489319,2.8619883202069767
25,159.01999999999998,2.8537894246236433
26,161.98000000000002,2.8080523576700083
27,166.13,2.743959401299203
28,170.0,2.684150525261849
29,173.16000000000003,2.6353280147843194
30,177.19,2.573049189127851
31,180.07,2.528538955983773
32,181.970086,2.4991790200526016
33,182.16,2.496941467003619
34,185.97,2.4520511082695546
35,191.18,2.3906469636935763
36,193.83999999999997,2.359335781293941
37,197.89999999999998,2.3114789790523917
38,202.05,2.2625783606281478
39,204.86,2.2294712909240215
40,208.929613,2.181380892189958
41,210.10999999999999,2.170891800803613
42,216.0,2.1188872324299037
43,220.01,2.0833963303673277
44,223.07,2.0562575369779306
45,227.22,2.0195369346687806
46,229.85,1.9982822400367173
47,234.13,1.964358685498606
48,239.88329199999998,1.9152912163362132
49,240.13,1.9136895801001559
50,245.72,1.8745074708811054
51,252.03,1.831714130206292
52,256.71,1.7976260477438315
53,260.28,1.7745548447756725
54,263.91,1.7500852911861995
55,268.81,1.7163251671122557
56,273.81,1.6818349086694557
57,275.42287,1.6707206888740835
58,278.90000000000003,1.6522919201253181
59,284.09,1.6248448118063512
60,290.03000000000003,1.592927880759209
61,296.10999999999996,1.5609358305628083
62,300.92,1.5353486825061156
63,307.93,1.4983912762467781
64,316.227766,1.4546660284538993
65,318.02,1.447603534821242
66,327.68,1.409351054233683
67,337.64000000000004,1.3698971341620385
68,347.90000000000003,1.3292489726063086
69,356.82,1.2939806915461611
70,363.078055,1.2692730267503796
71,365.96999999999997,1.2607030844714462
72,375.36,1.2328248265465964
73,384.99,1.2040222623009835
74,394.86,1.1749448217346081
75,404.99,1.1449735645707393
76,414.43,1.1169800149540638
77,416.86938299999997,1.1097386848045248
78,422.13,1.0977739100090107
79,429.98,1.0799466022465471
80,441.01,1.054983467172665
81,451.28000000000003,1.0316989488210082
82,459.67,1.0126651265717
83,470.38000000000005,0.988436911749281
84,478.630092,0.969793102505395
85,480.23,0.9670061471742456
86,490.28000000000003,0.9494302644336144
87,500.55,0.9315999677663226
88,506.35,0.9214553915179982
89,512.21,0.9113935586533116
90,520.53,0.8969143415177843
91,530.21,0.8800247787447185
92,540.07,0.8628018881225668
93,549.5408739999999,0.846324500712036
94,550.11,0.8455671488839365
95,560.34,0.8320524898989741
96,569.44,0.8200034675193887
97,580.03,0.8059168013150143
98,589.4499999999999,0.7934314060737293
99,600.41,0.7788434950605143
100,610.1700000000001,0.7656391877786732
101,620.08,0.7528222536554106
102,630.1600000000001,0.7394384855118699
103,630.957344,0.738384782834779
104,640.4,0.7284813965903195
105,649.3000000000001,0.7191021276970667
106,658.34,0.7095750298189762
107,664.4300000000001,0.703211827978537
108,675.22,0.6918891147899757
109,684.62,0.6819548860937312
110,695.74,0.6703408801551952
111,705.42,0.6601139284892754
112,715.23,0.6498852211945777
113,724.43596,0.6402250323929906
114,725.18,0.6396442966102517
115,735.27,0.6317843259632928
116,745.5,0.6238006816700927
117,754.13,0.6170580761910784
118,764.62,0.6087702298405733
119,775.26,0.600600889726238
120,784.2399999999999,0.5935746451316207
121,795.15,0.5851056628423916
122,804.3599999999999,0.5779395195432351
123,815.5500000000001,0.5692376629615234
124,824.99,0.5618951049578276
125,831.763771,0.5565656733737306
126,834.54,0.5549242521985339
127,844.2099999999999,0.5493670096157363
128,855.95,0.5425326158616465
129,865.86,0.5367731474763802
130,875.89,0.5309446876898795
131,883.99,0.5262280441065638
132,894.23,0.520276191867903
133,904.5799999999999,0.5142504340114442
134,915.0600000000001,0.5083729609703148
135,925.65,0.5035476723113873
136,934.22,0.5001711489065707
137,945.0400000000001,0.4960426152286107
138,954.992586,0.49181744855264686
139,955.98,0.4914106068829541
140,964.8199999999999,0.48720309675478546
141,976.0000000000001,0.4749454771809248
142,985.03,0.474509381563576
143,994.14,0.4694210598455197
144,1005.65,0.4653714711062411
145,1014.96,0.4597097931364163
146,1024.35,0.4495125290658841
147,1033.83,0.4466846301320561
148,1045.8,0.4446602693137099
149,1055.48,0.4388470551281133
150,1065.24,0.43112562784180924
151,1075.1,0.42692089492962115
152,1085.05,0.41909937215413695
153,1095.09,0.41583166251535714
154,1096.4782,0.41497611903474685
155,1105.22,0.41048580368543175
156,1115.45,0.4053300111951778
157,1125.77,0.39948485214635865
158,1136.18,0.39663838353897407
159,1144.06,0.3920178739668138
160,1154.6399999999999,0.3875235976376949
161,1165.33,0.3827160909592184
162,1176.11,0.37458430372217666
163,1184.26,0.37340333447432034
164,1195.22,0.365600897120148
165,1206.28,0.35871974481201424
166,1214.64,0.35297015826083894
167,1225.88,0.3510438468355746
168,1234.38,0.3499541607488534
169,1245.8,0.3454069772064585
170,1254.44,0.3409365615841913
171,1258.92541,0.3383792187379083
172,1266.04,0.33526994139597627
173,1274.8200000000002,0.3344751438064762
174,1283.66,0.33192213896237827
175,1295.53,0.32580113876108385
176,1304.5100000000002,0.3226821219895906
177,1313.56,0.32159309375439993
178,1325.71,0.31704965469831503
179,1334.8999999999999,0.3128976095357291
180,1344.15,0.31130400911854506
181,1353.47,0.3078254442376635
182,1365.99,0.30264379344489134
183,1375.46,0.29982686042751483
184,1385.0000000000002,0.29667366094644076
185,1394.6,0.2920889942107689
186,1404.26,0.28905359022049887
187,1414.0,0.28628203555743165
188,1423.8,0.28312695463976656
189,1433.6699999999998,0.27980179825840384
190,1443.61,0.27690086441334344
191,1445.43977,0.2763445066298369
192,1446.9299999999998,0.27604013393374005
193,1453.61,0.2741956538496521
194,1463.69,0.27119275727366304
195,1473.83,0.268794431247817
196,1484.0500000000002,0.26651536162216144
197,1494.3400000000001,0.2642008924716727
198,1504.6899999999998,0.26134781587132694
199,1511.6399999999999,0.25892067576288214
200,1518.62,0.25772922142950877
201,1525.63,0.25588225887120686
202,1536.2,0.25248347862138504
203,1543.29,0.25122249546327374
204,1553.99,0.24839439823876167
205,1564.76,0.24607930048941629
206,1575.6100000000001,0.2439780221402614
207,1586.53,0.24171130826627335
208,1593.85,0.24014342538370992
209,1604.8999999999999,0.23738796853503155
210,1616.03,0.23478627608654365
211,1623.49,0.2326879131543137
212,1634.74,0.23046979580611168
213,1646.07,0.22792360085810026
214,1653.6699999999998,0.22562969687620385
215,1659.58691,0.22454372708100892
216,1665.1299999999999,0.22390952508763715
217,1672.82,0.22187891163501083
218,1676.67,0.2222519304890275
219,1684.41,0.22121404383970006
220,1696.0900000000001,0.21883904549032737
221,1703.9199999999998,0.21734182228693805
222,1715.73,0.21520872302614252
223,1723.6499999999999,0.2139130642686912
224,1735.59,0.21247350409647286
225,1743.61,0.21099400194561937
226,1755.69,0.209624729022638
227,1763.8000000000002,0.20755276631772257
228,1776.0200000000002,0.2058567246439782
229,1784.22,0.20468367638500082
230,1796.5900000000001,0.20345533312115321
231,1804.88,0.20183834630811387
232,1813.21,0.19998218813771365
233,1825.78,0.19808834208706175
234,1834.21,0.19643744052325937
235,1846.9199999999998,0.19359681172184443
236,1855.4499999999998,0.1926637297646399
237,1864.0100000000002,0.19182501828941464
238,1876.93,0.19001637486185516
239,1885.5900000000001,0.18821896599322782
240,1894.3,0.18698224192789942
241,1903.04,0.18570910034455035
242,1905.46072,0.18530514327454212
243,1916.2299999999998,0.18397295898960378
244,1925.0800000000002,0.18240423979358056
245,1933.96,0.18061611525452007
246,1942.8899999999999,0.1813009141437306
247,1956.3600000000001,0.17945073311995297
248,1965.3899999999999,0.1793925388657056
249,1974.46,0.17805879115407508
250,1983.5700000000002,0.17723987998506138
251,1992.73,0.17609455524431877
252,2006.54,0.1742406383327843
253,2015.8000000000002,0.1731049484485838
254,2025.11,0.1715466099926544
255,2034.4599999999998,0.1712340690793418
256,2043.8500000000001,0.170774690708646
257,2053.28,0.1690872358805671
258,2062.7599999999998,0.16776191448075925
259,2072.2799999999997,0.16769617062356823
260,2077.06,0.17062747696628114
261,2086.64,0.17131781542301538
262,2096.28,0.16904042919367485
263,2105.95,0.16717607062129702
264,2115.67,0.16703659147719022
265,2125.44,0.1648073417613545
266,2135.25,0.16254256558813557
267,2145.1,0.16378302295753355
268,2155.0099999999998,0.16284449564085676
269,2164.95,0.16006858598114262
270,2174.95,0.15909721163535373
271,2184.98,0.15991827494652747
272,2187.7616199999998,0.159667429785115
273,2195.07,0.15928827705199458
274,2205.2,0.15780850172145894
275,2215.38,0.15422379083647839
276,2225.61,0.15436541439705298
277,2235.88,0.15694392351407163
278,2246.2,0.15519212707664543
279,2256.57,0.1512940950847743
280,2266.98,0.15011822864934724
281,2277.45,0.15051833554858635
282,2282.7,0.1530794323318724
283,2293.23,0.14992033256577758
284,2303.82,0.1512671461343489
285,2314.4500000000003,0.1483342552593643
286,2325.14,0.1440863077190459
287,2335.87,0.14266083573517152
288,2346.65,0.13920672119685223
289,2357.48,0.14345033510408808
290,2362.92,0.13838660178048356
291,2373.82,0.13950051991149656
292,2384.7799999999997,0.13517549837717568
293,2395.79,0.13566068528840988
294,2406.85,0.1346214676451992
295,2412.39,0.1354514912127049
296,2423.53,0.13962244768238238
297,2434.72,0.138682324597615
298,2445.9500000000003,0.14006369706929164
299,2457.24,0.13992315287563448
300,2462.9100000000003,0.1376223930015834
301,2474.28,0.1351209399208144
302,2485.7000000000003,0.13069577128560048
303,2497.17,0.1307101670959417
304,2502.93,0.13562546722388985
305,2511.88643,0.1284031571020551
306,2514.48,0.12636471181711623
307,2520.2799999999997,0.12472745838095371
308,2526.0899999999997,0.12492505604921157
309,2537.7499999999995,0.12725687280340894
310,2543.6,0.12755141888934843
311,2555.3399999999997,0.13335761347890912
312,2567.13,0.12872391359057178
313,2573.05,0.13148531140745412
314,2584.93,0.12910629945890054
315,2596.8599999999997,0.126921273032449
316,2602.84,0.12487474947585378
317,2614.86,0.1230412709891859
318,2626.9300000000003,0.12604220802462004
319,2632.9799999999996,0.13390149619896777
320,2645.1400000000003,0.1410484111741856
321,2657.35,0.1493179816715055
322,2663.47,0.13559119157679608
323,2675.77,0.1385964500138996
324,2681.94,0.14165184544129225
325,2694.32,0.1332131587137591
326,2706.75,0.137666137508328
327,2712.9900000000002,0.12963671466666346
328,2725.5099999999998,0.12600048140101608
329,2738.09,0.12930911676189108
330,2744.41,0.11816457875558985
331,2757.0699999999997,0.12164397895182817
332,2763.43,0.12612028336320857
333,2776.18,0.12736846149923056
334,2782.58,0.11766551832829257
335,2795.43,0.10857722450851869
336,2801.8700000000003,0.10960678075526231
337,2814.81,0.12245404387527212
338,2827.7999999999997,0.13155710651738395
339,2834.32,0.13020549059949085
340,2847.4,0.12368766118138638
341,2853.96,0.11416844768117496
342,2867.1400000000003,0.13001740930727454
343,2873.75,0.13663231132916517
344,2884.0315,0.13313701728908447
345,2887.0099999999998,0.1321766739740904
346,2893.6600000000003,0.13705274211351975
347,2907.02,0.14923292908235836
348,2927.17,0.14198729246724584
349,2947.46,0.13839863412875292
350,2967.8900000000003,0.14046605406687956
351,2988.47,0.1400834007299558
352,3009.1800000000003,0.14060672722132156
353,3030.04,0.14140315043763685
354,3051.04,0.14249430193057178
355,3072.19,0.14468536014845618
356,3093.49,0.14370248509129013
357,3107.7700000000004,0.14862650930648583
358,3129.31,0.14429728700923905
359,3151.0,0.14302370143694176
360,3172.84,0.14645572258959405
361,3187.4900000000002,0.13796125939299864
362,3209.5800000000004,0.1430437017539001
363,3231.83,0.13287110928808113
364,3246.75,0.14901209419639488
365,3269.25,0.1578660129388251
366,3291.9100000000003,0.15518607685453484
367,3307.1099999999997,0.15170619831608773
368,3311.31121,0.1510925386805137
369,3322.37,0.1496131886311287
370,3330.0299999999997,0.15519486691432416
371,3337.71,0.1521140380128804
372,3345.4,0.15149989051911705
373,3353.11,0.14578221584071455
374,3360.84,0.15410087397767286
375,3368.59,0.152762794929992
376,3376.36,0.13777016869767197
377,3384.14,0.14040479387303234
378,3391.94,0.15299985186375353
379,3399.76,0.15655211266983554
380,3407.6,0.1501658162912784
381,3415.45,0.14903056132040166
382,3423.33,0.15991640057256615
383,3431.22,0.15674206123241105
384,3439.13,0.15533035470761677
385,3447.06,0.13506111099818333
386,3454.9999999999995,0.14866578869643032
387,3462.9700000000003,0.1393291606177185
388,3470.95,0.1475863839466871
389,3478.9500000000003,0.13354937009101653
390,3486.97,0.1436841390507068
391,3495.01,0.13837243082575784
392,3503.0699999999997,0.15492512541616976
393,3511.14,0.1516504214142621
394,3519.2400000000002,0.15081565163539562
395,3527.3500000000004,0.13473234326420958
396,3535.4799999999996,0.1486187777083844
397,3543.6299999999997,0.15854946496792
398,3551.8,0.15705554504281644
399,3559.9900000000002,0.15250421793307367
400,3568.19,0.13797911223101134
401,3576.42,0.13816160075199024
402,3584.66,0.12515209068064956
403,3592.93,0.13319754483235013
404,3601.21,0.15808046039173107
405,3609.51,0.14202733876647286
406,3617.8300000000004,0.14766413995657546
407,3626.17,0.15338505396203891
408,3634.53,0.13932698078286315
409,3642.91,0.16310543041904826
410,3651.31,0.14241915287059415
411,3659.7200000000003,0.16787273672982045
412,3668.16,0.16393497481208802
413,3676.62,0.1684023157097164
414,3685.0899999999997,0.15302478801502517
415,3693.59,0.1608039745433752
416,3702.1,0.16721840247940564
417,3710.64,0.1382989546384773
418,3719.19,0.16940300820522938
419,3727.7599999999998,0.1499127945873423
420,3736.36,0.12597376519249642
421,3744.9700000000003,0.15593600720533096
422,3753.6000000000004,0.12346210203352634
423,3762.26,0.14039211108476296
424,3770.9300000000003,0.14238668154368
425,3779.6200000000003,0.15981419481795783
426,3788.33,0.1721587409075965
427,3797.07,0.1453122112202764
428,3801.8939600000003,0.1516929605399283
429,3805.8199999999997,0.15692001270909717
430,3814.59,0.16640768603020972
431,3823.39,0.141422353376366
432,3832.2000000000003,0.12784292873087016
433,3841.04,0.11883145811041804
434,3849.8900000000003,0.15334444549831383
435,3858.7599999999998,0.15164505890290544
436,3867.66,0.15778820633254076
437,3876.58,0.14518641977887187
438,3885.5099999999998,0.14474851123355092
439,3894.47,0.13824976671327366
440,3896.21,0.1638071101658091
441,3897.9799999999996,0.15460406764338827
442,3899.75,0.16144806512096743
443,3901.53,0.15380225060689448
444,3903.3,0.13946133808447364
445,3905.0699999999997,0.1556785655620528
446,3906.85,0.15730597104797986
447,3908.62,0.15720979852555902
448,3910.3900000000003,0.16647100600313816
449,3912.1699999999996,0.17962297148906525
450,3913.94,0.16162724896664438
451,3915.72,0.16125781445257145
452,3917.4900000000002,0.16182389193015062
453,3919.2599999999998,0.15985354940772978
454,3921.04,0.14450841489365684
455,3922.81,0.14984316237123602
456,3924.58,0.14173864984881515
457,3926.3599999999997,0.13058993533474222
458,3928.13,0.11910780281232138
459,3929.91,0.10737907829824844
460,3931.6800000000003,0.10374333577582759
461,3933.45,0.10065661325340676
462,3935.23,0.10845471873933382
463,3937.0,0.11605281621691296
464,3938.77,0.12294282369449214
465,3940.5499999999997,0.1278739991804192
466,3942.32,0.13213548665799835
467,3944.09,0.1447876541355775
468,3945.8700000000003,0.15007766962150457
469,3947.64,0.15628252709908375
470,3949.42,0.15866244258501078
471,3951.19,0.16165088006258996
472,3952.9599999999996,0.1674681575401691
473,3954.74,0.16375442302609616
474,3956.5099999999998,0.15671555050367533
475,3958.28,0.1494456379812545
476,3960.0600000000004,0.14002382346718154
477,3961.83,0.1345813009447607
478,3963.61,0.12653783643068778
479,3965.38,0.11227638390826694
480,3967.1499999999996,0.1030300013858461
481,3968.93,0.11010152687177316
482,3970.7,0.12542800434935233
483,3972.4700000000003,0.13840831182693147
484,3974.2499999999995,0.13801628731285856
485,3976.02,0.1450753547904377
486,3977.79,0.16372828226801686
487,3979.57,0.17189084775394392
488,3981.3399999999997,0.17636782523152308
489,3983.12,0.17981799071745014
490,3984.89,0.1816668681950293
491,3986.6600000000003,0.18002304567260843
492,3988.4399999999996,0.17835541115853554
493,3990.21,0.18673878863611465
494,3991.98,0.18897066611369384
495,3993.76,0.18217943159962088
496,3995.5299999999997,0.18376700907720006
497,3997.31,0.1867833745631271
498,3999.08,0.19517445204070627
499,4000.8500000000004,0.19723952951828544
500,4002.6299999999997,0.19330229500421253
501,4004.4,0.18848117248179166
502,4006.17,0.18480974995937083
503,4007.9500000000003,0.19006111544529788
504,4009.72,0.19632509292287703
505,4011.49,0.1984587704004562
506,4013.27,0.20158553588638325
507,4015.0400000000004,0.20677681336396242
508,4016.8199999999997,0.2081728788498895
509,4018.59,0.20182715632746862
510,4020.36,0.2025286338050478
511,4022.1400000000003,0.21127629929097486
512,4023.91,0.20659897676855404
513,4025.68,0.2058066542461332
514,4027.46,0.19858991973206022
515,4029.2299999999996,0.1951154972096394
516,4031.0099999999998,0.19744916269556645
517,4032.78,0.19006654017314562
518,4034.55,0.19301891765072476
519,4036.3300000000004,0.20540348313665183
520,4038.1,0.200091460614231
521,4039.87,0.20989493809181015
522,4041.65,0.1951316035777372
523,4043.4199999999996,0.19404228105531637
524,4045.19,0.18899525853289553
525,4046.97,0.1910074240188226
526,4048.7400000000002,0.20017430149640175
527,4050.5200000000004,0.2015268669823288
528,4052.29,0.20587104445990795
529,4054.06,0.20069572193748714
530,4055.84,0.1959114874234142
531,4057.6099999999997,0.19273546490099336
532,4059.38,0.1924386423785725
533,4061.16,0.19129450786449959
534,4062.9300000000003,0.18086778534207873
535,4064.7100000000005,0.18782845082800578
536,4066.48,0.19281942830558496
537,4068.25,0.1972323057831641
538,4070.03,0.20225577126909117
539,4071.7999999999997,0.18683694874667034
540,4073.57,0.19169642622424948
541,4075.35,0.19098099171017657
542,4077.1200000000003,0.18955216918775572
543,4078.8999999999996,0.19462963467368277
544,4080.67,0.19980281215126194
545,4082.44,0.2071364896288411
546,4084.2200000000003,0.19550255511476816
547,4085.99,0.20546953259234732
548,4087.7599999999998,0.2089438100699265
549,4089.54,0.20589187555585356
550,4091.3100000000004,0.2064170530334327
551,4093.08,0.20246083051101188
552,4094.86,0.2044755959969389
553,4096.63,0.18768367347451806
554,4098.41,0.17809733896044513
555,4100.18,0.1802933164380243
556,4101.95,0.17676559391560345
557,4103.73,0.18591305940153052
558,4105.5,0.18967463687910968
559,4107.27,0.19324561435668883
560,4109.05,0.1928894798426159
561,4110.82,0.19596065732019505
562,4112.6,0.20590872280612213
563,4114.37,0.20398280028370128
564,4116.139999999999,0.20009257776128045
565,4117.92,0.19814254324720748
566,4119.69,0.20094942072478666
567,4121.46,0.20168939820236584
568,4123.240000000001,0.20233936368829286
569,4125.01,0.20082594116587202
570,4126.78,0.2026548186434512
571,4128.56,0.19510958412937823
572,4130.33,0.1907984616069574
573,4132.11,0.1917693270928845
574,4133.88,0.19964700457046364
575,4135.650000000001,0.20501798204804278
576,4137.43,0.20474904753396986
577,4139.2,0.20247582501154904
578,4140.97,0.19610950248912817
579,4142.75,0.19385856797505524
