,lambda (Angstroms),Total Flux (erg/s/cm^2/Angstrom)
0,100.07000000000001,0.33617452122008695
1,101.93,0.33523962187483786
2,104.07,0.33416389794137596
3,104.712855,0.33384078816812357
4,106.0,0.33044151105087516
5,107.97,0.32523897931165247
6,109.98,0.3199312813241766
7,114.11,0.30902479269127825
8,118.11999999999999,0.29843541227813974
9,120.22644299999999,0.29288452521048947
10,120.87,0.29146330961159633
11,125.11,0.2820799021017227
12,126.85,0.2782292018534726
13,128.03,0.2756180197308662
14,131.01,0.2690225222986909
15,131.92000000000002,0.2670137731520198
16,134.06,0.26227769767831
17,136.87,0.256066650343205
18,138.038426,0.25348113038481723
19,140.06,0.2502844824478007
20,142.98999999999998,0.2457559562295747
21,147.0,0.23966957641647352
22,151.10999999999999,0.23319100935292097
23,154.99,0.2270824984754066
24,158.489319,0.22157671301828655
25,158.97000000000003,0.22100603611485778
26,161.92000000000002,0.21750211935366234
27,166.08,0.21257053083855276
28,169.94,0.20798574691780208
29,173.1,0.20423580415055545
30,177.14000000000001,0.19943757115318944
31,180.01,0.19603134020382304
32,181.970086,0.19370657693605645
33,182.1,0.19358934953762325
34,185.91,0.19014839499845107
35,191.12,0.18544269176850703
36,193.78,0.18304981328604036
37,197.84,0.17938033081280186
38,201.98000000000002,0.175646052768662
39,204.79000000000002,0.1731120826657555
40,208.929613,0.16933668755026413
41,210.04,0.16857557036501178
42,215.93,0.16463861200394855
43,219.94,0.16193283534064407
44,223.0,0.15985122465493043
45,227.14999999999998,0.15705480848966522
46,229.77999999999997,0.1558803814885453
47,234.04999999999998,0.15425765417874227
48,239.88329199999998,0.1509165192993168
49,240.04999999999998,0.15084727966808445
50,246.21,0.14735832574304678
51,251.95,0.1445007415174435
52,257.21999999999997,0.14110727512215965
53,260.2,0.13998427192141089
54,263.82,0.13822301484533356
55,268.72,0.13559686301859902
56,273.72,0.13290114893009444
57,275.42287,0.13198920466135375
58,278.81,0.13059186145199875
59,283.99,0.12845573346385622
60,289.94,0.12583004123423305
61,296.01,0.12338995374619734
62,300.82,0.12136726947149357
63,307.83000000000004,0.11851412079255937
64,316.227766,0.11509892039264775
65,317.91,0.11458760754221066
66,328.33,0.11135246118401838
67,338.3,0.10823359312824322
68,347.78000000000003,0.1052515578906556
69,356.7,0.10247045787385375
70,363.078055,0.10049402585413739
71,365.85,0.0998460725385051
72,375.24,0.09762760231164024
73,384.86,0.09527202360424517
74,394.74,0.09302269731016374
75,404.86,0.09065833016683336
76,414.29,0.0884406794650937
77,416.86938299999997,0.08782634684003779
78,421.99,0.08688152648840484
79,429.84000000000003,0.08545399254545723
80,440.86,0.08346814464083524
81,451.13,0.08159931834859675
82,459.52,0.08006962148473301
83,470.22,0.07814196901472797
84,478.630092,0.07663587274047703
85,480.07,0.07643565745015543
86,490.12,0.07500966179745922
87,500.39,0.07359643730161941
88,506.18,0.0727732972479765
89,512.04,0.0720087520624243
90,520.36,0.07085329881263
91,530.0400000000001,0.06948954371431165
92,539.89,0.0680910160099278
93,549.5408739999999,0.06674717486401277
94,549.93,0.06670529606884686
95,560.15,0.06564403510256178
96,570.5699999999999,0.06455917175337487
97,579.84,0.06355060760587362
98,590.62,0.06242067736746335
99,600.21,0.061374393207319154
100,609.97,0.06020848732170836
101,619.88,0.05932120014892118
102,629.9499999999999,0.058243671469812526
103,630.957344,0.05813922500672243
104,640.19,0.05737658694755387
105,650.59,0.05649318275384324
106,658.12,0.05584550392993545
107,665.7399999999999,0.055225743582235934
108,675.0,0.05445295802322051
109,684.39,0.053635538374283705
110,695.51,0.05273635999023927
111,705.1899999999999,0.051894334186862456
112,716.6500000000001,0.050974798290715925
113,724.43596,0.050327385831735454
114,726.62,0.05019116735147827
115,735.03,0.04966775881402619
116,745.26,0.04902295860711362
117,755.62,0.04837769978095388
118,764.37,0.04776368357777841
119,775.01,0.04717268465631704
120,785.79,0.04648898003720488
121,794.89,0.04593680328990239
122,804.0899999999999,0.04537137975856362
123,815.2800000000001,0.044683504724902644
124,824.72,0.04410430171187678
125,831.763771,0.04363683415997554
126,834.27,0.04350838875988543
127,845.87,0.04301395958827229
128,855.6700000000001,0.04255576640018534
129,865.5799999999999,0.042099518268660666
130,875.6,0.04164014639369829
131,885.74,0.0411725215531675
132,896.0,0.0407013255470683
133,904.29,0.040312608200717186
134,914.76,0.03992173462987326
135,925.35,0.03989417909346093
136,936.06,0.039912362991480176
137,944.73,0.04006690700416243
138,954.992586,0.0399797877699708
139,955.67,0.03997469189235484
140,964.51,0.0397927353088783
141,975.6800000000001,0.037812810240164155
142,984.7,0.038541827022634916
143,996.11,0.03801999977518386
144,1005.3199999999999,0.03819960416615456
145,1014.62,0.037744635740098925
146,1024.01,0.036102227497016935
147,1035.87,0.03631869816443416
148,1045.46,0.03700685577240472
149,1055.1299999999999,0.03648675032079634
150,1064.89,0.03551040005216159
151,1074.75,0.035419197209053135
152,1084.69,0.034393431306365706
153,1094.73,0.03461254782920457
154,1096.4782,0.03451273919197864
155,1104.86,0.03410070714864175
156,1115.08,0.033633365458917826
157,1125.4,0.03295982662350188
158,1135.81,0.03309588805696313
159,1143.68,0.03260114879100155
160,1154.27,0.032293260762217176
161,1164.95,0.03191787100230997
162,1175.72,0.030677646511279973
163,1183.8700000000001,0.03110461963738075
164,1194.8300000000002,0.030106805269535915
165,1205.88,0.029281090170568264
166,1214.24,0.02843706359071582
167,1225.48,0.02894240361493334
168,1233.97,0.029294964645681276
169,1245.3899999999999,0.02904195520765317
170,1254.0200000000002,0.028625284434432276
171,1258.92541,0.028338573016030585
172,1265.63,0.028015697902468745
173,1274.4,0.028280184579275534
174,1286.19,0.028063338906476443
175,1295.11,0.027275178966580955
176,1304.08,0.0270333134877847
177,1316.15,0.027198396597141353
178,1325.27,0.026825421501642827
179,1334.46,0.02631554185168323
180,1343.7099999999998,0.026434666155042724
181,1356.14,0.02602238298431391
182,1365.5400000000002,0.025508191670971122
183,1375.0100000000002,0.025332322803167273
184,1384.54,0.02507560988868252
185,1394.14,0.024349143419736693
186,1403.8,0.024107884904109957
187,1413.53,0.02412939783402216
188,1426.6100000000001,0.02378910565758347
189,1436.5,0.023554929463013248
190,1443.1299999999999,0.023467501804772545
191,1445.43977,0.0234218709522424
192,1446.46,0.023409587842617704
193,1456.48,0.023142050700395565
194,1466.5800000000002,0.022786676778594802
195,1473.35,0.0226659465567541
196,1483.56,0.02250731581303274
197,1493.85,0.022323795289732756
198,1504.2,0.022007136681748807
199,1511.1399999999999,0.021669703553303537
200,1518.1200000000001,0.021649570035068948
201,1525.13,0.021471760474492382
202,1535.7,0.02099993222266723
203,1546.34,0.020823920538710794
204,1553.4800000000002,0.02062876746131896
205,1564.25,0.020532247260547264
206,1575.0900000000001,0.020453972627644267
207,1586.01,0.020319146215162658
208,1593.33,0.020214072883718938
209,1604.37,0.019961569301869396
210,1615.5,0.019748087592993905
211,1626.69,0.01946582279943445
212,1634.2,0.01943453986649151
213,1645.53,0.019242485208669474
214,1653.12,0.018989705496147914
215,1659.58691,0.018943471505521937
216,1664.58,0.018934455235510655
217,1672.2699999999998,0.01863655508344015
218,1676.1200000000001,0.01883100105151928
219,1683.8600000000001,0.018775792340592658
220,1695.5300000000002,0.018507910303575386
221,1703.36,0.01834191238670776
222,1715.16,0.018096287496664587
223,1723.08,0.017979157373855956
224,1735.02,0.01794166971901566
225,1743.0300000000002,0.017799025390266014
226,1755.1200000000001,0.017753661058857374
227,1763.22,0.017505095524166722
228,1775.44,0.017370895339732184
229,1783.6299999999999,0.01731542759910053
230,1796.0,0.017282803738097645
231,1804.29,0.017149356879753757
232,1816.79,0.016831364165724973
233,1825.18,0.01677285018966885
234,1833.6,0.016603150478299068
235,1846.31,0.0162711096170746
236,1854.8400000000001,0.016219147876221356
237,1863.4,0.016190510400054446
238,1876.32,0.0161293703916343
239,1884.98,0.015890100797755154
240,1893.68,0.01577273655679112
241,1905.46072,0.015689249464045308
242,1906.8,0.01568422806842178
243,1915.6000000000001,0.015554652108364448
244,1924.45,0.01538761546103406
245,1933.3300000000002,0.015256587201339841
246,1946.73,0.01538292801216163
247,1955.72,0.015196198840466692
248,1964.74,0.015333102056407928
249,1973.81,0.01522559458507611
250,1982.92,0.015171630963925847
251,1996.67,0.015030999963836259
252,2005.8799999999999,0.014951595968139893
253,2015.14,0.014847266285170474
254,2024.44,0.014699773452382608
255,2033.79,0.014715874932321694
256,2043.18,0.014768084262442333
257,2057.34,0.014490407226713712
258,2066.83,0.014398598182288249
259,2076.37,0.014523120450589733
260,2085.96,0.016304101031618157
261,2095.59,0.015898024462828148
262,2105.2599999999998,0.015694455744219692
263,2114.98,0.01597099733833818
264,2124.74,0.015507389782638232
265,2134.55,0.015214457539665221
266,2144.4,0.015917286146873776
267,2154.3,0.015847036066809275
268,2164.2400000000002,0.01524291083692633
269,2174.23,0.015196169919770339
270,2184.27,0.01595201231534129
271,2187.7616199999998,0.015897329058908196
272,2194.35,0.01581365338317995
273,2204.48,0.0156334387635265
274,2214.65,0.014610604425730284
275,2224.87,0.015055958440255628
276,2235.15,0.016220614877566833
277,2245.46,0.015903679526270968
278,2255.83,0.01470548059776097
279,2266.24,0.01440140295110821
280,2276.7000000000003,0.014715923656777001
281,2287.21,0.01597283171476735
282,2292.48,0.015014950849458988
283,2303.06,0.015911478400699508
284,2313.69,0.014955836304261581
285,2324.37,0.013963384560145207
286,2335.1,0.013559418168350384
287,2345.88,0.012594178128877113
288,2356.71,0.014312991441725398
289,2367.58,0.012674475036430922
290,2373.04,0.01328505050994446
291,2384.0,0.012118805738828781
292,2395.0,0.01248568424957034
293,2406.05,0.012404914112633454
294,2417.16,0.012756298398482434
295,2422.73,0.014670414647103388
296,2433.92,0.014681509496666849
297,2445.15,0.01556368262808755
298,2456.44,0.015907695182294117
299,2467.78,0.014843435088822233
300,2473.46,0.014229289112550605
301,2484.8799999999997,0.012348562582793212
302,2496.35,0.012907835405357365
303,2507.87,0.014914213580243071
304,2511.88643,0.012705253328741874
305,2513.65,0.011738107417319578
306,2519.45,0.011288552617521867
307,2525.2599999999998,0.011449854674965884
308,2536.91,0.012805929361579102
309,2542.76,0.01302094884799003
310,2554.5,0.0164129942497788
311,2566.29,0.01431319193777621
312,2572.2099999999996,0.015847501424879236
313,2584.0800000000004,0.01491934897081047
314,2596.01,0.014199306660192073
315,2607.9900000000002,0.013375917635782317
316,2614.0,0.012907276838060897
317,2626.0699999999997,0.014434357528826696
318,2632.12,0.019124995160072183
319,2644.2700000000004,0.022940801708771802
320,2656.48,0.0288717214009218
321,2662.6,0.020850982032859386
322,2674.89,0.0226952025829432
323,2687.2400000000002,0.025021686276477384
324,2693.43,0.020366453909107067
325,2705.86,0.02339457846057507
326,2712.1,0.0189664753794134
327,2724.62,0.01659983764605696
328,2737.19,0.018946993198909162
329,2743.5,0.013925085118439581
330,2756.17,0.016108794243709063
331,2762.52,0.018777223592206398
332,2775.2700000000004,0.0194619215754097
333,2788.08,0.014582445702063379
334,2794.51,0.010936698908494533
335,2807.4100000000003,0.011502993750323761
336,2813.88,0.017837434385721832
337,2826.8700000000003,0.023025554942726612
338,2833.39,0.022371709864333324
339,2846.46,0.01815847127927193
340,2853.0299999999997,0.013507199487087281
341,2866.2,0.022626875474443166
342,2872.7999999999997,0.028153741253983705
343,2884.0315,0.026087759092330725
344,2886.06,0.02571737556517355
345,2892.72,0.030010722042349808
346,2912.77,0.03811173335877382
347,2932.96,0.033882648444988325
348,2953.29,0.03186383730099332
349,2966.92,0.033337010031310496
350,2987.48,0.03362839936625702
351,3008.19,0.03398410988312192
352,3029.04,0.035640894169777323
353,3050.04,0.0368471496383511
354,3071.18,0.039434058876715375
355,3092.47,0.038761539296998035
356,3106.75,0.0437060938156282
357,3128.2799999999997,0.04099894212698027
358,3149.96,0.04076177162025073
359,3171.8,0.04424014970756746
360,3186.44,0.038791281062801754
361,3208.53,0.04257302445331579
362,3230.77,0.03633232902574821
363,3253.16,0.04893456478009903
364,3268.18,0.05623070779619322
365,3290.83,0.05500663626586923
366,3311.31121,0.05237726289322914
367,3313.64,0.052080506919044534
368,3321.2799999999997,0.04978256184935475
369,3328.94,0.05476404061456107
370,3336.6099999999997,0.05485506629721544
371,3344.3,0.05157065581476591
372,3352.01,0.04801638916721248
373,3359.74,0.05615564635455515
374,3367.4900000000002,0.05376248737679392
375,3375.25,0.04031562531648074
376,3383.03,0.04361719709106366
377,3390.8300000000004,0.05503640270054268
378,3398.64,0.05301897522746975
379,3406.48,0.05454000850674097
380,3414.33,0.05351965870346024
381,3422.2000000000003,0.05956662273507561
382,3430.09,0.05492480060158708
383,3438.0,0.056279312302994655
384,3445.92,0.036666380921850275
385,3453.87,0.057409090293050045
386,3461.8300000000004,0.047421456581697864
387,3469.81,0.051108736705241783
388,3477.81,0.04504099066368181
389,3485.82,0.05064875153956988
390,3493.8599999999997,0.045546353167802096
391,3501.92,0.05175656863093042
392,3509.9900000000002,0.05677171101150679
393,3518.08,0.05055561722697926
394,3526.19,0.045640867277347834
395,3534.32,0.0557684711626125
396,3542.47,0.06318749888277328
397,3550.63,0.06107668352038209
398,3558.8199999999997,0.056748908910335065
399,3567.02,0.05852591121773609
400,3575.2400000000002,0.04653294736003322
401,3583.49,0.03889324425467448
402,3591.75,0.0406094880667638
403,3600.03,0.06144660571374923
404,3608.33,0.051241257195630746
405,3616.64,0.05495446559496032
406,3624.98,0.05436379474663404
407,3633.3399999999997,0.05582830773320386
408,3641.71,0.06616727763722173
409,3650.1099999999997,0.05520224829358376
410,3658.52,0.07168291586739384
411,3666.96,0.07120044419354804
412,3675.41,0.07302214943715032
413,3683.88,0.05979569851564869
414,3692.37,0.06340798142904316
415,3700.89,0.07064063509478179
416,3709.42,0.05064038567796846
417,3717.97,0.07690713009605124
418,3726.54,0.054296098349030104
419,3735.1299999999997,0.05742909043690508
420,3743.74,0.06298753635967615
421,3752.37,0.03913841611734332
422,3761.02,0.05747508970990659
423,3769.69,0.055434417137365966
424,3778.38,0.06818196839972143
425,3787.09,0.07702001349697302
426,3795.8199999999997,0.05934164242912069
427,3801.8939600000003,0.06038146465189945
428,3804.5699999999997,0.06084137670530885
429,3813.34,0.06925699449571986
430,3822.13,0.05358369951028231
431,3830.94,0.041132291748996214
432,3839.77,0.04020518121186157
433,3848.62,0.05984892789887837
434,3857.5,0.05869952542212235
435,3866.3900000000003,0.06057338655744206
436,3875.2999999999997,0.049698294916913216
437,3884.24,0.05469592411261155
438,3884.89,0.06063028889753369
439,3886.6600000000003,0.04558768823493704
440,3888.43,0.05142249757234041
441,3890.19,0.06151061329766805
442,3891.96,0.06975512263507141
443,3893.7300000000005,0.07000327197247476
444,3895.5,0.06854305130987813
445,3897.27,0.07194709064728148
446,3899.0399999999995,0.08443392998468485
447,3900.81,0.07706464932208822
448,3902.58,0.059686408659491576
449,3904.35,0.05775242799689494
450,3906.1200000000003,0.058900207334298293
451,3907.89,0.07443187667170165
452,3909.66,0.07856824600910502
453,3911.4300000000003,0.07704454534650837
454,3913.2,0.07428261468391174
455,3914.97,0.06906905402131511
456,3916.7400000000002,0.06359362335871846
457,3918.51,0.06554785269612182
458,3920.2799999999997,0.06979829203352518
459,3922.05,0.06847031137092856
460,3923.81,0.06121212709625618
461,3925.5800000000004,0.05276624643365954
462,3927.35,0.052025455771062906
463,3929.12,0.04310852510846627
464,3930.8900000000003,0.03221330444586963
465,3932.66,0.028102123783272988
466,3934.43,0.033209933120676355
467,3936.2000000000003,0.03883048245807971
468,3937.9700000000003,0.04221313179548307
469,3939.74,0.04656405113288643
470,3941.5099999999998,0.0580196404702898
471,3943.28,0.06263746980769315
472,3945.0499999999997,0.06431162914509651
473,3946.8199999999997,0.06316614848249988
474,3948.59,0.06471304781990324
475,3950.36,0.06782082715730661
476,3952.1299999999997,0.06435035649470996
477,3953.9,0.06582054583211332
478,3955.67,0.06122855516951668
479,3957.44,0.06829567450692005
480,3959.2,0.06333106023224769
481,3960.97,0.05351768956965104
482,3962.7400000000002,0.05227143890705441
483,3964.5099999999998,0.04608444824445777
484,3966.2799999999997,0.037601527581861124
485,3968.05,0.03347221691926449
486,3969.82,0.03477602625666785
487,3971.5899999999997,0.03503767559407121
488,3973.36,0.049984534931474575
489,3975.13,0.05691177426887793
490,3976.9,0.0678463136062813
491,3978.67,0.07887044294368464
492,3980.44,0.07469903228108801
493,3982.21,0.07544444161849137
494,3983.9799999999996,0.08460677095589475
495,3985.75,0.0879685102932981
496,3987.52,0.08561914963070145
497,3989.29,0.08718488896810482
498,3991.06,0.09496652830550818
499,3992.82,0.08886426403083582
500,3994.59,0.08232025336823919
501,3996.36,0.09289774270564254
502,3998.1299999999997,0.0975128420430459
503,3999.9,0.09428046138044927
504,4001.67,0.10069151071785262
505,4003.4399999999996,0.094888130055256
506,4005.21,0.09476105939265934
507,4006.98,0.0897957087300627
508,4008.75,0.09058116806746608
509,4010.52,0.09556963740486943
510,4012.29,0.0973835667422728
511,4014.06,0.09781196607967615
512,4015.8300000000004,0.10640568541707951
513,4017.6,0.10787038475448288
514,4019.37,0.09963096409188624
515,4021.1400000000003,0.0976836234292896
516,4022.9100000000003,0.09796124276669296
517,4024.68,0.09643758210409632
518,4026.44,0.09585026782942395
519,4028.21,0.10028593716682732
520,4029.98,0.09696625650423067
521,4031.75,0.08684568584163403
522,4033.52,0.0938973151790374
523,4035.2900000000004,0.10036701451644076
524,4037.06,0.10036379385384413
525,4038.83,0.10395303319124749
526,4040.6,0.09566327252865084
527,4042.3700000000003,0.09577115186605421
528,4044.14,0.09126386120345757
529,4045.91,0.08125179054086093
530,4047.6800000000003,0.09159909987826428
531,4049.45,0.10120321921566766
532,4051.22,0.09660552855307102
533,4052.9900000000002,0.08680811789047436
534,4054.76,0.09167225722787774
535,4056.5299999999997,0.0951710965652811
536,4058.3,0.09566295590268445
537,4060.07,0.09758315524008782
538,4061.8300000000004,0.08969019096541546
539,4063.6,0.08598696030281881
540,4065.37,0.08931697964022219
541,4067.1400000000003,0.09277883897762554
542,4068.91,0.0949450183150289
543,4070.68,0.09216978765243226
544,4072.4500000000003,0.09039746698983563
545,4074.2200000000003,0.09044494632723898
546,4075.99,0.09202086566464235
547,4077.76,0.0941843950020457
548,4079.53,0.08937290433944907
549,4081.2999999999997,0.09602466367685243
550,4083.0699999999997,0.1058085930142558
551,4084.84,0.10857259235165916
552,4086.61,0.10354113168906251
553,4088.3799999999997,0.10404094102646588
554,4090.15,0.10516709036386923
555,4091.92,0.1043126897012726
556,4093.69,0.10182355903867596
557,4095.45,0.09243615476400359
558,4097.219999999999,0.09040726410140695
559,4098.99,0.08897614343881032
560,4100.76,0.09038015277621368
561,4102.53,0.09048317211361703
562,4104.3,0.0902688014510204
563,4106.07,0.09700259078842376
564,4107.84,0.09279682012582713
565,4109.610000000001,0.09544176946323048
566,4111.38,0.09946433880063384
567,4113.15,0.09674772813803721
568,4114.92,0.10020160747544056
569,4116.6900000000005,0.10553389681284393
570,4118.46,0.10266659615024729
571,4120.23,0.09823288548765066
572,4122.0,0.10081169482505402
573,4123.7699999999995,0.10859869416245736
574,4125.54,0.10386340349986074
575,4127.31,0.09748342283726409
576,4129.08,0.09327766217466744
577,4130.84,0.09086526789999509
578,4132.61,0.09546754723739846
