,lambda (Angstroms),Total Flux (erg/s/cm^2/Angstrom)
0,100.00999999999999,13.644346917716382
1,102.10000000000001,13.601699885678872
2,104.0,13.562929859053078
3,104.712855,13.548383870127118
4,105.93,13.417922756805304
5,107.89999999999999,13.206766054972881
6,109.91000000000001,12.991322113961095
7,114.03,12.549715429924369
8,118.04,12.119899385287912
9,120.22644299999999,11.885548549757317
10,121.07,11.809745025444254
11,125.03,11.453885162753735
12,127.07,11.270563216782564
13,127.95,11.191483643689118
14,130.93,10.923690019593577
15,132.14,10.81495777323009
16,133.98,10.649609098781973
17,137.1,10.369239503024293
18,138.038426,10.284909673118179
19,139.97,10.160840317655532
20,142.9,9.972705257079978
21,146.9,9.715947763024271
22,151.02,9.451333226337892
23,154.89,9.202783005698747
24,158.489319,8.971620609972208
25,158.86,8.953623268801037
26,161.82,8.809909582577305
27,165.97,8.608426289303152
28,169.84,8.420533060505566
29,172.98999999999998,8.26759925931916
30,177.01999999999998,8.071940288763537
31,179.89999999999998,7.932116776718821
32,181.970086,7.831615663184738
33,181.98,7.831248493591962
34,185.79,7.690144726498519
35,191.0,7.49719127672087
36,194.1,7.382389253891561
37,198.17000000000002,7.231655416625335
38,201.85000000000002,7.095380019418282
39,205.13,6.973908042292432
40,208.929613,6.833163202077386
41,209.91,6.805862264780094
42,215.79000000000002,6.64222448404203
43,219.79999999999998,6.530602904969305
44,222.86,6.445405729026026
45,227.00000000000003,6.330172616514533
46,230.16,6.24287319692605
47,233.9,6.140176798995378
48,239.88329199999998,5.974388016955353
49,239.9,5.974031813439478
50,246.04999999999998,5.841860478115295
51,251.78,5.719183474637641
52,257.06,5.605198803281269
53,260.03,5.54204405008081
54,264.26,5.451504251340762
55,269.17,5.346138175706332
56,274.17,5.238840449247648
57,275.42287,5.211954291236736
58,279.27,5.148598480664015
59,283.81,5.073834941503955
60,289.75,4.975792836391455
61,295.82,4.875910894869085
62,301.32,4.785279331913066
63,308.34,4.669717369780112
64,316.227766,4.5398784390395335
65,317.71,4.521659394228844
66,328.12,4.393580577880358
67,338.09,4.270881716283394
68,348.36,4.144470408310392
69,357.29999999999995,4.034434134904487
70,363.078055,3.9633366466526736
71,365.61999999999995,3.9399119150915607
72,375.0,3.853420089716883
73,384.62,3.7645825395458385
74,395.39,3.6654102026838693
75,404.6,3.580518590498285
76,414.03000000000003,3.4935487018326974
77,416.86938299999997,3.467353484314073
78,421.72,3.4331660238617
79,429.56,3.3779221678387295
80,440.58,3.300313754469706
81,450.85,3.2279461953426765
82,460.29,3.1614302870701194
83,469.92,3.093589064842924
84,478.630092,3.032246670456219
85,479.76,3.0261249104335186
86,489.80999999999995,2.9716081623076085
87,500.07000000000005,2.9160428821133952
88,505.86,2.884626264658767
89,511.71000000000004,2.853043277898908
90,520.03,2.807952135573777
91,529.7,2.7555163593809846
92,539.54,2.7021252343233777
93,549.5408739999999,2.6479213657704372
94,549.58,2.6477595192687504
95,559.79,2.605595283226114
96,570.2,2.562598130582249
97,579.47,2.5242201382653784
98,590.24,2.4797164339393056
99,599.83,2.439988919460472
100,609.5799999999999,2.399390766900657
101,619.48,2.3588090646399213
102,629.55,2.317146917918143
103,630.957344,2.311332704575947
104,639.78,2.2824321178258726
105,650.1700000000001,2.2483548015390915
106,657.6999999999999,2.2236273119732157
107,665.3100000000001,2.198728697457104
108,674.57,2.168382897717394
109,685.53,2.132383468535189
110,695.07,2.1011795369696564
111,704.7399999999999,2.0693971442349923
112,716.19,2.0319628651075967
113,724.43596,2.004933013236477
114,726.15,2.000760060977437
115,734.56,1.980293669889127
116,744.78,1.95540564107432
117,755.14,1.9301890010154745
118,765.64,1.904476513712591
119,774.5100000000001,1.8830479951081545
120,785.29,1.8567821703171938
121,794.38,1.8346868039006974
122,805.4300000000001,1.8078168740676621
123,814.7600000000001,1.7851124479470997
124,824.19,1.7621788153665097
125,831.763771,1.7436798786655234
126,835.66,1.7365534651074914
127,845.3299999999999,1.7190629581665084
128,855.12,1.7012458293999904
129,865.02,1.6832455677933995
130,875.04,1.6650316503612743
131,885.17,1.6466067390890757
132,895.42,1.627968205991343
133,905.7900000000001,1.6090974350680751
134,914.17,1.5941300972515873
135,924.76,1.5765305726481735
136,935.46,1.559120858204686
137,944.12,1.5461791217952843
138,954.992586,1.5287853486006624
139,955.0500000000001,1.5286957506200751
140,963.89,1.51380415041564
141,975.05,1.486344836320448
142,984.0699999999999,1.475961075469316
143,995.4699999999999,1.4561308691785286
144,1004.6800000000001,1.4435905629225498
145,1013.98,1.4268182478432232
146,1025.72,1.3992505167753422
147,1035.21,1.385644118291169
148,1044.79,1.3758405769836475
149,1054.45,1.3582874646109273
150,1064.21,1.3374576246567094
151,1074.06,1.322217962879143
152,1084.0,1.3011541292782283
153,1094.03,1.287399273853965
154,1096.4782,1.2828902586247553
155,1104.15,1.2712309191819366
156,1114.37,1.2556291916382702
157,1124.68,1.2390477524234749
158,1135.08,1.2273945415375522
159,1145.59,1.210633347498028
160,1156.18,1.1960974975286116
161,1164.2,1.1846938930569673
162,1174.97,1.1639481297452952
163,1185.84,1.1525872890212583
164,1194.06,1.1359482097248845
165,1205.11,1.1170827476585912
166,1216.26,1.0985369911799332
167,1224.69,1.0914970743175936
168,1236.03,1.080061473755443
169,1244.59,1.0689739992570293
170,1256.11,1.0513090253526225
171,1258.92541,1.0464845534461815
172,1264.8200000000002,1.0388453867637109
173,1273.58,1.0338415676499655
174,1285.3700000000001,1.0224444152468761
175,1294.28,1.008908724881183
176,1306.25,0.9962900529757569
177,1315.3100000000002,0.9906982913581157
178,1324.42,0.9803302526564922
179,1333.6100000000001,0.9686192286204967
180,1345.9499999999998,0.9589261582935998
181,1355.27,0.9485871918392491
182,1364.67,0.9368108700505268
183,1374.13,0.9277532417610254
184,1383.6499999999999,0.917958716970745
185,1396.46,0.9022431540544115
186,1406.1399999999999,0.8925735885953869
187,1415.8799999999999,0.8830966966355831
188,1425.7,0.873307229341407
189,1435.58,0.8629540255464522
190,1442.2099999999998,0.8568911322103641
191,1445.43977,0.853801909371556
192,1445.53,0.8537438608300418
193,1455.55,0.8459241195236156
194,1465.64,0.8372691823896992
195,1475.8,0.829881269428293
196,1486.0300000000002,0.8227857506393964
197,1496.33,0.8155401860230101
198,1506.7,0.8071140355791339
199,1513.66,0.8004277247315563
200,1517.1499999999999,0.7988101013324119
201,1524.1499999999999,0.7933119085834115
202,1534.71,0.7838889366077765
203,1545.3500000000001,0.7772875208292956
204,1556.06,0.7688365992233253
205,1563.25,0.7638518149425662
206,1574.08,0.756961827632327
207,1584.99,0.749770706519242
208,1595.9799999999998,0.7421667716033116
209,1603.3500000000001,0.7364815837661495
210,1614.46,0.7284402831459502
211,1625.6499999999999,0.7194576987229055
212,1633.1499999999999,0.7149440872061191
213,1644.48,0.7071596411280943
214,1655.8700000000001,0.6974966571979349
215,1659.58691,0.6955274425812881
216,1663.52,0.6942966299893873
217,1671.1999999999998,0.6884313876072502
218,1678.91,0.6887472971298704
219,1686.66,0.6855535391921671
220,1694.44,0.6799193531592209
221,1706.1899999999998,0.6736453491891545
222,1714.07,0.6701475095053993
223,1725.95,0.664342903789281
224,1733.9099999999999,0.6622043191848787
225,1745.93,0.6553893823576276
226,1753.99,0.653650404102416
227,1766.1499999999999,0.6444843561640324
228,1774.3,0.6421015036230927
229,1786.6000000000001,0.6359920245735762
230,1794.8500000000001,0.6353545383818275
231,1803.13,0.629607424094836
232,1815.63,0.6227182977437015
233,1824.01,0.6182893798059009
234,1836.6499999999999,0.6106198023436338
235,1845.13,0.6041842707550241
236,1853.65,0.6017094117060907
237,1866.5,0.5974361275771245
238,1875.1100000000001,0.5932117142424629
239,1883.77,0.588266594082397
240,1896.83,0.5827714332867315
241,1905.46072,0.5782540508714625
242,1905.5800000000002,0.5782077747058987
243,1914.3799999999999,0.5751795083547138
244,1923.2099999999998,0.5704054772546042
245,1936.54,0.5616874538158205
246,1945.48,0.5653385486363212
247,1954.46,0.561690463791589
248,1968.01,0.5599195921940257
249,1977.09,0.5557319281862123
250,1986.22,0.5529212395968577
251,1995.3899999999999,0.5492216213422705
252,2004.6,0.5446685634224507
253,2013.8500000000001,0.5407390958373982
254,2023.1499999999999,0.5361726136708049
255,2037.17,0.5335293310067579
256,2046.5700000000002,0.532321949677083
257,2056.02,0.5272842337658673
258,2065.51,0.5227700781894188
259,2075.04,0.5232299529477378
260,2079.83,0.5288973980361269
261,2084.62,0.5299771031245158
262,2094.24,0.5236278536360613
263,2103.91,0.5175339995660659
264,2113.62,0.515846935830838
265,2123.38,0.5110894975140691
266,2133.1800000000003,0.5030557895320674
267,2143.0299999999997,0.5054190769685252
268,2152.92,0.5025025347397502
269,2162.85,0.49502118284574254
270,2172.84,0.4917720914538858
271,2182.87,0.4919768003967966
272,2187.7616199999998,0.4909767527841129
273,2192.94,0.49054031118692626
274,2203.07,0.48605498662515345
275,2213.23,0.47715270209922933
276,2223.45,0.4757465976450025
277,2233.71,0.4814846199052404
278,2244.02,0.4761940855585595
279,2254.38,0.4670247346049596
280,2264.79,0.4641221270444409
281,2275.2400000000002,0.46486927619838697
282,2285.74,0.46831501874541426
283,2296.29,0.46046028468552247
284,2306.89,0.4621036640187119
285,2317.54,0.45507427674498224
286,2322.88,0.4433736731260417
287,2333.6,0.4417992226026258
288,2344.38,0.43303747215090693
289,2355.2000000000003,0.44265249841365306
290,2366.07,0.4288306380694803
291,2376.99,0.4311891611183886
292,2382.47,0.42105981100007517
293,2393.4700000000003,0.4221673374779131
294,2404.5099999999998,0.41901577067021606
295,2415.61,0.4191152139342161
296,2426.76,0.4279738405912974
297,2432.36,0.42625184061637855
298,2443.58,0.4286589040237734
299,2454.86,0.42726535750286543
300,2466.19,0.4209369743750386
301,2477.58,0.41440056131890907
302,2483.29,0.4071432048087686
303,2494.75,0.4052945985029525
304,2506.27,0.4152280422688338
305,2511.88643,0.39547609321343236
306,2512.04,0.39494585481026906
307,2517.84,0.3905032549649112
308,2523.64,0.3901922151195534
309,2535.29,0.3940937822405156
310,2546.9900000000002,0.3934061361731558
311,2552.86,0.4071372078641471
312,2564.65,0.3962860080578076
313,2576.48,0.4017681577008105
314,2582.42,0.39735853092815093
315,2594.34,0.3919245668321741
316,2606.3199999999997,0.38575962691021093
317,2612.33,0.38173002167390047
318,2624.38,0.3893081532882863
319,2636.5,0.4050773764390213
320,2642.58,0.4230688027390599
321,2654.77,0.44241785742614403
322,2667.03,0.4071910536495773
323,2673.17,0.41554000412362946
324,2685.5099999999998,0.4206646492457475
325,2697.91,0.401205878541879
326,2704.13,0.41283406791461585
327,2716.6099999999997,0.39287017610943215
328,2722.87,0.3848107949315115
329,2735.44,0.3925219593873479
330,2748.07,0.363998788017198
331,2754.4,0.37265029837562647
332,2767.1200000000003,0.3813768332664968
333,2773.5,0.3859495404366031
334,2786.2999999999997,0.36212116422615837
335,2792.7200000000003,0.33813964084560694
336,2805.61,0.33997782089618245
337,2812.08,0.37362209432730914
338,2825.06,0.3947027306389048
339,2838.1,0.38970222112451414
340,2844.64,0.3752486560919899
341,2857.77,0.35396220283861946
342,2864.36,0.3894160146177732
343,2877.58,0.40475555762542315
344,2884.0315,0.3963079958593059
345,2884.21,0.39608408823912794
346,2897.5299999999997,0.40667660554789614
347,2910.9,0.4393864801964118
348,2931.08,0.42057911051855457
349,2951.4,0.4109944253919906
350,2971.85,0.41659344734877046
351,2992.45,0.4160555313247932
352,3013.2,0.41644347732005893
353,3027.11,0.420602435237849
354,3048.09,0.42249266299595367
355,3069.22,0.43147675277330144
356,3090.4900000000002,0.4295335271019423
357,3111.91,0.44344396344982623
358,3133.48,0.43112636181695296
359,3147.95,0.4312087579399166
360,3169.77,0.44028149300578145
361,3191.7400000000002,0.41474229009088925
362,3206.4700000000003,0.4297253003805404
363,3228.7,0.4014919116323359
364,3251.08,0.4473081849033743
365,3273.61,0.47336922019365546
366,3288.72,0.46744797426538864
367,3311.31121,0.45681299066773456
368,3311.52,0.4567227554688713
369,3319.15,0.4465493982308005
370,3326.81,0.4440453306759351
371,3334.47,0.47049046312106974
372,3342.1600000000003,0.4502851852494098
373,3349.87,0.4655666338332203
374,3357.5899999999997,0.4706781456447659
375,3365.3300000000004,0.4148700839117818
376,3373.09,0.403275248634268
377,3380.86,0.46454327658448946
378,3388.65,0.4618222309901812
379,3396.47,0.4304471750790785
380,3404.3,0.4804553823957108
381,3412.1400000000003,0.44537265294007833
382,3420.01,0.45817931316765137
383,3427.8900000000003,0.4519334366229596
384,3435.8,0.4610210497614733
385,3443.7200000000003,0.4057571261277221
386,3451.66,0.45554182894944134
387,3459.61,0.4553965949988957
388,3467.5899999999997,0.44911865073155555
389,3475.58,0.4535495696919505
390,3483.5899999999997,0.45185371510781586
391,3491.62,0.45169968697915147
392,3499.6699999999996,0.4190414853059575
393,3507.74,0.47364781008823376
394,3515.83,0.43329806132598037
395,3523.9300000000003,0.4579495757914621
396,3532.0499999999997,0.45144771671241424
397,3540.2,0.4773247473165718
398,3548.3599999999997,0.4886390411484646
399,3556.5400000000004,0.4595803614358276
400,3564.7400000000002,0.471834308178661
401,3572.95,0.41018711814922965
402,3581.19,0.42353311780300373
403,3589.4500000000003,0.37395154391224805
404,3597.72,0.45291023324922763
405,3606.01,0.45824934904167747
406,3614.33,0.4348412545173329
407,3622.66,0.4072836232207234
408,3630.4599999999996,0.48602344085415033
409,3633.2,0.4593471652535849
410,3635.95,0.4518320528807546
411,3638.69,0.44401427728018916
412,3641.44,0.4694375649073589
413,3644.1800000000003,0.4870727893067935
414,3646.92,0.42806081370622806
415,3649.67,0.4800306013333978
416,3652.41,0.4701498257328324
417,3655.16,0.47710971336000213
418,3657.9,0.4992476377594367
419,3660.64,0.5428267621588713
420,3663.3900000000003,0.49596944978604096
421,3666.13,0.5129615741854756
422,3668.8700000000003,0.4669167985849102
423,3671.62,0.45450838621207995
424,3674.3599999999997,0.4821018106115145
425,3677.11,0.49225409823868427
426,3679.85,0.4831834226381188
427,3682.59,0.45762674703755335
428,3685.3399999999997,0.48269253466472317
429,3688.0800000000004,0.48381815906415765
430,3690.83,0.5022372466913274
431,3693.5699999999997,0.481350071090762
432,3696.31,0.5226182954901966
433,3699.06,0.5334612831173664
434,3701.8,0.5118595075168009
435,3704.54,0.4722471319162355
436,3707.29,0.48740231954340524
437,3710.03,0.4717800439428398
438,3712.7799999999997,0.4819563315700096
439,3715.52,0.5009256559694442
440,3718.2599999999998,0.5291386803688787
441,3721.01,0.49612276799604843
442,3723.75,0.49253139239548305
443,3726.5,0.4883420800226528
444,3729.24,0.48699010442208734
445,3731.9799999999996,0.483732228821522
446,3734.73,0.4363057164486917
447,3737.47,0.4345034408481263
448,3740.21,0.46564176524756085
449,3742.96,0.4655024528747306
450,3745.7000000000003,0.4576704772741651
451,3748.45,0.4452858649013349
452,3751.1899999999996,0.44624468930076955
453,3753.93,0.47097931370020407
454,3756.68,0.4726506013273738
455,3759.42,0.5003870257268084
456,3762.17,0.49174261335397806
457,3764.9100000000003,0.49510763775341265
458,3767.65,0.4994733621528472
459,3770.3999999999996,0.47165104978001704
460,3773.14,0.5100127741794516
461,3775.8799999999997,0.5274575985788862
462,3778.63,0.5356561862060558
463,3781.37,0.5274432106054905
464,3784.1200000000003,0.5029798982326602
465,3786.86,0.5405554226320948
466,3789.6000000000004,0.5080425470315293
467,3792.35,0.5139541346586991
468,3795.0899999999997,0.4650268590581337
469,3797.84,0.47191534668530344
470,3800.58,0.508180571084738
471,3801.8939600000003,0.49794708825841494
472,3803.32,0.4868794398305262
473,3806.0699999999997,0.5087799427198713
474,3808.8100000000004,0.5041433106896187
475,3811.55,0.49290757865936613
476,3814.2999999999997,0.47161618154871127
477,3817.04,0.48787274951845866
478,3819.79,0.4842821524078037
479,3822.53,0.46030092037755116
480,3825.27,0.4441336883472986
481,3828.02,0.4007747912366437
482,3830.76,0.4126738592063911
483,3833.5099999999998,0.42568366209573616
484,3836.25,0.39347363006548364
485,3838.99,0.4110259980352311
486,3841.7400000000002,0.4439427009245761
487,3844.48,0.4453808688943236
488,3847.2200000000003,0.47986233686407104
489,3849.97,0.5031684397534161
490,3852.7099999999996,0.4729692077231636
491,3855.46,0.49239211061250865
492,3858.2,0.495617278582256
493,3860.94,0.4755906465520035
494,3863.69,0.45977874944134856
495,3866.4300000000003,0.497595417411096
496,3869.18,0.4951959203004411
497,3871.9199999999996,0.5008748882701886
498,3874.66,0.467626356239936
499,3877.41,0.468848059129281
500,3880.15,0.46304412709902854
501,3882.89,0.47191529506877594
502,3885.6400000000003,0.448694297958121
503,3888.38,0.4847004659278684
504,3891.1299999999997,0.47772696881721355
505,3893.87,0.48838483678696093
506,3896.6099999999997,0.5283458047567084
507,3899.36,0.5168219076460534
508,3902.1,0.5152823756158009
509,3904.8500000000004,0.534157178505146
510,3907.59,0.5262329464748934
511,3910.3300000000004,0.5473258144446408
512,3913.08,0.5251766173339859
513,3915.8199999999997,0.5431246853037335
514,3918.56,0.5368680532734809
515,3921.31,0.5189356561628259
516,3924.05,0.4837574241325733
517,3926.7999999999997,0.4483626270219184
518,3929.5400000000004,0.4287648949916658
519,3932.28,0.39921586296141326
520,3935.0299999999997,0.3791921658507584
521,3937.77,0.3836392338205058
522,3940.52,0.40459663670985085
523,3943.26,0.4561545046795983
524,3946.0,0.4819165726493458
525,3948.7499999999995,0.5052463755386909
526,3951.49,0.5292456435084383
527,3954.23,0.5309699114781857
528,3956.98,0.5216854143675307
529,3959.72,0.5121412823372782
530,3962.4700000000003,0.4767701852266233
531,3965.21,0.42513465319637067
532,3967.9500000000003,0.40045992116611817
533,3970.7,0.3882598240554633
534,3973.4399999999996,0.4073845920252107
535,3976.19,0.4466024949145557
536,3978.93,0.4928049628843032
537,3981.67,0.5490134308540506
538,3984.42,0.5866848337433956
539,3987.1600000000003,0.5919827017131432
540,3989.9,0.6009494696828905
541,3992.6499999999996,0.6198717725722356
542,3995.39,0.6257652405419831
543,3998.14,0.6391842434313282
544,4000.88,0.6441725114010756
545,4003.62,0.6328417793708231
546,4006.3700000000003,0.6395662822601681
547,4009.11,0.6420531502299156
548,4011.8599999999997,0.6534946531192607
549,4014.6,0.6573633210890081
550,4017.3399999999997,0.6697130890587555
551,4020.09,0.6598802919481006
552,4022.83,0.6604612599178481
553,4025.57,0.6709767278875954
554,4028.32,0.6588806307769405
555,4031.0600000000004,0.645358198746688
556,4033.81,0.637764801636033
557,4036.5499999999997,0.6457548696057805
558,4039.29,0.6622975375755279
559,4042.04,0.6572294404648731
560,4044.78,0.6298417084346204
561,4047.5299999999997,0.6352559113239655
562,4050.2700000000004,0.6435080792937129
563,4053.01,0.6375614472634604
564,4055.7599999999998,0.6450006501528055
565,4058.5,0.6485596181225529
566,4061.24,0.6366332860923004
567,4063.9900000000002,0.6345192889816454
568,4066.73,0.6320270569513928
569,4069.4799999999996,0.6372268598407379
570,4072.22,0.6311611278104854
571,4074.96,0.6228796957802327
572,4077.71,0.6420162986695779
573,4080.45,0.6484340666393253
574,4083.2000000000003,0.6491073695286704
575,4085.94,0.6654118374984178
576,4088.6800000000003,0.6829552054681652
577,4091.43,0.6765052083575104
578,4094.1699999999996,0.6571222763272578
579,4096.91,0.6378582442970053
580,4099.66,0.6204496471863503
581,4102.4,0.5893216151560978
582,4105.150000000001,0.5806802180454428
583,4107.89,0.6107781860151902
584,4110.63,0.6298700539849377
585,4113.38,0.6359513568742827
586,4116.12,0.6463237248440302
587,4118.87,0.6593614277333754
588,4121.61,0.6537245957031228
589,4124.35,0.6578313636728701
590,4127.1,0.6594100665622152
591,4129.84,0.6423855345319627
592,4132.58,0.6462065025017102
