,lambda (Angstroms),Total Flux (erg/s/cm^2/Angstrom)
0,102.05000000000001,3.751011817645325
1,103.95,3.7403207916983248
2,104.712855,3.7360283192517634
3,105.88,3.7015309165523917
4,108.10000000000001,3.63591419385659
5,110.11,3.5765045098190233
6,113.98,3.4621186390952015
7,117.99000000000001,3.3435947827817216
8,120.22644299999999,3.2774927245737953
9,121.01,3.258076019125532
10,124.98,3.1596977124355368
11,127.01,3.109393430445743
12,127.89,3.087586689802734
13,130.87,3.013741015586249
14,132.07999999999998,2.9837569407457365
15,133.92,2.9381610056050818
16,137.03,2.861094310017186
17,138.038426,2.8361051465489058
18,139.9,2.8031319163445176
19,143.16,2.745393087951233
20,146.83,2.680396376908075
21,150.95000000000002,2.6074222472296418
22,155.18,2.532500212152852
23,158.489319,2.4738856880684645
24,159.16,2.4649050129000787
25,162.12,2.4252696587804765
26,165.89,2.3747887931472
27,170.14999999999998,2.317746103037502
28,172.91,2.280789620718684
29,176.94000000000003,2.2268273360313873
30,179.82000000000002,2.188264098456099
31,181.9,2.1604127964739464
32,181.970086,2.159474341645547
33,186.14,2.116878380531919
34,190.91,2.068153438730622
35,194.01000000000002,2.0364876843565716
36,198.07000000000002,1.9950153612707506
37,202.22,1.9526241976122642
38,205.04000000000002,1.9238190164320632
39,208.929613,1.8840859124195577
40,209.81,1.8773248238309712
41,216.19,1.8283349969814005
42,220.20999999999998,1.7974658598300721
43,222.76000000000002,1.7778845521855726
44,226.89999999999998,1.7460945830145032
45,230.05,1.7219621281712978
46,233.79,1.6933620337660322
47,239.79,1.6473564224789745
48,239.88329199999998,1.6466397992052597
49,245.94000000000003,1.610786303076051
50,252.25,1.573468457092031
51,256.94,1.5456546709620704
52,259.91,1.5281334508462951
53,264.14,1.5031221440329192
54,269.05,1.4740689774906788
55,274.05,1.444481239184324
56,275.42287,1.4363574871944802
57,279.14,1.419478113110225
58,283.68,1.3988629968282025
59,290.29,1.368826157776624
60,295.69,1.3443130198473463
61,301.18,1.3193720808759142
62,308.2,1.2874995750878537
63,316.227766,1.2510522032374063
64,318.29,1.244060216628735
65,327.96999999999997,1.211229071148336
66,337.92999999999995,1.1774446328986696
67,348.2,1.1426085366687422
68,357.13,1.1123274797631673
69,363.078055,1.0921664641437496
70,366.29,1.0840158971828233
71,374.83000000000004,1.0623308219203256
72,385.33,1.035640513851681
73,395.21,1.0106014189880421
74,405.35,0.9848943349674653
75,413.84,0.9633523120505326
76,416.86938299999997,0.9556592441932871
77,421.53000000000003,0.9466223168389218
78,430.35999999999996,0.9295081636700012
79,441.4,0.9081749096649175
80,450.64,0.8903023457910978
81,460.08,0.8719940895026932
82,469.71,0.8533712832754328
83,478.630092,0.8361681792860987
84,479.53999999999996,0.8348210183519301
85,489.59000000000003,0.8198112598710301
86,499.84000000000003,0.804708034455187
87,505.63,0.7960447180885789
88,511.48,0.787809441241488
89,519.79,0.7754571516945947
90,529.46,0.7610640765900869
91,540.54,0.7444399601942292
92,549.5408739999999,0.7310962097346078
93,550.5899999999999,0.7299121654245513
94,559.54,0.7202284170694768
95,569.94,0.7087223711708428
96,580.54,0.6967617941972355
97,589.97,0.6862663022622241
98,599.5600000000001,0.6751939174672336
99,610.7,0.6625388130911969
100,620.63,0.6520566079687512
101,630.71,0.6406332197900753
102,630.957344,0.6403645734675169
103,639.48,0.6331187397595132
104,649.87,0.623860476438131
105,657.4000000000001,0.6169858834679666
106,665.01,0.6106481342152507
107,674.26,0.6027018196702282
108,685.22,0.592476354960666
109,694.75,0.584710969926713
110,704.4200000000001,0.5753778411482946
111,715.86,0.5663389647434235
112,724.43596,0.5588579183269204
113,725.8199999999999,0.557972462439935
114,734.23,0.5526046937661184
115,744.4399999999999,0.5458777876805458
116,754.8000000000001,0.53915166631066
117,765.3,0.5317439404087488
118,774.16,0.5267197688819933
119,784.93,0.5193454536683186
120,795.85,0.512670591170331
121,805.06,0.5068911393135117
122,814.38,0.5009521801815295
123,825.71,0.493741789839753
124,831.763771,0.48884144886422826
125,835.2800000000001,0.486589977078864
126,844.95,0.4834571089887803
127,854.7299999999999,0.4786954252823668
128,864.63,0.47427402681268443
129,874.64,0.4695775227266723
130,884.77,0.46480522287739123
131,895.01,0.45996032441178025
132,905.3799999999999,0.4548197130359616
133,915.86,0.449997793043813
134,924.34,0.46572416243947895
135,935.0400000000001,0.48352762521467063
136,945.87,0.5084297250796546
137,954.62,0.5268585115079655
138,954.992586,0.5271733315935372
139,965.67,0.5363107994079946
140,974.61,0.4485252237095475
141,985.89,0.51354414470748
142,995.0100000000001,0.5085719672164466
143,1004.22,0.5362848988291202
144,1015.8499999999999,0.5267234752303573
145,1025.25,0.4603519460619676
146,1034.74,0.492435785997285
147,1044.31,0.5504962540247862
148,1053.97,0.5429577311559942
149,1066.18,0.5099006662255647
150,1076.04,0.5243680635872325
151,1086.0,0.4945977710641305
152,1096.05,0.5207582876447352
153,1096.4782,0.5203030580764927
154,1106.19,0.5108405573476271
155,1113.86,0.504742278782098
156,1124.16,0.4856440929639817
157,1134.57,0.5092565855497497
158,1145.06,0.4933542897019789
159,1155.66,0.4944594722580923
160,1163.67,0.49399031785002323
161,1174.44,0.4432418124848668
162,1185.3,0.4787271076319793
163,1196.27,0.4391834811829759
164,1204.56,0.4120359172575212
165,1215.71,0.37572758183305555
166,1224.1399999999999,0.42187257314890814
167,1235.46,0.4582297598031726
168,1244.03,0.4665632863603322
169,1255.54,0.45793396298494204
170,1258.92541,0.4506724075134731
171,1264.24,0.4398848955074721
172,1275.94,0.4661758814024092
173,1284.7800000000002,0.46977015963413943
174,1293.69,0.4388751219695146
175,1305.6599999999999,0.4339425036927965
176,1314.71,0.4585759342354614
177,1323.82,0.44907310829553637
178,1336.07,0.43176102643339787
179,1345.3300000000002,0.4489350092869976
180,1354.66,0.44110237624424226
181,1364.05,0.4245424867188969
182,1373.5,0.4262141407109614
183,1386.21,0.42338392581563244
184,1395.8200000000002,0.39415202918745673
185,1405.5,0.3924155166629261
186,1415.24,0.4048794476558053
187,1425.05,0.40169196275232955
188,1434.93,0.4003949619524986
189,1441.55,0.4043555300400613
190,1445.43977,0.4041771211158983
191,1448.2,0.4042888682851151
192,1454.89,0.398209008128395
193,1464.9699999999998,0.386732636322754
194,1475.13,0.38470309728056024
195,1485.35,0.384140682810952
196,1495.65,0.383204701104791
197,1506.0200000000002,0.37453994806664637
198,1512.9699999999998,0.3604288943911301
199,1516.45,0.3661346196010873
200,1523.45,0.3616720864027254
201,1534.01,0.3430418111777682
202,1544.6499999999999,0.34333396871625826
203,1555.3500000000001,0.3364124508273336
204,1566.14,0.3402674697972874
205,1573.3600000000001,0.3464144266984056
206,1584.2700000000002,0.34886059481353016
207,1595.25,0.34903599159667126
208,1606.31,0.34246132114325956
209,1613.7299999999998,0.3399892599529961
210,1624.9099999999999,0.3329138386447553
211,1636.17,0.3368336500999618
212,1643.73,0.336321246245731
213,1655.12,0.32688401094153946
214,1659.58691,0.32930537114866454
215,1666.59,0.33352029607512007
216,1670.43,0.3197951023065369
217,1678.1499999999999,0.33462482316761444
218,1685.8899999999999,0.335967248227814
219,1693.6699999999998,0.32739448168625745
220,1705.41,0.32150484657084943
221,1713.28,0.3150370989253418
222,1725.16,0.31214469320378757
223,1733.12,0.3179536644543287
224,1745.14,0.3133987881266282
225,1753.19,0.3180810782732182
226,1765.34,0.3071420292398105
227,1773.49,0.3078656403820102
228,1785.79,0.3080323228420172
229,1794.03,0.31270245288026577
230,1806.46,0.3096515626345656
231,1814.8,0.300536213668424
232,1823.18,0.3006064731005263
233,1835.82,0.29484542694560667
234,1844.2900000000002,0.2846121052737578
235,1857.0700000000002,0.28395828851269195
236,1865.65,0.2856330899360139
237,1874.26,0.2903844976580189
238,1882.9099999999999,0.28062821377826763
239,1895.9599999999998,0.2751559537053483
240,1904.71,0.27901439082120694
241,1905.46072,0.2786181016626571
242,1913.5,0.27467459974451214
243,1926.77,0.2697235142565317
244,1935.6599999999999,0.27101071817603845
245,1944.6,0.2757674000703455
246,1953.57,0.26752310874953283
247,1967.11,0.27462896432547446
248,1976.1899999999998,0.27606460454922255
249,1985.32,0.2695795227477711
250,1994.4799999999998,0.2655401677311999
251,2003.6799999999998,0.2665626150944689
252,2012.93,0.2630953404325383
253,2026.89,0.2641846709968031
254,2036.24,0.2590551522844733
255,2045.6399999999999,0.2611372115469438
256,2055.08,0.2515211731892547
257,2064.57,0.25265161280636583
258,2074.1,0.2607731548033174
259,2078.88,0.2574522891942333
260,2083.67,0.26036739918010926
261,2093.29,0.25348482153170143
262,2102.9500000000003,0.2527701462631339
263,2112.6600000000003,0.25315584896936677
264,2127.3,0.25193421999091664
265,2137.1200000000003,0.24416385424171036
266,2146.9900000000002,0.24581136646730445
267,2156.9,0.24751728107273885
268,2166.85,0.24243979805801352
269,2176.85,0.24088499301808855
270,2186.9,0.23932676595296398
271,2187.7616199999998,0.23958157948195347
272,2197.0,0.2426198262015848
273,2207.14,0.2386883635810498
274,2217.32,0.2322917287213805
275,2227.56,0.2298300355030099
276,2232.69,0.235862495834041
277,2243.0,0.2310164511971854
278,2253.35,0.22534813432119558
279,2263.75,0.22559975214628786
280,2274.2000000000003,0.22709630467246233
281,2284.7000000000003,0.229145391899719
282,2295.25,0.2219863138280579
283,2305.84,0.22339456351726245
284,2316.48,0.21874854790754922
285,2327.1800000000003,0.20205031393913453
286,2332.54,0.21081448389514368
287,2343.31,0.2059149385082441
288,2354.12,0.21329447088221026
289,2364.99,0.204331304897475
290,2375.91,0.20654255361382193
291,2386.87,0.1982065500910346
292,2392.38,0.20243993415029024
293,2403.42,0.1993430061492344
294,2414.5099999999998,0.20041048284926072
295,2425.66,0.20635293119058568
296,2436.85,0.2026480372927763
297,2442.47,0.20683658769441277
298,2453.75,0.20532901625855132
299,2465.07,0.20314885258355567
300,2476.45,0.19901115054985863
301,2482.16,0.19762642341344294
302,2493.62,0.19057645690147734
303,2505.1299999999997,0.20216897509059395
304,2510.8999999999996,0.18943142959547693
305,2511.88643,0.18948018690271826
306,2516.6899999999996,0.18980248334595723
307,2522.4900000000002,0.18758957810941873
308,2534.13,0.18936067208298638
309,2545.83,0.18832127772652085
310,2557.58,0.19504423142836105
311,2563.48,0.19096842230843397
312,2575.31,0.19528969490356335
313,2587.2000000000003,0.19332331916865947
314,2593.16,0.19116173171869927
315,2605.13,0.18735695487708454
316,2617.1499999999996,0.1848663960937756
317,2623.19,0.18964343753710444
318,2635.2999999999997,0.19472648125874573
319,2647.46,0.20384455303869267
320,2653.56,0.20901735615198844
321,2665.81,0.19549138043688566
322,2671.96,0.1998004016084871
323,2684.2899999999995,0.2010977947866735
324,2696.6800000000003,0.1927812696348266
325,2702.8999999999996,0.19679609608805612
326,2715.37,0.18893831982949844
327,2727.91,0.18671260885256868
328,2734.19,0.191221516975765
329,2746.8199999999997,0.17639684850378556
330,2753.1499999999996,0.1798091046852876
331,2765.86,0.18401976510659723
332,2772.23,0.18757618573474377
333,2785.03,0.17800177866100375
334,2797.8799999999997,0.1596837896455694
335,2804.33,0.16370180916700508
336,2817.2799999999997,0.18325299626818214
337,2823.77,0.19114151023626239
338,2836.7999999999997,0.1873511562307286
339,2843.3399999999997,0.18253261825711453
340,2856.47,0.1738870903681921
341,2863.0499999999997,0.18831913684122265
342,2876.2700000000004,0.19102467145725044
343,2882.9,0.1885882059885867
344,2884.0315,0.18869442647524232
345,2896.21,0.19002243379464473
346,2909.57,0.20150590231938714
347,2929.7400000000002,0.19497291408166667
348,2950.05,0.1917440201248941
349,2970.5,0.1936850204490695
350,2991.09,0.1932983150541927
351,3011.82,0.19396710394026387
352,3032.7,0.1941140224130649
353,3046.7,0.19493335050785487
354,3067.82,0.19591281631942373
355,3089.0800000000004,0.1955257764119405
356,3110.4900000000002,0.19737376609118717
357,3132.06,0.19391452066294568
358,3146.51,0.19365023751792532
359,3168.32,0.19548993942845172
360,3190.29,0.18714230623148997
361,3212.4,0.19188756731547613
362,3227.23,0.1835366257901715
363,3249.6000000000004,0.19575920482448944
364,3272.12,0.20284901344553735
365,3287.2200000000003,0.20106422517634648
366,3310.0099999999998,0.19885288705350818
367,3311.31121,0.19870240886447055
368,3325.29,0.19723453368445013
369,3332.9500000000003,0.20207086117300888
370,3340.6400000000003,0.19184141370395097
371,3348.34,0.20770850791568757
372,3356.06,0.20162168548901307
373,3363.8,0.1806266464239275
374,3371.5499999999997,0.18485564903963642
375,3379.32,0.20179513501693425
376,3387.1099999999997,0.19895440435582096
377,3394.92,0.19377875705629663
378,3402.7400000000002,0.21074485143756677
379,3410.59,0.1930758708612203
380,3418.4500000000003,0.19213873196566827
381,3426.3300000000004,0.19808957643170516
382,3434.2299999999996,0.20825920425933103
383,3442.15,0.1910839154485458
384,3450.08,0.19640156831855504
385,3458.03,0.19788490455015317
386,3466.0099999999998,0.19417366582413476
387,3474.0,0.20186566877891077
388,3482.0099999999998,0.1913752550952757
389,3490.03,0.20145388309243506
390,3498.08,0.18833193613197785
391,3506.14,0.20264243085231515
392,3514.2200000000003,0.1914360089342413
393,3522.3300000000004,0.20190441205855086
394,3530.44,0.18954171518286042
395,3538.58,0.20343314334955337
396,3546.74,0.20635995487783526
397,3554.9199999999996,0.20631634976770608
398,3563.1099999999997,0.20134458633837135
399,3571.32,0.18717860627062552
400,3579.56,0.18916995124526315
401,3587.81,0.17537483790069516
402,3596.08,0.19295920791771615
403,3603.29,0.327537559770524
404,3606.04,0.22469442198900139
405,3608.7799999999997,0.2859255425266843
406,3611.5199999999995,0.19160516306436715
407,3614.27,0.1627920252828445
408,3617.0099999999998,0.11867743582052742
409,3619.75,0.07301298635821028
410,3622.49,0.12237428689589316
411,3625.2400000000002,0.056197966114370515
412,3627.98,0.12479413965205341
413,3630.7200000000003,0.04297011018973629
414,3633.46,0.14681202072741917
415,3636.2100000000005,0.21189837294589653
416,3638.9500000000003,-0.01864839651642059
417,3641.69,0.08596203402126229
418,3644.4300000000003,0.1750753345589452
419,3647.18,0.13587595677742254
420,3649.9199999999996,0.14013639731510544
421,3652.66,0.2203852378527883
422,3655.3999999999996,0.31023175839047124
423,3658.15,0.17676062060894854
424,3660.89,0.22424364114663145
425,3663.63,0.3249854616843143
426,3666.37,0.09565495222199721
427,3669.1200000000003,0.09377116444047456
428,3671.86,0.23629456497815746
429,3674.6,0.1772711855158403
430,3677.34,0.21482650605352321
431,3680.0899999999997,0.17680046827200058
432,3682.8300000000004,0.24322918880968344
433,3685.57,0.18428160934736634
434,3688.3199999999997,0.1515237315658437
435,3691.06,0.18563429210352658
436,3693.7999999999997,0.21073791264120945
437,3696.54,0.16988013317889236
438,3699.29,0.2996366953973697
439,3702.03,0.2313194159350526
440,3704.77,0.2539280364727355
441,3707.5099999999998,0.2863002570104184
442,3710.26,0.08634627922889572
443,3713.0,0.1044701297665786
444,3715.7400000000002,0.2163491603042615
445,3718.48,0.15870318084194437
446,3721.23,0.17315964306042173
447,3723.97,0.14344650359810462
448,3726.7099999999996,0.3794671841357875
449,3729.4500000000003,0.24444450467347037
450,3732.2,0.3018017668919477
451,3734.94,0.12372463742963061
452,3737.68,0.3131972079673135
453,3740.42,0.17407442850499638
454,3743.17,0.13671829072347375
455,3745.91,0.18642731126115664
456,3748.65,0.2060606317988395
457,3751.3999999999996,0.20176809401731688
458,3754.1400000000003,0.26294311455499975
459,3756.88,0.1651402350926826
460,3759.6200000000003,0.04544971563036551
461,3762.37,0.12187132784884289
462,3765.1099999999997,0.20042653838652577
463,3767.85,0.22064305892420863
464,3770.5899999999997,0.26291587946189154
465,3773.34,0.1437525316803689
466,3776.08,0.15967026221805178
467,3778.82,0.21554118275573464
468,3781.56,0.14589658329341754
469,3784.3100000000004,0.2927646655118949
470,3787.05,0.22264558604957776
471,3789.79,0.23305340658726068
472,3792.53,0.24301362712494354
473,3795.2799999999997,0.1461394193434209
474,3798.0199999999995,0.16936710988110382
475,3800.76,0.23417283041878667
476,3801.8939600000003,0.23449705215342573
477,3803.5,0.23496828345066403
478,3806.25,0.27634334874193833
479,3808.99,0.16326769743215347
480,3811.73,0.2367056461223686
481,3814.47,0.1730519948125837
482,3817.2200000000003,0.19584986010385802
483,3819.96,0.18324520879407313
484,3822.7,0.23066405748428828
485,3825.4500000000003,0.19153562277556258
486,3828.19,0.1523485914657777
487,3830.9300000000003,0.14546873015599282
488,3833.67,0.12384971884620796
489,3836.4199999999996,0.15251530413748227
490,3839.16,0.20135118282769737
491,3841.8999999999996,0.1491599615179125
492,3844.64,0.16073468020812764
493,3847.39,0.17446424549940195
494,3850.13,0.20141899418961706
495,3852.87,0.13320143287983222
496,3855.6099999999997,0.14445478157004732
497,3858.36,0.2836561568613216
498,3861.1,0.20700410555153675
499,3863.84,0.19061535424175188
500,3866.58,0.22599050293196699
501,3869.3300000000004,0.1538435682232413
502,3872.07,0.15279865691345643
503,3874.8100000000004,0.21193436560367154
504,3877.55,0.2285154142938867
505,3880.2999999999997,0.202057079585161
506,3883.04,0.16066032827537613
507,3885.7799999999997,0.12548291696559125
508,3888.5199999999995,0.16157652565580638
509,3891.27,0.24255819094708067
510,3894.0099999999998,0.20461143963729578
511,3896.75,0.19710518832751092
512,3899.5,0.2732067536187852
513,3902.2400000000002,0.27956580230900036
514,3904.98,0.23154515099921547
515,3907.7200000000003,0.17865529968943059
516,3910.47,0.19344636498070492
517,3913.2099999999996,0.19521611367092004
518,3915.9500000000003,0.16259516236113514
519,3918.69,0.1956702110513503
520,3921.44,0.19197957634262458
521,3924.18,0.23599702503283973
522,3926.92,0.20995127372305483
523,3929.66,0.22222122241326997
524,3932.41,0.15407138770454426
525,3935.15,0.1574948363947594
526,3937.89,0.2589810850849745
527,3940.63,0.19336863377518965
528,3943.38,0.20669549906646395
529,3946.1200000000003,0.23156324775667908
530,3948.86,0.2012080964468942
531,3951.6,0.2790585451371093
532,3954.35,0.2542555104283836
533,3957.0899999999997,0.22821355911859875
534,3959.83,0.21431980780881388
535,3962.58,0.2365741731000882
536,3965.32,0.1677195217903033
537,3968.06,0.16163227048051843
538,3970.7999999999997,0.18886141917073357
539,3973.55,0.11008713446200788
540,3976.29,0.094375313152223
541,3979.03,0.23482878184243813
542,3981.77,0.20271333053265322
543,3984.5199999999995,0.25765589582392756
544,3987.26,0.25289384451414265
545,3990.0,0.2586210932043578
546,3992.7400000000002,0.2681396418945729
547,3995.49,0.25203860718584725
548,3998.23,0.20091985587606237
549,4000.97,0.2295375045662775
550,4003.7099999999996,0.27322825325649264
551,4006.46,0.1989941185477669
552,4009.2,0.15112676723798205
553,4011.94,0.29726911592819716
554,4014.68,0.24755316461841229
555,4017.4300000000003,0.2757380299096866
556,4020.17,0.3260581785999017
557,4022.9100000000003,0.27825592729011683
558,4025.65,0.20484427598033197
559,4028.3999999999996,0.2483118412716063
560,4031.14,0.2789532899618214
561,4033.88,0.30818663865203655
562,4036.63,0.29766400394331083
563,4039.37,0.23677295263352596
564,4042.1099999999997,0.3068980013237411
565,4044.85,0.2666421500139562
566,4047.6,0.2632872153052305
567,4050.34,0.22189226399544562
568,4053.08,0.3068413126856608
569,4055.82,0.2221640613758759
570,4058.57,0.2152797266671502
571,4061.3100000000004,0.2261359753573653
572,4064.05,0.20453512404758042
573,4066.79,0.22944447273779556
574,4069.54,0.25282893802906986
575,4072.2799999999997,0.305405686719285
576,4075.0199999999995,0.17693373540950014
577,4077.76,0.14235568409971525
578,4080.5099999999998,0.2976357493909896
579,4083.25,0.2733756980812047
580,4085.99,0.25254584677141984
581,4088.73,0.2690331954616349
