,lambda (Angstroms),Total Flux (erg/s/cm^2/Angstrom)
0,102.08999999999999,22.83703001856872
1,103.97999999999999,22.772279353119163
2,104.712855,22.747172050334132
3,105.92,22.52993288465786
4,107.89,22.175409580993584
5,109.89,21.815487811229005
6,114.02000000000001,21.072248927827495
7,118.02,20.352405217407327
8,120.22644299999999,19.95534125544445
9,121.05,19.831087952506746
10,125.02,19.232105212425427
11,127.05,18.925823835934853
12,127.93,18.793052411174305
13,130.91,18.343437644531093
14,132.12,18.160880668307843
15,133.96,17.883266621945793
16,137.07999999999998,17.412537240868414
17,138.038426,17.267933117661986
18,139.95000000000002,17.06178205504109
19,142.88,16.745899184462157
20,146.88,16.314758144771126
21,151.0,15.87047433885836
22,154.87,15.453160451482535
23,158.489319,15.06288541695738
24,158.83999999999997,15.034298348261439
25,162.17,14.762833349848012
26,165.94,14.455520663431313
27,169.81,14.140043870618415
28,172.97,13.882448223358528
29,177.0,13.55393151557171
30,179.87,13.319978157920799
31,181.95,13.150423972359864
32,181.970086,13.148786614366754
33,186.19,12.886366131358287
34,190.97,12.589126862511014
35,194.07,12.396363498917594
36,198.14,12.143267696490103
37,201.82,11.91444339893404
38,205.1,11.710480587938424
39,208.929613,11.47229806510331
40,209.88,11.427860563036928
41,215.76000000000002,11.153066614513843
42,219.77,10.965632950560172
43,222.82,10.823043645059256
44,226.96999999999997,10.62907077216456
45,230.12,10.482764978991478
46,233.86,10.309775426852646
47,239.86,10.030811567522967
48,239.88329199999998,10.029720994031058
49,246.01999999999998,9.808219808905628
50,251.75,9.602317621546213
51,257.02,9.411188359159809
52,259.99,9.305327393638436
53,264.22,9.153323466017088
54,269.13,8.97644580508782
55,274.13,8.796276683294266
56,275.42287,8.749697773293269
57,279.23,8.644440896829591
58,283.77,8.518927492318841
59,289.71,8.354357197527245
60,295.78000000000003,8.186606917509568
61,301.28,8.034351626406238
62,308.28999999999996,7.840668349599994
63,316.227766,7.621371641149132
64,317.66,7.591828786870446
65,328.07000000000005,7.376823150423027
66,338.04,7.170823132297114
67,348.31,6.958593005633811
68,357.24,6.7741268599041815
69,363.078055,6.653626012418896
70,366.41,6.602135809292377
71,374.94,6.470077244288233
72,384.55999999999995,6.32090015274663
73,395.33,6.1545971997847735
74,404.53999999999996,6.012252978775609
75,413.96000000000004,5.866393629176658
76,416.86938299999997,5.821305736180771
77,421.66,5.764578632774342
78,430.48999999999995,5.660136130460445
79,440.52,5.5416758415410365
80,450.78,5.420325569813905
81,460.22,5.308560153183872
82,469.84999999999997,5.194705067799635
83,478.630092,5.091018741217225
84,479.69,5.081393334049028
85,489.73999999999995,4.989719643381644
86,499.99,4.896760271820379
87,505.78,4.843844092492603
88,511.64,4.791174592001968
89,519.95,4.715537382811324
90,529.62,4.627431940742309
91,539.46,4.537604178563495
92,549.49,4.446304468085499
93,549.5408739999999,4.445843535449676
94,559.71,4.375620034040613
95,570.12,4.303643283687656
96,579.38,4.239271058887619
97,590.15,4.164569543274618
98,599.74,4.0976188124028745
99,609.49,4.029308334193333
100,619.39,3.9616193070421066
101,629.45,3.8916582225530814
102,630.957344,3.8812267584352877
103,639.68,3.8333926953792474
104,650.0699999999999,3.7761108406054746
105,657.6,3.7344711597694284
106,665.22,3.6927968979353434
107,674.4699999999999,3.641995316136749
108,685.4300000000001,3.5813153533753863
109,694.97,3.529149019583106
110,704.63,3.4755296827934385
111,716.08,3.4130468000427445
112,724.43596,3.367079189387407
113,726.04,3.360526402109912
114,734.4499999999999,3.3261608491526307
115,744.6700000000001,3.2843093623436626
116,755.03,3.24196304746882
117,765.53,3.1985804715281003
118,774.4,3.1628116513543687
119,785.1700000000001,3.118602187286601
120,794.26,3.0816291500093502
121,805.3100000000001,3.0365514058098304
122,814.64,2.9984332604196484
123,824.0699999999999,2.9599446169824115
124,831.763771,2.9281851637286787
125,835.53,2.9165174115269146
126,845.21,2.8873939385148066
127,854.99,2.857475327492245
128,864.89,2.827302155457135
129,874.91,2.7967207894094788
130,885.04,2.7657879898503213
131,895.29,2.7344817482786175
132,905.66,2.7027627016943656
133,914.04,2.677191391818182
134,924.62,2.647850482711974
135,935.33,2.618559708092174
136,943.9799999999999,2.59593584468776
137,954.9100000000001,2.565746219044957
138,954.992586,2.5654961608818154
139,965.97,2.5329810781704643
140,974.91,2.495773016018319
141,983.93,2.475035958124321
142,995.3199999999999,2.4419505628779072
143,1004.53,2.4199269345970054
144,1016.16,2.385586538125031
145,1025.57,2.3495324104894952
146,1035.05,2.3244622770798378
147,1044.63,2.305503053992863
148,1054.3,2.2758996791963035
149,1064.05,2.2415051106578896
150,1073.9,2.2152025624421587
151,1083.83,2.180746700484575
152,1093.86,2.1566543188496734
153,1096.4782,2.1485644137272883
154,1103.98,2.1294404843123336
155,1114.2,2.1032686735607906
156,1124.51,2.075515527567796
157,1134.9099999999999,2.05534443633335
158,1145.42,2.027760916470461
159,1156.01,2.003007463059616
160,1164.03,1.983470154876899
161,1174.8,1.9496650909831497
162,1185.67,1.9297009501544535
163,1193.8899999999999,1.9034040781018435
164,1204.93,1.872620878483738
165,1216.08,1.8436930552371924
166,1224.51,1.8296186526211935
167,1235.84,1.8086005238917435
168,1244.4099999999999,1.7892473625668197
169,1255.92,1.759662933354465
170,1258.92541,1.7513525899588993
171,1264.6299999999999,1.7395786553672832
172,1276.33,1.7246677474127643
173,1285.1799999999998,1.7104279378061416
174,1294.09,1.6883789192869312
175,1306.06,1.6673614562257697
176,1315.11,1.657208680243856
177,1324.23,1.6399959355305902
178,1336.4799999999998,1.615307427544022
179,1345.75,1.6039222355492877
180,1355.07,1.5867955244607312
181,1364.47,1.567381604822058
182,1373.9299999999998,1.551950476270798
183,1383.45,1.5353764788069504
184,1396.25,1.5092656807883318
185,1405.93,1.4928368962242515
186,1415.67,1.4773001627475835
187,1425.49,1.4608128107208
188,1435.37,1.4436117897814287
189,1441.99,1.4332068397592994
190,1445.43977,1.4274371205176841
191,1448.6499999999999,1.4237558280526026
192,1455.34,1.4147245067445013
193,1465.42,1.4006015096165993
194,1475.58,1.3884344444162544
195,1485.81,1.376597713402521
196,1496.11,1.3643617465753992
197,1506.48,1.3504374839348894
198,1513.43,1.339674563891346
199,1516.9199999999998,1.3368047554809914
200,1523.92,1.3276805841421706
201,1534.49,1.3121138063205517
202,1545.1200000000001,1.3002600149445998
203,1555.83,1.2865979554962046
204,1566.62,1.2742420679753652
205,1573.85,1.2666828146782694
206,1584.76,1.2545321300487646
207,1595.74,1.2415315896058718
208,1606.8,1.2279184410905355
209,1614.22,1.2190305748713857
210,1625.4099999999999,1.2045914769883284
211,1636.68,1.1923483910328272
212,1644.2300000000002,1.183576405445956
213,1655.6299999999999,1.1685367001227343
214,1659.58691,1.1646041810968892
215,1663.27,1.1622848095927127
216,1670.95,1.1533873574744398
217,1678.6599999999999,1.1498485815978923
218,1686.41,1.1441843707103114
219,1694.1899999999998,1.136438326064457
220,1705.94,1.1258746940736093
221,1713.81,1.118095508152931
222,1725.69,1.108027739876227
223,1733.6599999999999,1.102939711427967
224,1745.67,1.092576186865407
225,1753.73,1.0872402671423234
226,1765.8899999999999,1.075604803788391
227,1774.04,1.0689572827904839
228,1786.34,1.0594343118979368
229,1794.5800000000002,1.0540564296252062
230,1807.02,1.043853011194045
231,1815.3600000000001,1.0349904263937324
232,1823.74,1.0288572265823877
233,1836.3799999999999,1.0177790930960633
234,1844.8600000000001,1.0091731907571366
235,1853.3700000000001,1.0023837346599351
236,1866.22,0.9925415748656891
237,1874.8400000000001,0.9874419249881481
238,1883.4899999999998,0.9784376613523329
239,1896.55,0.966886695250165
240,1905.3,0.961633299086768
241,1905.46072,0.9614837786346229
242,1914.09,0.9554181705979662
243,1922.9299999999998,0.9496769249021104
244,1936.26,0.943367271030418
245,1945.19,0.9392460006272514
246,1954.17,0.9319522142755787
247,1967.72,0.9269930322304603
248,1976.8,0.9228819439817758
249,1985.9299999999998,0.9161906797845852
250,1995.09,0.910548014018291
251,2004.3,0.906834372303491
252,2013.55,0.901139421829886
253,2022.85,0.8974299054077751
254,2036.8700000000001,0.8873536454467006
255,2046.27,0.8833054871275778
256,2055.7200000000003,0.8740959228599487
257,2065.2000000000003,0.8703041170232165
258,2074.74,0.8694782080482772
259,2079.52,0.8644797513711061
260,2084.31,0.863780247504234
261,2093.93,0.856794831011685
262,2103.6,0.85248114857063
263,2113.31,0.84821723737077
264,2123.06,0.8433111474121054
265,2132.86,0.8370007115049347
266,2142.71,0.8316541896492583
267,2152.6,0.828072679034777
268,2162.53,0.8219860096614907
269,2172.52,0.8171639771499976
270,2182.54,0.8110252830694007
271,2187.7616199999998,0.8092987776138599
272,2192.6200000000003,0.8086725189449712
273,2202.74,0.8051099599152896
274,2212.91,0.8004628420761727
275,2223.12,0.7968664051895076
276,2233.38,0.7948587794934073
277,2243.69,0.7911269349878719
278,2254.0499999999997,0.7863118716729013
279,2264.4500000000003,0.7842857093103824
280,2274.9,0.7816643181384285
281,2285.4,0.7787985781570395
282,2295.95,0.7717022493662152
283,2306.55,0.7705585117659557
284,2317.2000000000003,0.7658481153562609
285,2322.54,0.7577221925085831
286,2333.26,0.7600792977656791
287,2344.03,0.7568887242133399
288,2354.85,0.7544508718515658
289,2365.7200000000003,0.7496310206803559
290,2376.64,0.7461430606997114
291,2387.61,0.7406730819096315
292,2393.11,0.7416918528717611
293,2404.16,0.7377291759865848
294,2415.2599999999998,0.7350520602919737
295,2426.4,0.7334357655498138
296,2437.6,0.7286086622363322
297,2443.2200000000003,0.7295016860558172
298,2454.5,0.7260737846472393
299,2465.83,0.7220955644292262
300,2477.21,0.7177354154017778
301,2482.92,0.7154538613642794
302,2494.38,0.6965892142417345
303,2505.8999999999996,0.7081527085478678
304,2511.6699999999996,0.7030441359390474
305,2511.88643,0.7031056980458423
306,2517.46,0.7052906022926395
307,2523.2700000000004,0.7045707114547489
308,2534.9100000000003,0.7035729316177364
309,2546.61,0.6999714572970276
310,2552.4799999999996,0.7024096219754417
311,2564.27,0.6992064209291888
312,2576.1,0.6988223135604722
313,2582.04,0.6979946096745739
314,2593.96,0.6950015155803134
315,2605.9300000000003,0.692451651082973
316,2617.9599999999996,0.6889787921019368
317,2624.0,0.6902550174098785
318,2636.1099999999997,0.6903761357839142
319,2642.1800000000003,0.6921215788500079
320,2654.38,0.6932963004984998
321,2666.6299999999997,0.6838505017439118
322,2672.78,0.6848959921650775
323,2685.12,0.6845211966849456
324,2697.51,0.6778129808017335
325,2703.7299999999996,0.6786687626585877
326,2716.21,0.6742985500498315
327,2722.4700000000003,0.6738461555842215
328,2735.0400000000004,0.6721548462499216
329,2747.6600000000003,0.6666365165125419
330,2753.9900000000002,0.66729271348262
331,2766.71,0.6661828429390803
332,2773.08,0.6684082635866945
333,2785.89,0.6630084963176108
334,2792.31,0.6554980965621451
335,2805.2,0.6563423766481336
336,2818.14,0.6594919363310421
337,2824.64,0.6607404839306483
338,2837.6800000000003,0.6542465028073969
339,2844.2200000000003,0.6530044740845391
340,2857.3500000000004,0.6483449962357438
341,2863.9300000000003,0.6521456911904222
342,2877.15,0.651995116616083
343,2883.79,0.6514503470870655
344,2884.0315,0.6514312217513086
345,2897.1000000000004,0.651603288205046
346,2910.47,0.6568031115121691
347,2930.64,0.6533642109964377
348,2950.96,0.6491596033375548
349,2971.41,0.6482545294879413
350,2992.0099999999998,0.6458698484951764
351,3012.75,0.6415740808354702
352,3026.66,0.6443375984272489
353,3047.64,0.6435670393385009
354,3068.7599999999998,0.6448994935828118
355,3090.03,0.6409207406839714
356,3111.4500000000003,0.6450211806419799
357,3133.0200000000004,0.6392624134568372
358,3147.4800000000005,0.6409640048570615
359,3169.2999999999997,0.6400488257666669
360,3191.27,0.6327989395331209
361,3213.39,0.6318454461564239
362,3228.22,0.6277101799368752
363,3250.6000000000004,0.6352881541787159
364,3273.13,0.6365327212774055
365,3288.2400000000002,0.6362643817239745
366,3311.0299999999997,0.6300253164412022
367,3311.31121,0.6303534614830407
368,3318.66,0.6394047555608602
369,3326.31,0.6400828623349533
370,3333.9800000000005,0.6418511235058413
371,3341.67,0.6314202390735245
372,3349.37,0.6449472818396051
373,3357.0899999999997,0.6321815790024808
374,3364.83,0.6219672305621514
375,3372.5899999999997,0.6185137365186172
376,3380.36,0.6314974696734803
377,3388.1499999999996,0.6397886572251386
378,3395.96,0.6355564991735916
379,3403.79,0.63571429551884
380,3411.6400000000003,0.628261446260883
381,3419.4999999999995,0.630549224201324
382,3427.3900000000003,0.6373491837369571
383,3435.2899999999995,0.638100670470988
384,3443.21,0.6228185116018137
385,3451.14,0.633390379931037
386,3459.1,0.6290779298554527
387,3467.0800000000004,0.6281168341766635
388,3475.07,0.6293872656962719
389,3483.08,0.6261769516126754
390,3491.11,0.6337136919258737
391,3499.16,0.6276055866358671
392,3507.22,0.632359708544258
393,3515.31,0.6205886120478414
394,3523.4100000000003,0.6309928427498221
395,3531.5299999999997,0.6276946278485982
396,3539.6699999999996,0.6367450673441692
397,3547.83,0.6412444612365351
398,3556.01,0.6353820095256961
399,3564.21,0.6356221122116521
400,3572.42,0.6233124420960057
401,3580.66,0.6176789535755516
402,3586.66,0.547243372614056
403,3589.3399999999997,0.653987461784588
404,3592.0200000000004,0.6392633509551198
405,3594.71,0.7044994673240494
406,3597.39,0.5658231564945813
407,3600.07,0.6062887456651133
408,3602.75,0.5907225348356453
409,3605.43,0.6285494240061773
410,3608.11,0.616548213176709
411,3610.79,0.617839302347241
412,3613.47,0.5940477915177731
413,3616.15,0.607115180688305
414,3618.83,0.553131969858837
415,3621.5199999999995,0.6620205862277664
416,3624.2000000000003,0.6834954753982982
417,3626.88,0.7112865645688303
418,3629.56,0.5664202537393622
419,3632.24,0.5848492429098943
420,3634.9199999999996,0.6404177320804263
421,3637.6,0.6107452212509583
422,3640.28,0.6489090104214901
423,3642.96,0.5444240995920221
424,3645.64,0.5150602887625542
425,3648.3300000000004,0.6121868051314835
426,3651.01,0.6950411943020154
427,3653.69,0.6739447834725474
428,3656.37,0.6534658726430793
429,3659.0499999999997,0.6449177618136114
430,3661.7300000000005,0.5968298509841432
431,3664.4100000000003,0.5762948401546752
432,3667.09,0.6681185293252072
433,3669.77,0.6867582184957393
434,3672.45,0.6529029076662711
435,3675.14,0.5842352240352007
436,3677.82,0.5696935132057326
437,3680.5,0.5913789023762646
438,3683.18,0.5707035915467965
439,3685.86,0.6249806807173284
440,3688.54,0.6092178698878603
441,3691.2200000000003,0.6440691590583923
442,3693.9,0.6063539482289243
443,3696.58,0.6621471373994563
444,3699.2599999999998,0.6336816265699883
445,3701.95,0.7100623429389178
446,3704.6299999999997,0.6534968321094496
447,3707.31,0.6418326212799816
448,3709.9900000000002,0.6320773104505135
449,3712.67,0.6197533996210456
450,3715.35,0.6102786887915775
451,3718.0299999999997,0.6522322779621095
452,3720.71,0.7094851671326413
453,3723.39,0.8079621563031734
454,3726.07,0.8370307454737054
455,3728.7599999999998,0.8033679618426348
456,3731.4399999999996,0.6857036510131668
457,3734.1200000000003,0.6371948401836987
458,3736.8,0.6108629293542306
459,3739.48,0.6175719185247626
460,3742.16,0.5570200076952946
461,3744.8399999999997,0.6238032968658266
462,3747.5199999999995,0.6735468860363585
463,3750.2000000000003,0.6575876752068903
464,3752.88,0.5985796643774224
465,3755.5699999999997,0.6156862807463519
466,3758.25,0.6353083699168838
467,3760.9300000000003,0.7261073590874157
468,3763.61,0.6939785482579477
469,3766.29,0.6272649374284798
470,3768.97,0.6436447265990117
471,3771.6499999999996,0.6361492157695436
472,3774.3300000000004,0.6757728049400755
473,3777.01,0.7409982941106075
474,3779.69,0.7532234832811395
475,3782.38,0.7586093996500689
476,3785.06,0.6828706888206009
477,3787.74,0.6700274779911328
478,3790.42,0.6951517671616647
479,3793.1,0.6770168563321968
480,3795.78,0.6849891455027286
481,3798.46,0.6751496346732607
482,3801.14,0.6537022238437927
483,3801.8939600000003,0.6424995286434192
484,3803.82,0.6139693711234452
485,3806.5,0.7373985109909738
486,3809.19,0.751314734216217
487,3811.87,0.6945486740837454
488,3814.5499999999997,0.714910713951274
489,3817.2299999999996,0.6897538538188026
490,3819.9100000000003,0.7069716936863311
491,3822.59,0.6995563335538597
492,3825.27,0.7050541734213882
493,3827.95,0.6712931132889168
494,3830.6299999999997,0.5927288531564453
495,3833.31,0.5974405930239739
496,3836.0,0.6007321162492171
497,3838.68,0.6166727561167455
498,3841.3599999999997,0.6378627959842742
499,3844.0400000000004,0.7182990358518027
500,3846.7200000000003,0.7096906757193312
501,3849.4,0.6877059155868598
502,3852.08,0.7864171554543883
503,3854.7599999999998,0.7786088953219168
504,3857.4399999999996,0.7814680351894454
505,3860.1200000000003,0.7654344750569739
506,3862.81,0.7505486982822172
507,3865.49,0.7596537381497457
508,3868.17,0.7651656780172742
509,3870.85,0.7437423178848028
510,3873.53,0.7243963577523311
511,3876.21,0.7005166976198598
512,3878.89,0.7072076374873884
513,3881.5699999999997,0.6807873773549169
514,3884.25,0.6411311172224454
515,3886.9300000000003,0.6207324570899739
516,3889.62,0.6348034803152172
517,3892.3,0.6105028201827456
518,3894.98,0.6318191600502743
519,3897.66,0.6819094999178028
520,3900.34,0.6901303397853313
521,3903.02,0.6944069796528598
522,3905.7,0.7376197195203884
523,3908.38,0.705360559387917
524,3911.06,0.7320808992554455
525,3913.74,0.764247339122974
526,3916.4300000000003,0.7504563623482172
527,3919.11,0.7364581022157457
528,3921.79,0.7299270420832744
529,3924.47,0.6927272819508028
530,3927.1499999999996,0.6875296218183314
531,3929.8300000000004,0.6601689616858599
532,3932.51,0.5923705015533884
533,3935.19,0.646362841420917
534,3937.87,0.5974286812884455
535,3940.5499999999997,0.6658924211559741
536,3943.2400000000002,0.6886095443812172
537,3945.92,0.6563644842487458
538,3948.6,0.6743402241162744
539,3951.2799999999997,0.7524465639838029
540,3953.96,0.7300267038513315
541,3956.6400000000003,0.6772187437188599
542,3959.32,0.6753195835863885
543,3962.0,0.6478185234539171
544,3964.68,0.5991511633214457
545,3967.3599999999997,0.5537962031889742
546,3970.0400000000004,0.5912541430565027
547,3972.73,0.588524266281746
548,3975.41,0.6758802061492745
549,3978.09,0.702881246016803
550,3980.77,0.7555542858843316
551,3983.4500000000003,0.77528472575186
552,3986.13,0.7948887656193886
553,3988.81,0.7712758054869171
554,3991.49,0.7953574453544457
555,3994.17,0.8083786852219743
556,3996.85,0.7913627250895028
557,3999.54,0.781571848314746
558,4002.2200000000003,0.8680575881822745
559,4004.9,0.817256928049803
560,4007.58,0.8238917679173317
561,4010.2599999999998,0.7954083077848602
562,4012.94,0.8308452476523887
563,4015.62,0.7722121875199173
564,4018.3,0.8170251273874458
565,4020.98,0.8206281672549743
566,4023.66,0.8178588071225028
567,4026.3500000000004,0.819352730347746
568,4029.03,0.8064914702152746
569,4031.71,0.7917214100828032
570,4034.39,0.7805865499503317
571,4037.0699999999997,0.8359543898178602
572,4039.7499999999995,0.8114151296853889
573,4042.4300000000003,0.8068351695529172
574,4045.11,0.8577398094204458
575,4047.79,0.8190240492879745
576,4050.47,0.804323989155503
577,4053.1600000000003,0.8396589123807461
578,4055.84,0.8451848522482748
579,4058.52,0.7312639921158033
580,4061.2,0.8190272319833317
581,4063.88,0.8286656718508603
582,4066.5600000000004,0.7845179117183888
583,4069.2400000000002,0.7667581515859174
584,4071.92,0.7564092914534459
585,4074.6,0.7622299313209744
586,4077.2799999999997,0.798775671188503
587,4079.97,0.7643795944137463
588,4082.65,0.8185965342812748
589,4085.33,0.7996716741488032
590,4088.01,0.8025307140163318
591,4090.69,0.8010667538838603
592,4093.37,0.7910266937513889
593,4096.05,0.6893170336189174
594,4098.73,0.662223073486446
