,lambda (Angstroms),Total Flux (erg/s/cm^2/Angstrom)
0,102.05000000000001,22.71057509448395
1,103.95,22.645845965570214
2,104.712855,22.619857049971785
3,105.88,22.410991753694283
4,108.10000000000001,22.01371381673256
5,110.11,21.654016225162554
6,113.96999999999998,20.96325368613016
7,117.97999999999999,20.245648043258143
8,120.22644299999999,19.843638025123752
9,121.01,19.726077706189276
10,124.97,19.131942419233862
11,127.0,18.827373067603418
12,127.88000000000001,18.695343003865766
13,130.86,18.248241197095414
14,132.07,18.066699859551925
15,133.91,17.790636999068766
16,137.03,17.322530409797455
17,138.038426,17.17123205871191
18,139.9,16.97159320140442
19,143.16,16.621984393184523
20,147.17,16.191944118531616
21,150.94,15.787641909423106
22,155.17,15.334008397770358
23,158.489319,14.978038108932198
24,159.14999999999998,14.924472147815464
25,162.10999999999999,14.68448455377103
26,165.89,14.378013914847482
27,170.14000000000001,14.033437138916442
28,172.91,13.808854163868642
29,176.93,13.482925082771079
30,179.81,13.249423656889746
31,181.89000000000001,13.080783739146783
32,181.970086,13.074290615937262
33,186.13000000000002,12.816983635570319
34,190.9,12.521940463797081
35,194.0,12.3301933359306
36,198.07000000000002,12.078447919604294
37,202.21,11.822372743910535
38,205.03,11.647944740139765
39,208.929613,11.406738446797993
40,209.79999999999998,11.366263147901902
41,216.17999999999998,11.069576354313705
42,220.20000000000002,10.88263579234657
43,222.75,10.764054107970516
44,226.89000000000001,10.571533271619474
45,230.04,10.425050860966879
46,233.78,10.251132896197866
47,239.78,9.972118795595442
48,239.88329199999998,9.967315451648469
49,245.93,9.750630018850913
50,252.24,9.524510359996555
51,256.93,9.356441983560973
52,259.9,9.25001274662872
53,264.12,9.09878884583654
54,269.03,8.92283835229494
55,274.04,8.743304348598786
56,275.42287,8.69374903847463
57,279.13,8.591796302544283
58,284.32,8.449062072810735
59,290.27,8.285425853647265
60,295.67,8.13691685473571
61,301.17,7.985656828606535
62,308.18,7.792870084330277
63,316.227766,7.571543164771953
64,318.28000000000003,7.529388338120584
65,327.95,7.330757505839032
66,337.92,7.125964178192188
67,348.18,6.91521397210323
68,357.11,6.731783776966729
69,363.078055,6.609194913734288
70,366.28000000000003,6.559940072700174
71,374.81,6.428724623390075
72,385.31,6.267202939939601
73,395.19,6.1152226722608685
74,405.33,5.959241705042697
75,413.82,5.828641861961741
76,416.86938299999997,5.781733447719938
77,422.48,5.715824018265919
78,430.34000000000003,5.623491080258317
79,441.37999999999994,5.493803468412828
80,450.62,5.385259655799539
81,460.04999999999995,5.274483183924018
82,469.68999999999994,5.16124051651024
83,478.630092,5.056220539354723
84,479.52000000000004,5.048180704647785
85,489.56,4.957472287722087
86,499.81,4.864869869788182
87,505.6,4.812558461961909
88,511.46,4.759621555766231
89,519.77,4.684543994441476
90,529.43,4.597268987963962
91,540.52,4.49707163459723
92,549.5408739999999,4.415571995847683
93,550.5600000000001,4.408548280167087
94,559.51,4.3468702039567
95,569.91,4.275196728737366
96,580.51,4.20214023899266
97,589.9399999999999,4.13715136640138
98,599.53,4.071054472649802
99,610.6700000000001,3.994264001126592
100,620.59,3.92591512828815
101,630.68,3.8563737044231434
102,630.957344,3.854462357264385
103,639.45,3.808066024095577
104,649.84,3.7513007988851297
105,657.37,3.7101597160123037
106,664.98,3.6685862988649975
107,674.23,3.6180501487408754
108,685.1899999999999,3.558164598437266
109,694.72,3.506107469602466
110,704.38,3.4533229422341387
111,715.8299999999999,3.390776881611847
112,724.43596,3.343759176315528
113,725.7800000000001,3.3383086714187935
114,734.1899999999999,3.304204267936951
115,744.4000000000001,3.26280172113664
116,754.76,3.2207893507014576
117,765.26,3.178195616160394
118,774.1199999999999,3.142283183273935
119,784.89,3.098606022250101
120,795.81,3.0543253717913945
121,805.0200000000001,3.0169797493902326
122,814.34,2.979185659970165
123,825.67,2.9332455348228077
124,831.763771,2.9085154750110775
125,835.23,2.897998706009911
126,844.91,2.8686861496180835
127,854.69,2.839042098518695
128,864.5899999999999,2.809041542570235
129,874.5999999999999,2.778708004643459
130,884.7199999999999,2.748043077738366
131,894.9699999999999,2.7169805735134447
132,905.33,2.6855758076102076
133,915.8199999999999,2.6538993259871426
134,924.29,2.629905304356793
135,934.99,2.599900466647851
136,945.82,2.571233094619081
137,954.57,2.5484653137075624
138,954.992586,2.547257710263048
139,965.62,2.51758420013517
140,974.5600000000001,2.479269197398187
141,985.84,2.4560389812334043
142,994.97,2.429814907055702
143,1004.1700000000001,2.4089195157156307
144,1015.8000000000001,2.3737854757389965
145,1025.2,2.3348466309350107
146,1034.68,2.3124165139454584
147,1044.26,2.2971560837239493
148,1053.92,2.2683784753168736
149,1066.12,2.2268584870180836
150,1075.99,2.202055547123898
151,1085.95,2.167300458020951
152,1095.99,2.1446781107324377
153,1096.4782,2.143196069016117
154,1106.13,2.1190846661333964
155,1113.8,2.0997082354541856
156,1124.11,2.0722575728201997
157,1134.51,2.053879415119573
158,1145.01,2.0257631973449026
159,1155.6,2.002234414503592
160,1166.29,1.9776513015882373
161,1174.38,1.9484986505980382
162,1185.24,1.9312627325568075
163,1196.21,1.8948158494341283
164,1204.5,1.8686909982958404
165,1215.65,1.8360317350398805
166,1224.07,1.8272597088053355
167,1235.3999999999999,1.811724805416096
168,1243.96,1.794833499077888
169,1255.47,1.765592005555368
170,1258.92541,1.7552342607691527
171,1264.18,1.743147225229323
172,1275.8700000000001,1.7327251859012718
173,1284.72,1.719865921790643
174,1293.6200000000001,1.6956464757923835
175,1305.5900000000001,1.674680599893601
176,1314.6399999999999,1.66827143823245
177,1323.76,1.6509797199286154
178,1336.0,1.625143439836627
179,1345.27,1.6167966558699007
180,1354.59,1.599516910015544
181,1363.98,1.5788671475185037
182,1373.4299999999998,1.5648913507563071
183,1386.1399999999999,1.5437803189205905
184,1395.75,1.5219664541179754
185,1405.43,1.5070147726726775
186,1415.17,1.491182246962223
187,1424.9800000000002,1.4756458846090847
188,1434.85,1.458559087990791
189,1441.48,1.4497100416909636
190,1445.43977,1.4434194492136285
191,1448.1299999999999,1.4405521688230578
192,1454.82,1.4314162296402049
193,1464.9,1.4160274917682827
194,1475.05,1.403956074188917
195,1485.28,1.3926743426581865
196,1495.57,1.3812472656639327
197,1505.94,1.3667246547183145
198,1512.89,1.353906715193527
199,1516.3799999999999,1.3524871840652526
200,1523.38,1.3430124933208623
201,1533.94,1.3254604617407535
202,1544.5700000000002,1.3165048904532004
203,1555.28,1.3015660252142836
204,1566.06,1.2893940302679228
205,1573.29,1.2835292719133595
206,1584.19,1.2726544960399517
207,1595.1699999999998,1.2606846362151798
208,1606.2299999999998,1.2465155724390433
209,1613.64,1.2379612576939099
210,1624.83,1.222284058746806
211,1636.0900000000001,1.211643490092258
212,1643.64,1.2036590259322373
213,1655.0400000000002,1.1863546878628013
214,1659.58691,1.182636961497172
215,1666.51,1.1794829733683678
216,1670.35,1.171078524817375
217,1678.0600000000002,1.1722382968673342
218,1685.8100000000002,1.1679910044532207
219,1693.5900000000001,1.1580880111910523
220,1705.33,1.1468419959856728
221,1713.2,1.1396463901793408
222,1725.08,1.1301262243497063
223,1733.0400000000002,1.1275459959992102
224,1745.05,1.116223013161339
225,1753.11,1.114325918650661
226,1765.26,1.0982100251885347
227,1773.3999999999999,1.0945733917497111
228,1785.7,1.0852534940473118
229,1793.94,1.0847674044483058
230,1806.3799999999999,1.0726127061216515
231,1814.71,1.0629502539784816
232,1823.09,1.0564995737552212
233,1835.7299999999998,1.0435251331082025
234,1844.2,1.0313983203407775
235,1856.98,1.023475439069504
236,1865.55,1.0204344401418974
237,1874.17,1.0159100631341993
238,1887.1599999999999,1.0021444459265436
239,1895.8700000000001,0.9952896963746816
240,1904.62,0.9897339023587471
241,1905.46072,0.9889967412268572
242,1913.41,0.9838242426453524
243,1926.67,0.9732436784451226
244,1935.5700000000002,0.963530598627472
245,1944.5000000000002,0.9694124719677396
246,1953.48,0.9619871639045374
247,1967.02,0.9610384958448758
248,1976.1000000000001,0.9554072249747334
249,1985.22,0.9489660049818153
250,1994.38,0.9423562258661211
251,2003.5900000000001,0.936184075346957
252,2012.83,0.9293932379857109
253,2026.79,0.9205838541369019
254,2036.1399999999999,0.9175412316880219
255,2045.5400000000002,0.9163974778356718
256,2054.98,0.9071177648605458
257,2064.47,0.9004402404819501
258,2074.0,0.9030446269805784
259,2078.78,0.9071080768088512
260,2083.5699999999997,0.9084998343564308
261,2093.19,0.8974019803288129
262,2102.85,0.8885888871784193
263,2117.42,0.8829504642072767
264,2127.2,0.8763082236885553
265,2137.02,0.8622091640470578
266,2146.88,0.8650655152827843
267,2156.79,0.8616730151150409
268,2166.75,0.8498854535438276
269,2176.75,0.8446245528498383
270,2186.79,0.8430660530330731
271,2187.7616199999998,0.8429382250222837
272,2196.89,0.8435685571136888
273,2207.03,0.8359919268467285
274,2217.22,0.8222791358585312
275,2227.45,0.8183516502933437
276,2232.59,0.829648972150131
277,2242.89,0.8205360735752112
278,2253.24,0.8066121942790536
279,2263.64,0.8034584042616587
280,2274.09,0.8047005635230262
281,2284.59,0.8088818920631563
282,2295.13,0.7959266860262963
283,2305.73,0.7975065431239516
284,2316.37,0.7870667856446167
285,2327.06,0.7620570174440445
286,2332.43,0.7658690979831397
287,2343.19,0.7518634167728347
288,2354.01,0.767372738697045
289,2364.87,0.7446704660442653
290,2375.79,0.7489113765260006
291,2386.76,0.7290172662864984
292,2392.2599999999998,0.7345117969503763
293,2403.2999999999997,0.7283506437011417
294,2414.39,0.7287811597306695
295,2425.54,0.7422928388947123
296,2436.73,0.7357492734817652
297,2442.35,0.742370870414673
298,2453.62,0.738859205847746
299,2464.95,0.7310089044153341
300,2476.33,0.7198407922616846
301,2487.7599999999998,0.7098291393867976
302,2493.49,0.7052067987329829
303,2505.0,0.722725996704116
304,2510.78,0.6901887853290637
305,2511.88643,0.6888520491728356
306,2516.56,0.6837055774056349
307,2522.37,0.6824640605091118
308,2534.0099999999998,0.686823723749124
309,2545.7000000000003,0.6853496045717823
310,2557.4599999999996,0.6998039000101454
311,2563.35,0.6882358712458561
312,2575.1800000000003,0.6956646912999233
313,2587.07,0.6883901624531661
314,2593.03,0.6823266383045813
315,2605.0,0.6726277475900578
316,2617.03,0.6645551279747096
317,2623.06,0.6777206184418295
318,2635.17,0.692857746958715
319,2647.33,0.7153013430582468
320,2653.43,0.731586888141071
321,2665.6800000000003,0.6938063458893655
322,2677.98,0.7031710712203065
323,2684.16,0.7068990044353645
324,2696.5499999999997,0.6849722914150683
325,2702.76,0.6967194451797138
326,2715.24,0.6734067938081808
327,2727.77,0.6667066100192935
328,2734.06,0.677184051916173
329,2746.6800000000003,0.6348095697760487
330,2753.01,0.6454404657390451
331,2765.72,0.6552763052476841
332,2772.0899999999997,0.6637379352767974
333,2784.89,0.6320032564341991
334,2797.7400000000002,0.5901744251742468
335,2804.1899999999996,0.5960559433355939
336,2817.1400000000003,0.6452177272409338
337,2823.6299999999997,0.6730519394683979
338,2836.66,0.6650475315059716
339,2843.2000000000003,0.6528020113160815
340,2856.3300000000004,0.6247819385189475
341,2862.9100000000003,0.6666497123951745
342,2876.13,0.6731605012468034
343,2882.7599999999998,0.6649391427056767
344,2884.0315,0.665102848520337
345,2896.06,0.6677562593165438
346,2909.4300000000003,0.7007116986080967
347,2929.6,0.6810914649888464
348,2949.91,0.6715973186920208
349,2970.35,0.6784765677660181
350,2990.94,0.6767477961140417
351,3011.67,0.6796850117844899
352,3032.55,0.6780391067289646
353,3046.55,0.6805135389714284
354,3067.67,0.6844680407543453
355,3088.93,0.6850617298596869
356,3110.3399999999997,0.6884207982390549
357,3131.9,0.6778958458924491
358,3153.61,0.6763973728198699
359,3168.17,0.6821742543520324
360,3190.13,0.6561586800694971
361,3212.2400000000002,0.6693297850609882
362,3227.07,0.6428016492863982
363,3249.44,0.6779509450195349
364,3271.96,0.6977207200266984
365,3287.06,0.6921005669453557
366,3309.85,0.6865280246457666
367,3311.31121,0.6858068270914255
368,3325.12,0.6798806893496453
369,3332.79,0.6867941022938311
370,3340.47,0.666653251239248
371,3348.1699999999996,0.7104081721871269
372,3355.8900000000003,0.6958527651374676
373,3363.63,0.6340367300902705
374,3371.38,0.6470524310443044
375,3379.15,0.6950242040008003
376,3386.94,0.6855258489597584
377,3394.7500000000005,0.6781913659211783
378,3402.58,0.7200730548850605
379,3410.42,0.6676782798501734
380,3418.28,0.6649968768177486
381,3426.16,0.6784093457877856
382,3434.06,0.7098111867602847
383,3441.98,0.6619935997352457
384,3449.91,0.665642248711438
385,3457.87,0.676648805691323
386,3465.84,0.6558094986724392
387,3473.82,0.6937919276547864
388,3481.8300000000004,0.6624496646408264
389,3489.86,0.6851952736293287
390,3497.9,0.657615418619062
391,3505.97,0.6929191716124884
392,3514.05,0.6624718606071456
393,3522.15,0.6906676216042649
394,3530.27,0.6543350546038462
395,3538.4100000000003,0.6920556596058896
396,3546.57,0.700979336610395
397,3554.7400000000002,0.7002243496161314
398,3562.94,0.6831657706255609
399,3571.15,0.6437491276362213
400,3579.3799999999997,0.6525938566493439
401,3587.63,0.6125518576649283
402,3593.31,0.7193146063641429
403,3595.9999999999995,0.666316490695285
404,3598.69,0.619092675026427
405,3601.38,0.6277773593575691
406,3604.08,0.6798012796899422
407,3606.7700000000004,0.6736761640210842
408,3609.46,0.6796389483522264
409,3612.15,0.6904456326833686
410,3614.84,0.6901732170145105
411,3617.5400000000004,0.6619214373468836
412,3620.23,0.7141311216780257
413,3622.92,0.733329806009168
414,3625.61,0.75143279034031
415,3628.31,0.7025357106726831
416,3631.0,0.6183960950038252
417,3633.69,0.6259589793349672
418,3636.38,0.6732118636661093
419,3639.08,0.7009467839984824
420,3641.7699999999995,0.7034224683296246
421,3644.46,0.6908099526607666
422,3647.15,0.6931464369919087
423,3649.85,0.7281166573242819
424,3652.5400000000004,0.7354709416554239
425,3655.23,0.606771425986566
426,3657.92,0.5734789103177081
427,3660.62,0.7226405306500813
428,3663.3100000000004,0.7178722149812233
429,3666.0,0.7897269993123655
430,3668.69,0.7041350836435076
431,3671.39,0.6971109039758807
432,3674.08,0.7478334883070228
433,3676.77,0.6758078726381649
434,3679.46,0.6909192569693069
435,3682.15,0.758208641300449
436,3684.85,0.6837791616328222
437,3687.5400000000004,0.6961946459639642
438,3690.23,0.6802862302951063
439,3692.92,0.6539944146262484
440,3695.62,0.7504301349586215
441,3698.3100000000004,0.7725073192897636
442,3701.0,0.6489212036209058
443,3703.69,0.6190202879520478
444,3706.39,0.630032608284421
445,3709.08,0.7225669926155629
446,3711.77,0.727938576946705
447,3714.46,0.7294314612778472
448,3717.16,0.7786287816102203
449,3719.85,0.8135502659413624
450,3722.54,0.8763958502725044
451,3725.23,1.0054989346036465
452,3727.93,0.9586444549360198
453,3730.62,0.8861930392671618
454,3733.3100000000004,0.7431361235983038
455,3736.0,0.697869007929446
456,3738.7,0.7257865282618191
457,3741.39,0.6624659125929612
458,3744.0800000000004,0.6627499969241032
459,3746.77,0.6861228812552453
460,3749.47,0.6553666015876185
461,3752.16,0.6932099859187606
462,3754.85,0.7548552702499026
463,3757.54,0.7697231545810448
464,3760.23,0.7791386389121868
465,3762.93,0.74042475924456
466,3765.62,0.6801304435757021
467,3768.3100000000004,0.6653177279068441
468,3771.0,0.6862208122379863
469,3773.7,0.7508280325703593
470,3776.39,0.7816711169015014
471,3779.0800000000004,0.7872688012326434
472,3781.77,0.7754390855637856
473,3784.47,0.8939108058961588
474,3787.16,0.8980389902273008
475,3789.8500000000004,0.8046987745584429
476,3792.54,0.7856511588895849
477,3795.24,0.7454327792219582
478,3797.93,0.7291592635531002
479,3800.62,0.7531930478842424
480,3801.8939600000003,0.7748344951625028
481,3803.31,0.7989537646724314
482,3806.01,0.8340198586877701
483,3808.7,0.7665342630956448
484,3811.39,0.7584006675035193
485,3814.0800000000004,0.8133328719113939
486,3816.78,0.7436608659267326
487,3819.47,0.7382057703346072
488,3822.16,0.7486910747424818
489,3824.8500000000004,0.6987542791503563
490,3827.54,0.779984083558231
491,3830.24,0.5993386775735698
492,3832.93,0.6644452819814444
493,3835.6200000000003,0.6154301863893189
494,3838.31,0.6247673907971936
495,3841.01,0.7030896848125322
496,3843.7,0.8293400892204069
497,3846.39,0.8132060936282814
498,3849.08,0.783253398036156
499,3851.78,0.8190588920514947
500,3854.47,0.7190924964593695
501,3857.16,0.798287300867244
502,3859.8500000000004,0.8053027052751185
503,3862.55,0.8221848992904572
504,3865.24,0.7916933036983319
505,3867.93,0.8544087081062064
506,3870.6200000000003,0.782670312514081
507,3873.32,0.8114665065294198
508,3876.0099999999998,0.8135599109372944
509,3878.7,0.7609187153451691
510,3881.3900000000003,0.7474630197530436
511,3884.09,0.7497356137683824
512,3886.78,0.7270271181762569
513,3889.47,0.7556441225841315
514,3892.16,0.7401101269920061
515,3894.86,0.7939778210073449
516,3897.55,0.8617456254152194
517,3900.24,0.8233838298230941
518,3902.93,0.8358867342309686
519,3905.6200000000003,0.9028026386388432
520,3908.32,0.8872994326541821
521,3911.0099999999998,0.8669999370620567
522,3913.7,0.8713370414699311
523,3916.3900000000003,0.9233300458778058
524,3919.09,0.8930604398931445
525,3921.78,0.9005978443010191
526,3924.47,0.8091798487088937
527,3927.1600000000003,0.6895333531167682
528,3929.86,0.616191947132107
529,3932.55,0.5980835515399816
530,3935.24,0.6805567559478563
531,3937.93,0.6999209603557308
532,3940.63,0.7460404543710695
533,3943.32,0.8001463587789441
534,3946.0099999999998,0.7913258631868187
535,3948.7,0.8423273675946934
536,3951.4,0.8162497616100322
537,3954.09,0.8323528660179067
538,3956.7799999999997,0.7520051704257813
539,3959.47,0.7736391748336559
540,3962.17,0.7668588688489946
541,3964.86,0.6818413732568691
542,3967.55,0.6486188776647437
543,3970.24,0.6108394820726184
544,3972.9300000000003,0.6252727864804929
545,3975.63,0.7560858804958317
546,3978.32,0.7874682849037062
547,3981.0099999999998,0.8480095893115809
548,3983.7,0.9198911937194555
549,3986.4,0.9070402877347943
550,3989.09,0.8912975921426688
551,3991.7799999999997,0.9173928965505433
552,3994.47,0.930939600958418
553,3997.17,0.9824585949737568
554,3999.86,1.0189112993816312
555,4002.55,0.9573479037895058
556,4005.24,0.9622504081973806
557,4007.94,0.9364681022127193
558,4010.63,1.0044795066205938
559,4013.32,0.9756577110284683
560,4016.0099999999998,0.9403310154363431
561,4018.7099999999996,1.0062337094516818
562,4021.4,1.0310769138595564
563,4024.09,0.9677307182674308
564,4026.7799999999997,0.9968699226753055
565,4029.4799999999996,1.0263609166906444
566,4032.17,0.9866776210985189
567,4034.86,0.9852927255063935
568,4037.5499999999997,0.9911605299142682
569,4040.2500000000005,1.0590718239296069
570,4042.94,0.9592449283374813
571,4045.63,1.000297932745356
572,4048.32,0.9379604371532306
573,4051.0099999999998,0.9867446415611052
574,4053.71,0.952248535576444
575,4056.4,1.0034848399843184
576,4059.09,0.970819244392193
577,4061.7799999999997,0.9517720488000678
578,4064.4799999999996,0.9711234428154065
579,4067.17,0.954476547223281
580,4069.86,0.9357423516311556
581,4072.5499999999997,0.9831264560390303
582,4075.2500000000005,0.9331943500543689
583,4077.94,0.9313484544622437
584,4080.63,0.9105793588701182
585,4083.3199999999997,0.9018024632779928
586,4086.02,0.8740374572933315
587,4088.71,0.9263694617012062
588,4091.4,0.9410118661090807
589,4094.09,0.8556029705169552
590,4096.79,0.8167069645322941
591,4099.48,0.7968856689401687
592,4102.17,0.8341469733480432
593,4104.860000000001,0.8274918777559177
594,4107.56,0.8526093717712564
595,4110.25,0.8634338761791311
596,4112.94,0.9264275805870057
597,4115.63,0.9314865849948804
598,4118.32,0.9713047894027549
599,4121.02,0.9159461834180938
600,4123.71,0.8882026878259682
601,4126.4,0.9304383922338428
