,lambda (Angstroms),Total Flux (erg/s/cm^2/Angstrom)
0,102.05000000000001,8.29073568729375
1,103.95,8.26710569537415
2,104.712855,8.25761819994005
3,105.88,8.181369766637252
4,108.10000000000001,8.036339371633249
5,110.11,7.905028209434262
6,113.96999999999998,7.652858402855255
7,117.97999999999999,7.3908893130673095
8,120.22644299999999,7.2441342144023
9,121.01,7.201218591503933
10,124.97,6.984324885983767
11,127.0,6.87313942290043
12,127.88000000000001,6.824941020720948
13,130.86,6.661723062340774
14,132.07,6.595451269343612
15,133.91,6.494672662712243
16,137.03,6.323789081840355
17,138.038426,6.268556777931798
18,139.9,6.1956779026536495
19,143.16,6.068079057065836
20,147.17,5.911155456200857
21,150.94,5.7635750285981695
22,155.17,5.597988464157755
23,158.489319,5.4680539412407745
24,159.14999999999998,5.448502344094003
25,162.10999999999999,5.360907509164335
26,165.89,5.249051135685912
27,170.14000000000001,5.1232821640271
28,172.91,5.041314865283123
29,176.93,4.922356714380672
30,179.81,4.837134015392348
31,181.89000000000001,4.775585403217447
32,181.970086,4.773215564471006
33,186.13000000000002,4.67931121504712
34,190.9,4.571640124301581
35,194.0,4.501668406847248
36,198.07000000000002,4.409797706775267
37,202.21,4.316352196165932
38,205.03,4.252703174261022
39,208.929613,4.164668424890655
40,209.79999999999998,4.14989698830246
41,216.17999999999998,4.041669835788251
42,220.20000000000002,3.973469887901553
43,222.73999999999998,3.9303760577507556
44,226.89000000000001,3.8599743242027973
45,230.04,3.806891821095312
46,233.78,3.7442205848559467
47,239.78,3.6428758464131166
48,239.88329199999998,3.641121579490114
49,245.93,3.561974048067062
50,252.24,3.4796280267676196
51,256.93,3.417910639196401
52,259.9,3.3794315403613227
53,264.12,3.3243931774273046
54,269.03,3.2602056512386737
55,274.04,3.1947034370421266
56,275.42287,3.1766235540582657
57,279.13,3.1394336003582892
58,284.32,3.0873738339931607
59,290.27,3.0275488907633887
60,295.67,2.973427472672504
61,301.17,2.9182011952836397
62,308.18,2.847904276295287
63,316.227766,2.7671963321836013
64,318.28000000000003,2.751830163458964
65,327.95,2.679367918686224
66,337.92,2.6046194186754468
67,348.18,2.5276889897345667
68,357.11,2.4607391857489853
69,363.078055,2.4160003530225556
70,366.28000000000003,2.3980266103599743
71,374.81,2.3501161078183315
72,385.31,2.291046333414199
73,395.19,2.235643071220596
74,405.33,2.17869854039032
75,413.82,2.1309904020235493
76,416.86938299999997,2.113852643726111
77,422.48,2.0897671544937544
78,430.34000000000003,2.0560223379256093
79,441.37999999999994,2.008661989646689
80,450.62,1.9689784715436784
81,460.04999999999995,1.9284949560554336
82,469.68999999999994,1.8871112432466655
83,478.630092,1.8487461478893037
84,479.52000000000004,1.8458084891086994
85,489.56,1.8126193173887126
86,499.81,1.7787982654873316
87,505.6,1.7596553196288929
88,511.46,1.7404059600433228
89,519.77,1.7129636940081545
90,529.43,1.6810367086640237
91,540.52,1.6443631240370655
92,549.5408739999999,1.6145705387305636
93,550.5600000000001,1.6120019063916105
94,559.51,1.5894948408651601
95,569.91,1.5633210865830276
96,580.51,1.5365773945070078
97,589.9399999999999,1.5128384284752283
98,599.53,1.4886209946083389
99,610.6700000000001,1.4603456985888237
100,620.59,1.4356199838120203
101,630.68,1.4101757409604132
102,630.957344,1.409477381614647
103,639.45,1.3925214798880734
104,649.84,1.3717641156652571
105,657.37,1.3566956659753817
106,664.98,1.3415272574733959
107,674.23,1.3230500903231506
108,685.1899999999999,1.301094934064049
109,694.72,1.2821377760714172
110,704.38,1.262767417509107
111,715.8299999999999,1.2399895760258306
112,724.43596,1.2228018013602429
113,725.7800000000001,1.2208083723712588
114,734.1899999999999,1.2083362141992757
115,744.4000000000001,1.193209271067771
116,754.76,1.1778502725229734
117,765.26,1.162160145592435
118,774.1199999999999,1.1491611721805715
119,784.89,1.133185821506105
120,795.81,1.1170224524183452
121,805.0200000000001,1.10338133004213
122,814.34,1.0895676093628335
123,825.67,1.072806860145405
124,831.763771,1.0636637997033784
125,835.23,1.0597590766725287
126,844.91,1.0491969308242108
127,854.69,1.0383543876861379
128,864.5899999999999,1.0274168230003584
129,874.5999999999999,1.0163577108958481
130,884.7199999999999,1.0051819103726067
131,894.9699999999999,0.9938526971726835
132,905.33,0.9823532295540294
133,915.8199999999999,0.9713513172586936
134,924.29,0.9695717520164155
135,934.99,0.9683506240125931
136,945.82,0.9740333233320889
137,954.57,0.9795175454784958
138,954.992586,0.9793273409533243
139,965.62,0.9747980358800789
140,974.5600000000001,0.9158480113414722
141,985.84,0.9449084384337003
142,994.97,0.9373924305659734
143,1004.1700000000001,0.9510003762085707
144,1015.8000000000001,0.9346809508524193
145,1025.2,0.8814451850959426
146,1034.68,0.8921481947798364
147,1044.26,0.9287200837641931
148,1053.92,0.9164341981889204
149,1066.12,0.8831981328454084
150,1075.99,0.8868269478011076
151,1085.95,0.8566724601272239
152,1095.99,0.8690886478937105
153,1096.4782,0.8683714540278411
154,1106.13,0.8560866395998304
155,1113.8,0.8457336621895303
156,1124.11,0.8278335131543025
157,1134.51,0.8391544646318612
158,1145.01,0.8205576511236271
159,1155.6,0.8165908181281798
160,1166.29,0.8100573501469396
161,1174.38,0.7730764817963097
162,1185.24,0.789645170339222
163,1196.21,0.7498040083977624
164,1204.5,0.7241249700755471
165,1215.65,0.6970945591596605
166,1224.07,0.7228614993559149
167,1235.3999999999999,0.7458435194656015
168,1243.96,0.7480933826817457
169,1255.48,0.7333107283184263
170,1258.92541,0.7243920018656671
171,1264.18,0.7121275848226954
172,1275.8700000000001,0.7301807072472521
173,1284.72,0.7299027485181955
174,1293.6200000000001,0.699985919457336
175,1305.5900000000001,0.6907073000237983
176,1314.6399999999999,0.7077769099675315
177,1323.76,0.6968398094467407
178,1336.0,0.6764997882214691
179,1345.27,0.6886799467052707
180,1354.59,0.6788820448572697
181,1363.98,0.6610780125447451
182,1373.4399999999998,0.6600209197676971
183,1386.1399999999999,0.6529621354898416
184,1395.75,0.6337247417173855
185,1405.43,0.6310640774804059
186,1415.17,0.6264622828452633
187,1424.9800000000002,0.6225257877455969
188,1434.85,0.6153761922477679
189,1441.48,0.6165415882507455
190,1445.43977,0.6150433993689962
191,1448.1299999999999,0.6145389974964
192,1454.82,0.6084766167470779
193,1464.9,0.5958808239588613
194,1475.05,0.5909724708040601
195,1485.28,0.5879816658017333
196,1495.57,0.5849944019137624
197,1505.94,0.5752077061782659
198,1512.89,0.5619829069244857
199,1516.3799999999999,0.5660749200761847
200,1523.38,0.5602206634177009
201,1533.94,0.5446708895443314
202,1544.5700000000002,0.5474462353043769
203,1555.28,0.538018209216897
204,1566.06,0.5341450127628322
205,1573.29,0.5359034920427127
206,1584.19,0.5349650678173595
207,1595.1699999999998,0.531920401744481
208,1606.2299999999998,0.5248459638240769
209,1613.65,0.5217698749660841
210,1624.83,0.5118548092743918
211,1636.0900000000001,0.5118711917351737
212,1643.64,0.509734293624952
213,1655.0400000000002,0.4976006153525644
214,1659.58691,0.4985700749810709
215,1666.51,0.5009612250792016
216,1670.35,0.49009406781272624
217,1678.0600000000002,0.49779429408238096
218,1685.8100000000002,0.49911537142217666
219,1693.5900000000001,0.490801409564578
220,1705.33,0.48370058365092666
221,1713.2,0.47739390420114497
222,1725.08,0.47318336203298667
223,1733.0400000000002,0.4757082149910219
224,1745.05,0.46992919630082153
225,1753.11,0.4728072319342091
226,1765.26,0.4613084469895017
227,1773.3999999999999,0.461170394763171
228,1785.7,0.45849101383149193
229,1793.94,0.46179007428051333
230,1806.3799999999999,0.4567443170943274
231,1814.71,0.4478512499511659
232,1823.09,0.4465618041456805
233,1835.7299999999998,0.43917513231019895
234,1844.2,0.4300343589125304
235,1856.98,0.4267461508225419
236,1865.55,0.42662819010022573
237,1874.17,0.4294787407155855
238,1887.1599999999999,0.4194397782438367
239,1895.8700000000001,0.4142346112670135
240,1904.62,0.4150738353603312
241,1905.46072,0.41458650710224504
242,1913.41,0.4106348929492568
243,1926.67,0.40581487299734953
244,1935.5700000000002,0.4042889077807601
245,1944.5000000000002,0.40719571993984516
246,1953.48,0.4007286910583876
247,1967.02,0.40441210327944155
248,1976.1000000000001,0.4036326323168987
249,1985.22,0.39814866452192177
250,1994.38,0.3939930098945107
251,2003.5900000000001,0.39311453422655696
252,2012.83,0.38879570593427776
253,2026.79,0.3876885014147735
254,2036.1399999999999,0.38335020683330046
255,2045.5400000000002,0.38431806121128465
256,2054.98,0.3787457787568348
257,2064.47,0.37643146526184235
258,2074.0,0.3796477249344158
259,2078.78,0.3807523034585396
260,2083.5699999999997,0.38442253777455515
261,2093.19,0.3771208295741517
262,2102.85,0.3743863745413143
263,2117.43,0.3731172991190814
264,2127.2,0.37034691779705026
265,2137.02,0.36204002543447633
266,2146.88,0.3649641762394683
267,2156.79,0.3649589960039177
268,2166.75,0.35828972472782444
269,2176.75,0.35566795661929707
270,2186.79,0.3559283116783356
271,2187.7616199999998,0.3559784376320948
272,2196.89,0.35711789872147404
273,2207.03,0.3529407660669378
274,2217.22,0.34433912417840495
275,2227.45,0.34277193490267466
276,2232.59,0.3512688656478111
277,2242.89,0.34562683344448547
278,2253.24,0.336995122007163
279,2263.64,0.3355647413358438
280,2274.09,0.3371540414305279
281,2284.59,0.3421734322912153
282,2295.13,0.3336122357647053
283,2305.73,0.3358791381573992
284,2316.37,0.32840270316289577
285,2327.06,0.3116667189343956
286,2332.43,0.3166632272031472
287,2343.19,0.30910502004705154
288,2354.01,0.3194988018101599
289,2364.87,0.3063670261860708
290,2375.79,0.3094188794811857
291,2386.76,0.2987229735423038
292,2392.2599999999998,0.30290794780266395
293,2403.2999999999997,0.29926156893618666
294,2414.39,0.3003874308357127
295,2425.54,0.31004576165444253
296,2436.73,0.3065991850859751
297,2442.35,0.312404907184743
298,2453.62,0.31141577584188085
299,2464.95,0.30561216341822256
300,2476.33,0.2993944417605675
301,2487.7599999999998,0.2917114208689158
302,2493.49,0.2907072126528909
303,2505.0,0.30284107698684437
304,2510.78,0.28267334953682277
305,2511.88643,0.28226125653439593
306,2516.56,0.28070307077503764
307,2522.37,0.27904944303815093
308,2534.0099999999998,0.2840657248527187
309,2545.7000000000003,0.2831830298881393
310,2557.4599999999996,0.29852044543275424
311,2563.35,0.2886432068492322
312,2575.1800000000003,0.29620096290304115
313,2587.07,0.29089730082187365
314,2593.03,0.2867765127475458
315,2605.0,0.2806331498197431
316,2617.03,0.27650708875696384
317,2623.06,0.28490555119183014
318,2635.17,0.3030965992824156
319,2647.33,0.3214331705938541
320,2653.43,0.3437764435379146
321,2665.6800000000003,0.30783514264688827
322,2677.98,0.3160604149767151
323,2684.16,0.3242456570741402
324,2696.5499999999997,0.30263093720150225
325,2702.76,0.3151184352314391
326,2715.24,0.2940626031563366
327,2727.77,0.2842825943020869
328,2734.06,0.2954097414853885
329,2746.6800000000003,0.2665417504286741
330,2753.01,0.2761435121886582
331,2765.72,0.2872473489294792
332,2772.0899999999997,0.2921010252661455
333,2784.89,0.2679339298045018
334,2797.7400000000002,0.24164944756371098
335,2804.1899999999996,0.24630088305374215
336,2817.1400000000003,0.28095770725465724
337,2823.6299999999997,0.30370716732137076
338,2836.66,0.2979408806756506
339,2843.2000000000003,0.28017304396321696
340,2856.3300000000004,0.2575220837592027
341,2862.9100000000003,0.29785992162345154
342,2876.13,0.31687814921697266
343,2882.7599999999998,0.3073286303020744
344,2884.0315,0.3086617834008465
345,2896.06,0.3216768239238822
346,2909.4300000000003,0.3566703064609787
347,2929.6,0.3372282604455139
348,2949.8999999999996,0.32761433550183844
349,2970.35,0.33313541948715053
350,2990.94,0.3334262184728511
351,3011.67,0.3340979324589401
352,3032.55,0.3389762553740167
353,3046.55,0.34343065541286116
354,3067.67,0.352132632614318
355,3088.93,0.3493219248161633
356,3110.3399999999997,0.36627032594699616
357,3131.9,0.3539111360068166
358,3153.61,0.35233445499562477
359,3168.17,0.36490051503602305
360,3190.13,0.34027038223981054
361,3212.2400000000002,0.3556987583725856
362,3227.07,0.3286105544851616
363,3249.44,0.37932537276151523
364,3271.96,0.4087287999668565
365,3287.06,0.40299353215161016
366,3309.85,0.3906112954291292
367,3311.31121,0.3896729659801853
368,3325.12,0.38113019269776804
369,3332.79,0.38564017076668045
370,3340.47,0.3668769778813151
371,3348.1699999999996,0.4145392430873941
372,3355.8900000000003,0.4033243663849173
373,3363.63,0.32509794777388507
374,3371.38,0.34700105820857496
375,3379.15,0.4022469267347092
376,3386.94,0.3903228533522878
377,3394.7500000000005,0.38326813806131077
378,3402.58,0.43053318086177805
379,3410.42,0.3803411527079676
380,3418.28,0.36620998264560145
381,3426.16,0.39133447067467964
382,3434.06,0.4193868167952023
383,3441.98,0.3594926210071692
384,3449.91,0.36832865426485834
385,3457.8599999999997,0.39331704561399183
386,3465.84,0.3670464241002918
387,3473.83,0.4087729316323141
388,3481.8300000000004,0.37806786821005844
389,3489.86,0.39950669192496935
390,3497.9100000000003,0.37403227373132464
391,3505.97,0.4206433845834021
392,3514.05,0.38098855352692396
393,3522.15,0.41410888056189016
394,3530.27,0.3692702656883007
395,3538.4100000000003,0.41785550890615564
396,3546.57,0.42470501021545487
397,3554.7400000000002,0.42170974057047633
398,3562.94,0.40282705806266433
399,3571.15,0.3573631046005745
400,3579.3799999999997,0.37961260922992907
401,3587.63,0.32380797195072797
402,3595.9,0.39161289276297123
403,3604.19,0.42345167166665887
404,3612.5,0.3553873086617908
405,3620.8,0.3749183166112006
406,3623.54,0.3641317751390781
407,3626.27,0.37685330462123334
408,3629.0099999999998,0.41246296314911085
409,3631.74,0.4041205926312661
410,3634.48,0.40651305115914355
411,3637.22,0.42271980968702105
412,3639.9500000000003,0.40848373916917624
413,3642.69,0.4211152976970537
414,3645.4199999999996,0.38807312717920905
415,3648.16,0.3934770857070864
416,3650.9,0.4019200442349639
417,3653.63,0.4426582737171192
418,3656.37,0.4476440322449966
419,3659.1099999999997,0.4684985907728741
420,3661.84,0.46724372025502936
421,3664.58,0.4607610787829068
422,3667.31,0.4576636082650621
423,3670.05,0.45791896679293953
424,3672.7900000000004,0.44370822532081694
425,3675.52,0.4276571548029723
426,3678.2599999999998,0.4536272133308497
427,3680.9900000000002,0.41656424281300497
428,3683.73,0.4075515013408824
429,3686.47,0.4055793598687599
430,3689.2000000000003,0.4075970893509151
431,3691.94,0.4171758478787926
432,3694.6800000000003,0.44537350640667006
433,3697.41,0.45566963588882536
434,3700.1499999999996,0.45564999441670284
435,3702.88,0.438333823898858
436,3705.62,0.42118028242673555
437,3708.36,0.40969234095461293
438,3711.09,0.4352245704367682
439,3713.8300000000004,0.42563422896464564
440,3716.56,0.44321825844680096
441,3719.2999999999997,0.4740838169746785
442,3722.04,0.5104770755025558
443,3724.77,0.5634844049847112
444,3727.5099999999998,0.6279022635125886
445,3730.25,0.592349522040466
446,3732.98,0.4906842515226213
447,3735.7200000000003,0.4376128100504988
448,3738.45,0.39183993953265406
449,3741.1899999999996,0.42066199806053156
450,3743.93,0.38645725658840896
451,3746.66,0.3823281860705642
452,3749.4,0.3795612445984417
453,3752.13,0.38757997408059697
454,3754.8700000000003,0.4232638326084744
455,3757.61,0.4306148911363518
456,3760.3399999999997,0.4236395206185072
457,3763.08,0.4109413791463846
458,3765.8199999999997,0.4094642376742621
459,3768.55,0.4192101671564173
460,3771.29,0.4170729256842947
461,3774.02,0.45005835516645004
462,3776.76,0.4743782136943275
463,3779.5,0.4884671722222049
464,3782.2299999999996,0.5039063017043602
465,3784.97,0.47322166023223766
466,3787.7,0.46044338971439297
467,3790.44,0.43806434824227036
468,3793.18,0.4164831067701479
469,3795.9100000000003,0.4077199362523031
470,3798.65,0.40492269478018056
471,3801.39,0.426877453308058
472,3801.8939600000003,0.42783378284572443
473,3804.12,0.43209484462107395
474,3806.86,0.458495275836126
475,3809.59,0.450602612411707
476,3812.33,0.437482243626759
477,3815.0699999999997,0.43456537484181107
478,3817.8,0.3984827114173921
479,3820.54,0.38197704263244414
480,3823.2699999999995,0.3740729792080252
481,3826.01,0.3670556104230772
482,3828.75,0.3511303416381293
483,3831.48,0.3261060782137103
484,3834.22,0.3273394094287624
485,3836.96,0.3391171406438144
486,3839.69,0.3454426772193955
487,3842.43,0.3855697084344475
488,3845.1600000000003,0.4049645450100285
489,3847.9,0.4164313762250806
490,3850.6400000000003,0.4240478074401326
491,3853.37,0.4227279440157136
492,3856.1099999999997,0.4142280752307657
493,3858.84,0.40782041180634676
494,3861.58,0.42533764302139876
495,3864.32,0.4445324742364508
496,3867.05,0.4450004108120318
497,3869.79,0.4398283420270839
498,3872.53,0.4300358732421359
499,3875.2599999999998,0.41785270981771694
500,3878.0,0.411828041032769
501,3880.73,0.41435857760835004
502,3883.47,0.40676630882340203
503,3886.21,0.4107249400384541
504,3888.94,0.4154555766140351
505,3891.6800000000003,0.4317353078290872
506,3894.41,0.44730194440466825
507,3897.1499999999996,0.4529106756197203
508,3899.89,0.46611010683477233
509,3902.62,0.4682831434103534
510,3905.36,0.4755694746254054
511,3908.1,0.4912440058404574
512,3910.83,0.4959474424160385
513,3913.57,0.5061488736310905
514,3916.2999999999997,0.4978713102066715
515,3919.04,0.4791954414217236
516,3921.78,0.45028887263677564
517,3924.5099999999998,0.42845240921235667
518,3927.25,0.3862155404274087
519,3929.98,0.34134027700298974
520,3932.7200000000003,0.32292330821804177
521,3935.46,0.3142228394330938
522,3938.1899999999996,0.3366646760086749
523,3940.9300000000003,0.37344740722372693
524,3943.67,0.42071663843877893
525,3946.4,0.44772417501436
526,3949.14,0.48080770622941205
527,3951.87,0.49070894280499305
528,3954.61,0.4963175740200451
529,3957.35,0.4673010052350971
530,3960.0800000000004,0.4480223418106781
531,3962.82,0.3958763730257302
532,3965.5499999999997,0.3348655096013113
533,3968.29,0.31375054081636333
534,3971.0299999999997,0.3255612720314154
535,3973.76,0.3649115086069964
536,3976.5,0.4265370398220484
537,3979.24,0.48043967103710045
538,3981.9700000000003,0.5111052076126815
539,3984.71,0.5375879388277336
540,3987.44,0.5493870754033146
541,3990.18,0.5647315066183666
542,3992.9199999999996,0.5697624378334186
543,3995.65,0.5807641744089997
544,3998.39,0.5857125056240517
545,4001.1200000000003,0.5923964421996328
546,4003.86,0.5913217734146848
547,4006.6000000000004,0.5989930046297368
548,4009.33,0.6021840412053179
549,4012.0699999999997,0.61766587242037
550,4014.81,0.631139903635422
551,4017.54,0.633726040211003
552,4020.2799999999997,0.6312487714260551
553,4023.01,0.6252542080016361
554,4025.75,0.6298726392166881
555,4028.4900000000002,0.6208497704317402
556,4031.22,0.5967587070073213
557,4033.9599999999996,0.5888360382223733
558,4036.69,0.6045131747979543
559,4039.43,0.6087190060130063
560,4042.17,0.6071494372280584
561,4044.9,0.5961768738036394
562,4047.6400000000003,0.5959549050186914
563,4050.38,0.5995007362337434
564,4053.1099999999997,0.6048093728093246
565,4055.85,0.6029372040243766
566,4058.58,0.5858591405999576
567,4061.3199999999997,0.5821168718150096
568,4064.06,0.5777421030300617
569,4066.79,0.5833808396056428
570,4069.53,0.5941047708206948
571,4072.2599999999998,0.5937205073962758
572,4074.9999999999995,0.5877505386113279
573,4077.7400000000002,0.5862084698263799
574,4080.47,0.5967976064019609
575,4083.21,0.6095567376170129
576,4085.95,0.626633568832065
577,4088.6800000000003,0.640358205407646
578,4091.42,0.6363957366226981
579,4094.1499999999996,0.6133497731982791
580,4096.89,0.5890357044133311
581,4099.63,0.5620816356283832
582,4102.36,0.5581494722039643
583,4105.099999999999,0.5684884034190163
584,4107.83,0.5811127399945973
585,4110.57,0.6011874712096493
586,4113.31,0.6186218024247013
587,4116.04,0.6143873390002824
588,4118.780000000001,0.6174931702153345
589,4121.52,0.6190037014303865
